{
  "AcquisitionMatrixPE": 104,
  "AcquisitionNumber": 1,
  "AcquisitionTime": "16:27:22.695000",
  "BandwidthPerPixelPhaseEncode": 13.935,
  "BaseResolution": 104,
  "CoilString": "C:HEA;HEP",
  "ConversionSoftware": "dcm2niix",
  "ConversionSoftwareVersion": "v1.0.20210317",
  "DerivedVendorReportedEchoSpacing": 0.000690017,
  "DeviceSerialNumber": "35450",
  "DwellTime": 2.5e-06,
  "EchoTime": 0.0348,
  "EffectiveEchoSpacing": 0.000690017,
  "FlipAngle": 55,
  "ImageComments": "Unaliased MB8/PE3 (remote)",
  "ImageOrientationPatientDICOM": [0.999917, -0.00033762, -0.012896, 2.42565e-08, 0.999658, -0.0261695],
  "ImageType": [
    "ORIGINAL",
    "PRIMARY",
    "M",
    "MB",
    "ND",
    "MOSAIC"
],
  "ImagingFrequency": 123.234,
  "InPlanePhaseEncodingDirectionDICOM": "COL",
  "InstitutionAddress": "Univeristy Ave. 197,Newark,North East,US,07102-1814",
  "InstitutionName": "RUBIC",
  "InstitutionalDepartmentName": "Department",
  "MRAcquisitionType": "2D",
  "MagneticFieldStrength": 3,
  "Manufacturer": "Siemens",
  "ManufacturersModelName": "TrioTim",
  "Modality": "MR",
  "MultibandAccelerationFactor": 8,
  "PartialFourier": 0.875,
  "PatientPosition": "HFS",
  "PercentPhaseFOV": 100,
  "PercentSampling": 100,
  "PhaseEncodingDirection": "j-",
  "PhaseEncodingSteps": 91,
  "PhaseResolution": 1,
  "PixelBandwidth": 1923,
  "ProcedureStepDescription": "Cole^Michael",
  "ProtocolName": "cmrr_mbep2d_bold_2mm_MB8_Task_8x",
  "PulseSequenceDetails": "%CustomerSeq%\\cmrr_mbep2d_bold",
  "ReceiveCoilName": "32Ch_Head",
  "ReconMatrixPE": 104,
  "RepetitionTime": 0.785,
  "SAR": 0.112266,
  "ScanOptions": "PFP\\FS",
  "ScanningSequence": "EP",
  "SequenceName": "epfid2d1_104",
  "SequenceVariant": "SK\\SS",
  "SeriesDescription": "cmrr_mbep2d_bold_2mm_MB8_Task_8x",
  "SeriesNumber": 21,
  "ShimSetting": [2064, -432, -7322, 689, -50, -132, 311, 117],
  "SliceThickness": 2,
  "SliceTiming": [0, 0.4375, 0.0875, 0.525, 0.175, 0.6125, 0.2625, 0.7, 0.35, 0, 0.4375, 0.0875, 0.525, 0.175, 0.6125, 0.2625, 0.7, 0.35, 0, 0.4375, 0.0875, 0.525, 0.175, 0.6125, 0.2625, 0.7, 0.35, 0, 0.4375, 0.0875, 0.525, 0.175, 0.6125, 0.2625, 0.7, 0.35, 0, 0.4375, 0.0875, 0.525, 0.175, 0.6125, 0.2625, 0.7, 0.35, 0, 0.4375, 0.0875, 0.525, 0.175, 0.6125, 0.2625, 0.7, 0.35, 0, 0.4375, 0.0875, 0.525, 0.175, 0.6125, 0.2625, 0.7, 0.35, 0, 0.4375, 0.0875, 0.525, 0.175, 0.6125, 0.2625, 0.7, 0.35],
  "SoftwareVersions": "syngo MR B19",
  "SpacingBetweenSlices": 2,
  "StationName": "MRC35450",
  "TaskName": "cpro",
  "TotalReadoutTime": 0.0710717,
  "TxRefAmp": 313.071,
  "dcmmeta_affine": [
    [-1.999833583831787, 4.851301937947028e-08, -0.02580077387392521, 104.28946685791016],
    [0.0006752407061867416, 1.9993150234222412, -0.052334558218717575, -84.8324203491211],
    [-0.025791935622692108, 0.05233891308307648, 1.9991487264633179, -83.8442153930664],
    [0.0, 0.0, 0.0, 1.0]
],
  "dcmmeta_reorient_transform": [
    [0.0, -1.0, 0.0, 103.0],
    [1.0, 0.0, 0.0, 0.0],
    [0.0, 0.0, 1.0, 0.0],
    [0.0, 0.0, 0.0, 1.0]
],
  "dcmmeta_shape": [104, 104, 72, 581],
  "dcmmeta_slice_dim": 2,
  "dcmmeta_version": 0.6,
  "global": {
    "const": {
      "AcquisitionMatrix": [104, 0, 0, 104],
      "AngioFlag": "N",
      "BitsAllocated": 16,
      "BitsStored": 12,
      "Columns": 936,
      "EchoNumbers": 1,
      "EchoTime": 34.8,
      "EchoTrainLength": 1,
      "FlipAngle": 55.0,
      "HighBit": 11,
      "ImageOrientationPatient": [0.99991678654841, -0.0003376203603, -0.0128959680208, 2.4256509e-08, 0.99965752111952, -0.0261694567995],
      "ImagePositionPatient": [-936.22025839229, -952.53118986694, -45.950875649448],
      "ImageType": [
        "ORIGINAL",
        "PRIMARY",
        "M",
        "MB",
        "ND",
        "MOSAIC"
],
      "ImagedNucleus": "1H",
      "ImagingFrequency": 123.234441,
      "InPlanePhaseEncodingDirection": "COL",
      "MRAcquisitionType": "2D",
      "MagneticFieldStrength": 3.0,
      "Manufacturer": "SIEMENS",
      "ManufacturerModelName": "TrioTim",
      "Modality": "MR",
      "NumberOfAverages": 1.0,
      "NumberOfPhaseEncodingSteps": 91,
      "PercentPhaseFieldOfView": 100.0,
      "PercentSampling": 100.0,
      "PerformedProcedureStepStartTime": "144207.140000",
      "PhotometricInterpretation": "MONOCHROME2",
      "PixelBandwidth": 1923.0,
      "PixelRepresentation": 0,
      "PixelSpacing": [2.0, 2.0],
      "ProtocolName": "cmrr_mbep2d_bold_2mm_MB8_Task_8x",
      "RepetitionTime": 785.0,
      "Rows": 936,
      "SAR": 0.11226645213753,
      "SamplesPerPixel": 1,
      "ScanOptions": [
        "PFP",
        "FS"
],
      "ScanningSequence": "EP",
      "SequenceName": "epfid2d1_104",
      "SequenceVariant": [
        "SK",
        "SS"
],
      "SeriesDescription": "cmrr_mbep2d_bold_2mm_MB8_Task_8x",
      "SeriesNumber": 21,
      "SeriesTime": "162745.968000",
      "SliceLocation": -82.934068700058,
      "SliceThickness": 2.0,
      "SmallestImagePixelValue": 0,
      "SoftwareVersions": "syngo MR B19",
      "SpacingBetweenSlices": 2.0000000057387,
      "SpecificCharacterSet": "ISO_IR 100",
      "StudyID": "1",
      "StudyTime": "144207.093000",
      "TransmitCoilName": "Body",
      "VariableFlipAngleFlag": "N",
      "WindowCenterWidthExplanation": "Algo1",
      "dBdt": 0.0},
    "slices": {}
  },
  "time": {
    "samples": {
      "AcquisitionNumber": [1, 2, 3, 4, 5, 6, 7, 8, 9, 10, 11, 12, 13, 14, 15, 16, 17, 18, 19, 20, 21, 22, 23, 24, 25, 26, 27, 28, 29, 30, 31, 32, 33, 34, 35, 36, 37, 38, 39, 40, 41, 42, 43, 44, 45, 46, 47, 48, 49, 50, 51, 52, 53, 54, 55, 56, 57, 58, 59, 60, 61, 62, 63, 64, 65, 66, 67, 68, 69, 70, 71, 72, 73, 74, 75, 76, 77, 78, 79, 80, 81, 82, 83, 84, 85, 86, 87, 88, 89, 90, 91, 92, 93, 94, 95, 96, 97, 98, 99, 100, 101, 102, 103, 104, 105, 106, 107, 108, 109, 110, 111, 112, 113, 114, 115, 116, 117, 118, 119, 120, 121, 122, 123, 124, 125, 126, 127, 128, 129, 130, 131, 132, 133, 134, 135, 136, 137, 138, 139, 140, 141, 142, 143, 144, 145, 146, 147, 148, 149, 150, 151, 152, 153, 154, 155, 156, 157, 158, 159, 160, 161, 162, 163, 164, 165, 166, 167, 168, 169, 170, 171, 172, 173, 174, 175, 176, 177, 178, 179, 180, 181, 182, 183, 184, 185, 186, 187, 188, 189, 190, 191, 192, 193, 194, 195, 196, 197, 198, 199, 200, 201, 202, 203, 204, 205, 206, 207, 208, 209, 210, 211, 212, 213, 214, 215, 216, 217, 218, 219, 220, 221, 222, 223, 224, 225, 226, 227, 228, 229, 230, 231, 232, 233, 234, 235, 236, 237, 238, 239, 240, 241, 242, 243, 244, 245, 246, 247, 248, 249, 250, 251, 252, 253, 254, 255, 256, 257, 258, 259, 260, 261, 262, 263, 264, 265, 266, 267, 268, 269, 270, 271, 272, 273, 274, 275, 276, 277, 278, 279, 280, 281, 282, 283, 284, 285, 286, 287, 288, 289, 290, 291, 292, 293, 294, 295, 296, 297, 298, 299, 300, 301, 302, 303, 304, 305, 306, 307, 308, 309, 310, 311, 312, 313, 314, 315, 316, 317, 318, 319, 320, 321, 322, 323, 324, 325, 326, 327, 328, 329, 330, 331, 332, 333, 334, 335, 336, 337, 338, 339, 340, 341, 342, 343, 344, 345, 346, 347, 348, 349, 350, 351, 352, 353, 354, 355, 356, 357, 358, 359, 360, 361, 362, 363, 364, 365, 366, 367, 368, 369, 370, 371, 372, 373, 374, 375, 376, 377, 378, 379, 380, 381, 382, 383, 384, 385, 386, 387, 388, 389, 390, 391, 392, 393, 394, 395, 396, 397, 398, 399, 400, 401, 402, 403, 404, 405, 406, 407, 408, 409, 410, 411, 412, 413, 414, 415, 416, 417, 418, 419, 420, 421, 422, 423, 424, 425, 426, 427, 428, 429, 430, 431, 432, 433, 434, 435, 436, 437, 438, 439, 440, 441, 442, 443, 444, 445, 446, 447, 448, 449, 450, 451, 452, 453, 454, 455, 456, 457, 458, 459, 460, 461, 462, 463, 464, 465, 466, 467, 468, 469, 470, 471, 472, 473, 474, 475, 476, 477, 478, 479, 480, 481, 482, 483, 484, 485, 486, 487, 488, 489, 490, 491, 492, 493, 494, 495, 496, 497, 498, 499, 500, 501, 502, 503, 504, 505, 506, 507, 508, 509, 510, 511, 512, 513, 514, 515, 516, 517, 518, 519, 520, 521, 522, 523, 524, 525, 526, 527, 528, 529, 530, 531, 532, 533, 534, 535, 536, 537, 538, 539, 540, 541, 542, 543, 544, 545, 546, 547, 548, 549, 550, 551, 552, 553, 554, 555, 556, 557, 558, 559, 560, 561, 562, 563, 564, 565, 566, 567, 568, 569, 570, 571, 572, 573, 574, 575, 576, 577, 578, 579, 580, 581],
      "AcquisitionTime": ["162722.695000", "162723.482500", "162724.270000", "162725.057500", "162725.847500", "162726.635000", "162727.422500", "162728.210000", "162729.000000", "162729.787500", "162730.575000", "162731.362500", "162732.152500", "162732.940000", "162733.727500", "162734.515000", "162735.305000", "162736.092500", "162736.880000", "162737.667500", "162738.457500", "162739.245000", "162740.032500", "162740.822500", "162741.610000", "162742.397500", "162743.185000", "162743.975000", "162744.762500", "162745.550000", "162746.337500", "162747.127500", "162747.915000", "162748.702500", "162749.490000", "162750.280000", "162751.067500", "162751.855000", "162752.642500", "162753.432500", "162754.220000", "162755.007500", "162755.795000", "162756.585000", "162757.372500", "162758.160000", "162758.950000", "162759.737500", "162800.525000", "162801.312500", "162802.102500", "162802.890000", "162803.677500", "162804.465000", "162805.255000", "162806.042500", "162806.830000", "162807.617500", "162808.407500", "162809.195000", "162809.982500", "162810.770000", "162811.560000", "162812.347500", "162813.135000", "162813.922500", "162814.712500", "162815.500000", "162816.287500", "162817.077500", "162817.865000", "162818.652500", "162819.440000", "162820.230000", "162821.017500", "162821.805000", "162822.592500", "162823.382500", "162824.170000", "162824.957500", "162825.745000", "162826.535000", "162827.322500", "162828.110000", "162828.897500", "162829.687500", "162830.475000", "162831.262500", "162832.050000", "162832.840000", "162833.627500", "162834.415000", "162835.205000", "162835.992500", "162836.780000", "162837.567500", "162838.357500", "162839.145000", "162839.932500", "162840.720000", "162841.510000", "162842.297500", "162843.085000", "162843.872500", "162844.662500", "162845.450000", "162846.237500", "162847.025000", "162847.815000", "162848.602500", "162849.390000", "162850.180000", "162850.967500", "162851.755000", "162852.542500", "162853.332500", "162854.120000", "162854.907500", "162855.695000", "162856.485000", "162857.272500", "162858.060000", "162858.847500", "162859.637500", "162900.425000", "162901.212500", "162902.000000", "162902.790000", "162903.577500", "162904.365000", "162905.152500", "162905.942500", "162906.730000", "162907.517500", "162908.307500", "162909.095000", "162909.882500", "162910.670000", "162911.460000", "162912.247500", "162913.035000", "162913.822500", "162914.612500", "162915.400000", "162916.187500", "162916.975000", "162917.765000", "162918.552500", "162919.340000", "162920.127500", "162920.917500", "162921.705000", "162922.492500", "162923.280000", "162924.070000", "162924.857500", "162925.645000", "162926.435000", "162927.222500", "162928.010000", "162928.797500", "162929.587500", "162930.375000", "162931.162500", "162931.950000", "162932.740000", "162933.527500", "162934.315000", "162935.102500", "162935.892500", "162936.680000", "162937.467500", "162938.255000", "162939.045000", "162939.832500", "162940.620000", "162941.407500", "162942.197500", "162942.985000", "162943.772500", "162944.562500", "162945.350000", "162946.137500", "162946.925000", "162947.715000", "162948.502500", "162949.290000", "162950.077500", "162950.867500", "162951.655000", "162952.442500", "162953.230000", "162954.020000", "162954.807500", "162955.595000", "162956.382500", "162957.172500", "162957.960000", "162958.747500", "162959.535000", "163000.325000", "163001.112500", "163001.900000", "163002.690000", "163003.477500", "163004.265000", "163005.052500", "163005.842500", "163006.630000", "163007.417500", "163008.205000", "163008.995000", "163009.782500", "163010.570000", "163011.357500", "163012.147500", "163012.935000", "163013.722500", "163014.510000", "163015.300000", "163016.087500", "163016.875000", "163017.662500", "163018.452500", "163019.240000", "163020.027500", "163020.817500", "163021.605000", "163022.392500", "163023.180000", "163023.970000", "163024.757500", "163025.545000", "163026.332500", "163027.122500", "163027.910000", "163028.697500", "163029.485000", "163030.275000", "163031.062500", "163031.850000", "163032.637500", "163033.427500", "163034.215000", "163035.002500", "163035.790000", "163036.580000", "163037.367500", "163038.155000", "163038.945000", "163039.732500", "163040.520000", "163041.307500", "163042.097500", "163042.885000", "163043.672500", "163044.460000", "163045.250000", "163046.037500", "163046.825000", "163047.612500", "163048.402500", "163049.190000", "163049.977500", "163050.765000", "163051.555000", "163052.342500", "163053.130000", "163053.917500", "163054.707500", "163055.495000", "163056.282500", "163057.072500", "163057.860000", "163058.647500", "163059.435000", "163100.225000", "163101.012500", "163101.800000", "163102.587500", "163103.377500", "163104.165000", "163104.952500", "163105.740000", "163106.530000", "163107.317500", "163108.105000", "163108.892500", "163109.682500", "163110.470000", "163111.257500", "163112.045000", "163112.835000", "163113.622500", "163114.410000", "163115.200000", "163115.987500", "163116.775000", "163117.562500", "163118.352500", "163119.140000", "163119.927500", "163120.715000", "163121.505000", "163122.292500", "163123.080000", "163123.867500", "163124.657500", "163125.445000", "163126.232500", "163127.020000", "163127.810000", "163128.597500", "163129.385000", "163130.172500", "163130.962500", "163131.750000", "163132.537500", "163133.327500", "163134.115000", "163134.902500", "163135.690000", "163136.480000", "163137.267500", "163138.055000", "163138.842500", "163139.632500", "163140.420000", "163141.207500", "163141.995000", "163142.785000", "163143.572500", "163144.360000", "163145.147500", "163145.937500", "163146.725000", "163147.512500", "163148.300000", "163149.090000", "163149.877500", "163150.665000", "163151.455000", "163152.242500", "163153.030000", "163153.817500", "163154.607500", "163155.395000", "163156.182500", "163156.970000", "163157.760000", "163158.547500", "163159.335000", "163200.122500", "163200.912500", "163201.700000", "163202.487500", "163203.275000", "163204.065000", "163204.852500", "163205.640000", "163206.430000", "163207.217500", "163208.005000", "163208.792500", "163209.582500", "163210.370000", "163211.157500", "163211.945000", "163212.735000", "163213.522500", "163214.310000", "163215.097500", "163215.887500", "163216.675000", "163217.462500", "163218.250000", "163219.040000", "163219.827500", "163220.615000", "163221.402500", "163222.192500", "163222.980000", "163223.767500", "163224.557500", "163225.345000", "163226.132500", "163226.920000", "163227.710000", "163228.497500", "163229.285000", "163230.072500", "163230.862500", "163231.650000", "163232.437500", "163233.225000", "163234.015000", "163234.802500", "163235.590000", "163236.377500", "163237.167500", "163237.955000", "163238.742500", "163239.530000", "163240.320000", "163241.107500", "163241.895000", "163242.685000", "163243.472500", "163244.260000", "163245.047500", "163245.837500", "163246.625000", "163247.412500", "163248.200000", "163248.990000", "163249.777500", "163250.565000", "163251.352500", "163252.142500", "163252.930000", "163253.717500", "163254.505000", "163255.295000", "163256.082500", "163256.870000", "163257.657500", "163258.447500", "163259.235000", "163300.022500", "163300.812500", "163301.600000", "163302.387500", "163303.175000", "163303.965000", "163304.752500", "163305.540000", "163306.327500", "163307.117500", "163307.905000", "163308.692500", "163309.480000", "163310.270000", "163311.057500", "163311.845000", "163312.632500", "163313.422500", "163314.210000", "163314.997500", "163315.785000", "163316.575000", "163317.362500", "163318.150000", "163318.940000", "163319.727500", "163320.515000", "163321.302500", "163322.092500", "163322.880000", "163323.667500", "163324.455000", "163325.245000", "163326.032500", "163326.820000", "163327.607500", "163328.397500", "163329.185000", "163329.972500", "163330.760000", "163331.550000", "163332.337500", "163333.125000", "163333.912500", "163334.702500", "163335.490000", "163336.277500", "163337.067500", "163337.855000", "163338.642500", "163339.430000", "163340.220000", "163341.007500", "163341.795000", "163342.582500", "163343.372500", "163344.160000", "163344.947500", "163345.735000", "163346.525000", "163347.312500", "163348.100000", "163348.887500", "163349.677500", "163350.465000", "163351.252500", "163352.040000", "163352.830000", "163353.617500", "163354.405000", "163355.195000", "163355.982500", "163356.770000", "163357.557500", "163358.347500", "163359.135000", "163359.922500", "163400.710000", "163401.500000", "163402.287500", "163403.075000", "163403.862500", "163404.652500", "163405.440000", "163406.227500", "163407.015000", "163407.805000", "163408.592500", "163409.380000", "163410.167500", "163410.957500", "163411.745000", "163412.532500", "163413.322500", "163414.110000", "163414.897500", "163415.685000", "163416.475000", "163417.262500", "163418.050000", "163418.837500", "163419.627500", "163420.415000", "163421.202500", "163421.990000", "163422.780000", "163423.567500", "163424.355000", "163425.142500", "163425.932500", "163426.720000", "163427.507500", "163428.295000", "163429.085000", "163429.872500", "163430.660000", "163431.450000", "163432.237500", "163433.025000", "163433.812500", "163434.602500", "163435.390000", "163436.177500", "163436.965000", "163437.755000", "163438.542500", "163439.330000", "163440.117500", "163440.907500", "163441.695000", "163442.482500", "163443.270000", "163444.060000", "163444.847500", "163445.635000", "163446.422500", "163447.212500", "163448.000000", "163448.787500", "163449.577500", "163450.365000", "163451.152500", "163451.940000", "163452.730000", "163453.517500", "163454.305000", "163455.092500", "163455.882500", "163456.670000", "163457.457500", "163458.245000", "163459.035000", "163459.822500"],
      "ContentTime": ["162745.968000", "162745.968000", "162745.968000", "162745.984000", "162745.984000", "162745.984000", "162745.984000", "162745.984000", "162745.984000", "162745.984000", "162746.000000", "162746.000000", "162746.000000", "162746.000000", "162746.000000", "162746.000000", "162746.015000", "162746.015000", "162746.015000", "162746.015000", "162746.015000", "162746.031000", "162746.031000", "162746.031000", "162746.031000", "162746.031000", "162746.031000", "162805.937000", "162805.953000", "162805.953000", "162805.953000", "162805.953000", "162805.953000", "162805.968000", "162805.968000", "162805.968000", "162805.968000", "162805.968000", "162805.984000", "162805.984000", "162805.984000", "162805.984000", "162805.984000", "162805.984000", "162805.984000", "162806.000000", "162806.000000", "162806.000000", "162806.000000", "162806.000000", "162806.015000", "162806.015000", "162806.015000", "162825.937000", "162825.953000", "162825.953000", "162825.953000", "162825.953000", "162825.953000", "162825.953000", "162825.953000", "162825.968000", "162825.968000", "162825.968000", "162825.968000", "162825.968000", "162825.968000", "162825.968000", "162825.984000", "162825.984000", "162825.984000", "162825.984000", "162825.984000", "162825.984000", "162825.984000", "162826.000000", "162826.000000", "162826.000000", "162845.937000", "162845.953000", "162845.953000", "162845.953000", "162845.953000", "162845.953000", "162845.953000", "162845.953000", "162845.968000", "162845.968000", "162845.968000", "162845.968000", "162845.968000", "162845.968000", "162845.968000", "162845.984000", "162845.984000", "162845.984000", "162845.984000", "162845.984000", "162845.984000", "162846.000000", "162846.000000", "162846.000000", "162846.000000", "162846.000000", "162905.937000", "162905.953000", "162905.953000", "162905.953000", "162905.953000", "162905.953000", "162905.953000", "162905.953000", "162905.968000", "162905.968000", "162905.968000", "162905.968000", "162905.968000", "162905.968000", "162905.968000", "162905.984000", "162905.984000", "162905.984000", "162905.984000", "162905.984000", "162905.984000", "162905.984000", "162906.000000", "162906.000000", "162906.000000", "162925.968000", "162925.968000", "162925.968000", "162925.968000", "162925.968000", "162925.968000", "162925.984000", "162925.984000", "162925.984000", "162925.984000", "162925.984000", "162925.984000", "162925.984000", "162926.000000", "162926.000000", "162926.000000", "162926.000000", "162926.000000", "162926.000000", "162926.000000", "162926.015000", "162926.015000", "162926.015000", "162926.015000", "162926.015000", "162926.015000", "162945.937000", "162945.953000", "162945.953000", "162945.953000", "162945.953000", "162945.953000", "162945.953000", "162945.953000", "162945.968000", "162945.968000", "162945.968000", "162945.968000", "162945.968000", "162945.968000", "162945.968000", "162945.984000", "162945.984000", "162945.984000", "162945.984000", "162945.984000", "162945.984000", "162945.984000", "162946.000000", "162946.000000", "162946.000000", "163005.937000", "163005.953000", "163005.953000", "163005.953000", "163005.953000", "163005.953000", "163005.953000", "163005.953000", "163005.968000", "163005.968000", "163005.968000", "163005.968000", "163005.968000", "163005.968000", "163005.968000", "163005.984000", "163005.984000", "163005.984000", "163005.984000", "163005.984000", "163005.984000", "163005.984000", "163006.000000", "163006.000000", "163006.000000", "163006.000000", "163025.937000", "163025.953000", "163025.953000", "163025.953000", "163025.953000", "163025.953000", "163025.953000", "163025.953000", "163025.968000", "163025.968000", "163025.968000", "163025.968000", "163025.968000", "163025.968000", "163025.968000", "163025.984000", "163025.984000", "163025.984000", "163025.984000", "163025.984000", "163025.984000", "163025.984000", "163026.000000", "163026.000000", "163026.000000", "163045.937000", "163045.953000", "163045.953000", "163045.953000", "163045.953000", "163045.953000", "163045.953000", "163045.968000", "163045.968000", "163045.968000", "163045.968000", "163045.968000", "163045.984000", "163045.984000", "163045.984000", "163045.984000", "163045.984000", "163045.984000", "163046.000000", "163046.000000", "163046.000000", "163046.000000", "163046.000000", "163046.015000", "163046.015000", "163046.015000", "163105.937000", "163105.953000", "163105.953000", "163105.953000", "163105.953000", "163105.953000", "163105.953000", "163105.953000", "163105.968000", "163105.968000", "163105.968000", "163105.968000", "163105.968000", "163105.968000", "163105.968000", "163105.984000", "163105.984000", "163105.984000", "163105.984000", "163105.984000", "163105.984000", "163105.984000", "163106.000000", "163106.000000", "163106.000000", "163125.937000", "163125.953000", "163125.953000", "163125.953000", "163125.953000", "163125.953000", "163125.953000", "163125.953000", "163125.968000", "163125.968000", "163125.968000", "163125.968000", "163125.968000", "163125.968000", "163125.968000", "163125.984000", "163125.984000", "163125.984000", "163125.984000", "163125.984000", "163125.984000", "163125.984000", "163126.000000", "163126.000000", "163126.000000", "163126.000000", "163145.937000", "163145.953000", "163145.953000", "163145.953000", "163145.953000", "163145.953000", "163145.953000", "163145.953000", "163145.968000", "163145.968000", "163145.968000", "163145.968000", "163145.968000", "163145.968000", "163145.968000", "163145.984000", "163145.984000", "163145.984000", "163145.984000", "163145.984000", "163145.984000", "163145.984000", "163146.000000", "163146.000000", "163146.000000", "163205.937000", "163205.984000", "163205.984000", "163205.984000", "163205.984000", "163205.984000", "163205.984000", "163205.984000", "163206.000000", "163206.000000", "163206.000000", "163206.000000", "163206.000000", "163206.000000", "163206.000000", "163206.015000", "163206.015000", "163206.015000", "163206.015000", "163206.015000", "163206.015000", "163206.015000", "163206.031000", "163206.031000", "163206.031000", "163225.937000", "163225.953000", "163225.953000", "163225.953000", "163225.953000", "163225.953000", "163225.953000", "163225.953000", "163225.968000", "163225.968000", "163225.968000", "163225.968000", "163225.968000", "163225.968000", "163225.968000", "163225.984000", "163225.984000", "163225.984000", "163225.984000", "163225.984000", "163225.984000", "163225.984000", "163226.000000", "163226.000000", "163226.000000", "163226.000000", "163245.937000", "163245.953000", "163245.953000", "163245.953000", "163245.953000", "163245.953000", "163245.953000", "163245.953000", "163245.968000", "163245.968000", "163245.968000", "163245.968000", "163245.968000", "163245.968000", "163245.968000", "163245.984000", "163245.984000", "163245.984000", "163245.984000", "163245.984000", "163245.984000", "163245.984000", "163246.000000", "163246.000000", "163246.000000", "163305.937000", "163305.953000", "163305.953000", "163305.953000", "163305.953000", "163305.953000", "163305.953000", "163305.953000", "163305.968000", "163305.968000", "163305.968000", "163305.968000", "163305.968000", "163305.968000", "163305.968000", "163305.984000", "163305.984000", "163305.984000", "163305.984000", "163305.984000", "163305.984000", "163305.984000", "163306.000000", "163306.000000", "163306.000000", "163306.000000", "163325.937000", "163325.953000", "163325.953000", "163325.953000", "163325.953000", "163325.953000", "163325.953000", "163325.953000", "163325.968000", "163325.968000", "163325.968000", "163325.968000", "163325.968000", "163325.968000", "163325.968000", "163325.984000", "163325.984000", "163325.984000", "163325.984000", "163325.984000", "163325.984000", "163326.000000", "163326.000000", "163326.000000", "163326.000000", "163345.937000", "163345.953000", "163345.953000", "163345.953000", "163345.953000", "163345.953000", "163345.953000", "163345.953000", "163345.968000", "163345.968000", "163345.968000", "163345.968000", "163345.968000", "163345.968000", "163345.968000", "163345.984000", "163345.984000", "163345.984000", "163345.984000", "163345.984000", "163345.984000", "163345.984000", "163346.000000", "163346.000000", "163346.000000", "163346.000000", "163405.937000", "163405.953000", "163405.953000", "163405.953000", "163405.953000", "163405.953000", "163405.953000", "163405.953000", "163405.968000", "163405.968000", "163405.968000", "163405.968000", "163405.968000", "163405.968000", "163405.968000", "163405.984000", "163405.984000", "163405.984000", "163405.984000", "163405.984000", "163405.984000", "163406.000000", "163406.000000", "163406.000000", "163406.000000", "163425.937000", "163425.953000", "163425.953000", "163425.953000", "163425.953000", "163425.953000", "163425.953000", "163425.953000", "163425.968000", "163425.968000", "163425.968000", "163425.968000", "163425.984000", "163425.984000", "163425.984000", "163425.984000", "163425.984000", "163425.984000", "163425.984000", "163426.000000", "163426.000000", "163426.000000", "163426.000000", "163426.015000", "163426.015000", "163426.015000", "163445.937000", "163445.953000", "163445.953000", "163445.953000", "163445.953000", "163445.953000", "163445.968000", "163445.968000", "163445.968000", "163445.968000", "163445.968000", "163445.968000", "163445.968000", "163445.984000", "163445.984000", "163445.984000", "163445.984000", "163445.984000", "163446.000000", "163446.000000", "163446.000000", "163446.000000", "163446.000000", "163446.000000", "163446.000000", "163500.281000", "163500.281000", "163500.296000", "163500.296000", "163500.296000", "163500.296000", "163500.296000", "163500.296000", "163500.296000", "163500.312000", "163500.312000", "163500.312000", "163500.312000", "163500.312000", "163500.312000", "163500.312000", "163500.328000", "163500.328000", "163500.328000"],
      "DataSetTrailingPadding": [
        "\u0000\u0000\u0000\u0000\u0000\u0000\u0000\u0000\u0000\u0000\u0000\u0000\u0000\u0000\u0000\u0000\u0000\u0000\u0000\u0000\u0000\u0000\u0000\u0000\u0000\u0000\u0000\u0000\u0000\u0000\u0000\u0000\u0000\u0000\u0000\u0000\u0000\u0000\u0000\u0000\u0000\u0000\u0000\u0000\u0000\u0000\u0000\u0000\u0000\u0000\u0000\u0000\u0000\u0000\u0000\u0000\u0000\u0000\u0000\u0000\u0000\u0000\u0000\u0000\u0000\u0000\u0000\u0000\u0000\u0000\u0000\u0000\u0000\u0000\u0000\u0000\u0000\u0000\u0000\u0000\u0000\u0000\u0000\u0000\u0000\u0000\u0000\u0000\u0000\u0000\u0000\u0000\u0000\u0000\u0000\u0000\u0000\u0000\u0000\u0000\u0000\u0000\u0000\u0000\u0000\u0000\u0000\u0000\u0000\u0000\u0000\u0000\u0000\u0000\u0000\u0000\u0000\u0000\u0000\u0000\u0000\u0000\u0000\u0000\u0000\u0000\u0000\u0000\u0000\u0000\u0000\u0000\u0000\u0000\u0000\u0000\u0000\u0000\u0000\u0000\u0000\u0000\u0000\u0000\u0000\u0000\u0000\u0000\u0000\u0000\u0000\u0000\u0000\u0000\u0000\u0000\u0000\u0000\u0000\u0000\u0000\u0000\u0000\u0000",
        "\u0000\u0000\u0000\u0000\u0000\u0000\u0000\u0000\u0000\u0000\u0000\u0000\u0000\u0000\u0000\u0000\u0000\u0000\u0000\u0000\u0000\u0000\u0000\u0000\u0000\u0000\u0000\u0000\u0000\u0000\u0000\u0000\u0000\u0000\u0000\u0000\u0000\u0000\u0000\u0000\u0000\u0000\u0000\u0000\u0000\u0000\u0000\u0000\u0000\u0000\u0000\u0000\u0000\u0000\u0000\u0000\u0000\u0000\u0000\u0000\u0000\u0000\u0000\u0000\u0000\u0000\u0000\u0000\u0000\u0000\u0000\u0000\u0000\u0000\u0000\u0000\u0000\u0000\u0000\u0000\u0000\u0000\u0000\u0000\u0000\u0000\u0000\u0000\u0000\u0000\u0000\u0000\u0000\u0000\u0000\u0000\u0000\u0000\u0000\u0000\u0000\u0000\u0000\u0000\u0000\u0000\u0000\u0000\u0000\u0000\u0000\u0000\u0000\u0000\u0000\u0000\u0000\u0000\u0000\u0000\u0000\u0000\u0000\u0000\u0000\u0000\u0000\u0000\u0000\u0000\u0000\u0000\u0000\u0000\u0000\u0000\u0000\u0000\u0000\u0000\u0000\u0000\u0000\u0000\u0000\u0000\u0000\u0000\u0000\u0000\u0000\u0000\u0000\u0000\u0000\u0000\u0000\u0000\u0000\u0000",
