{
  "AcquisitionMatrixPE": 104,
  "AcquisitionNumber": 1,
  "AcquisitionTime": "16:11:18.690000",
  "BandwidthPerPixelPhaseEncode": 13.935,
  "BaseResolution": 104,
  "CoilString": "C:HEA;HEP",
  "ConversionSoftware": "dcm2niix",
  "ConversionSoftwareVersion": "v1.0.20210317",
  "DerivedVendorReportedEchoSpacing": 0.000690017,
  "DeviceSerialNumber": "35450",
  "DwellTime": 2.5e-06,
  "EchoTime": 0.0348,
  "EffectiveEchoSpacing": 0.000690017,
  "FlipAngle": 55,
  "ImageComments": "Unaliased MB8/PE3 (remote)",
  "ImageOrientationPatientDICOM": [0.999917, -0.00033762, -0.012896, 2.42565e-08, 0.999658, -0.0261695],
  "ImageType": [
    "ORIGINAL",
    "PRIMARY",
    "M",
    "MB",
    "ND",
    "MOSAIC"
],
  "ImagingFrequency": 123.234,
  "InPlanePhaseEncodingDirectionDICOM": "COL",
  "InstitutionAddress": "Univeristy Ave. 197,Newark,North East,US,07102-1814",
  "InstitutionName": "RUBIC",
  "InstitutionalDepartmentName": "Department",
  "MRAcquisitionType": "2D",
  "MagneticFieldStrength": 3,
  "Manufacturer": "Siemens",
  "ManufacturersModelName": "TrioTim",
  "Modality": "MR",
  "MultibandAccelerationFactor": 8,
  "PartialFourier": 0.875,
  "PatientPosition": "HFS",
  "PercentPhaseFOV": 100,
  "PercentSampling": 100,
  "PhaseEncodingDirection": "j-",
  "PhaseEncodingSteps": 91,
  "PhaseResolution": 1,
  "PixelBandwidth": 1923,
  "ProcedureStepDescription": "Cole^Michael",
  "ProtocolName": "cmrr_mbep2d_bold_2mm_MB8_Task_8x",
  "PulseSequenceDetails": "%CustomerSeq%\\cmrr_mbep2d_bold",
  "ReceiveCoilName": "32Ch_Head",
  "ReconMatrixPE": 104,
  "RepetitionTime": 0.785,
  "SAR": 0.112266,
  "ScanOptions": "PFP\\FS",
  "ScanningSequence": "EP",
  "SequenceName": "epfid2d1_104",
  "SequenceVariant": "SK\\SS",
  "SeriesDescription": "cmrr_mbep2d_bold_2mm_MB8_Task_8x",
  "SeriesNumber": 17,
  "ShimSetting": [2064, -432, -7322, 689, -50, -132, 311, 117],
  "SliceThickness": 2,
  "SliceTiming": [0, 0.4375, 0.0875, 0.525, 0.175, 0.6125, 0.2625, 0.7, 0.35, 0, 0.4375, 0.0875, 0.525, 0.175, 0.6125, 0.2625, 0.7, 0.35, 0, 0.4375, 0.0875, 0.525, 0.175, 0.6125, 0.2625, 0.7, 0.35, 0, 0.4375, 0.0875, 0.525, 0.175, 0.6125, 0.2625, 0.7, 0.35, 0, 0.4375, 0.0875, 0.525, 0.175, 0.6125, 0.2625, 0.7, 0.35, 0, 0.4375, 0.0875, 0.525, 0.175, 0.6125, 0.2625, 0.7, 0.35, 0, 0.4375, 0.0875, 0.525, 0.175, 0.6125, 0.2625, 0.7, 0.35, 0, 0.4375, 0.0875, 0.525, 0.175, 0.6125, 0.2625, 0.7, 0.35],
  "SoftwareVersions": "syngo MR B19",
  "SpacingBetweenSlices": 2,
  "StationName": "MRC35450",
  "TaskName": "cpro",
  "TotalReadoutTime": 0.0710717,
  "TxRefAmp": 313.071,
  "dcmmeta_affine": [
    [-1.999833583831787, 4.851301937947028e-08, -0.02580077387392521, 104.28946685791016],
    [0.0006752407061867416, 1.9993150234222412, -0.052334558218717575, -84.8324203491211],
    [-0.025791935622692108, 0.05233891308307648, 1.9991487264633179, -83.8442153930664],
    [0.0, 0.0, 0.0, 1.0]
],
  "dcmmeta_reorient_transform": [
    [0.0, -1.0, 0.0, 103.0],
    [1.0, 0.0, 0.0, 0.0],
    [0.0, 0.0, 1.0, 0.0],
    [0.0, 0.0, 0.0, 1.0]
],
  "dcmmeta_shape": [104, 104, 72, 581],
  "dcmmeta_slice_dim": 2,
  "dcmmeta_version": 0.6,
  "global": {
    "const": {
      "AcquisitionMatrix": [104, 0, 0, 104],
      "AngioFlag": "N",
      "BitsAllocated": 16,
      "BitsStored": 12,
      "Columns": 936,
      "EchoNumbers": 1,
      "EchoTime": 34.8,
      "EchoTrainLength": 1,
      "FlipAngle": 55.0,
      "HighBit": 11,
      "ImageOrientationPatient": [0.99991678654841, -0.0003376203603, -0.0128959680208, 2.4256509e-08, 0.99965752111952, -0.0261694567995],
      "ImagePositionPatient": [-936.22025839229, -952.53118986694, -45.950875649448],
      "ImageType": [
        "ORIGINAL",
        "PRIMARY",
        "M",
        "MB",
        "ND",
        "MOSAIC"
],
      "ImagedNucleus": "1H",
      "ImagingFrequency": 123.234441,
      "InPlanePhaseEncodingDirection": "COL",
      "MRAcquisitionType": "2D",
      "MagneticFieldStrength": 3.0,
      "Manufacturer": "SIEMENS",
      "ManufacturerModelName": "TrioTim",
      "Modality": "MR",
      "NumberOfAverages": 1.0,
      "NumberOfPhaseEncodingSteps": 91,
      "PercentPhaseFieldOfView": 100.0,
      "PercentSampling": 100.0,
      "PerformedProcedureStepStartTime": "144207.140000",
      "PhotometricInterpretation": "MONOCHROME2",
      "PixelBandwidth": 1923.0,
      "PixelRepresentation": 0,
      "PixelSpacing": [2.0, 2.0],
      "ProtocolName": "cmrr_mbep2d_bold_2mm_MB8_Task_8x",
      "RepetitionTime": 785.0,
      "Rows": 936,
      "SAR": 0.11226645213753,
      "SamplesPerPixel": 1,
      "ScanOptions": [
        "PFP",
        "FS"
],
      "ScanningSequence": "EP",
      "SequenceName": "epfid2d1_104",
      "SequenceVariant": [
        "SK",
        "SS"
],
      "SeriesDescription": "cmrr_mbep2d_bold_2mm_MB8_Task_8x",
      "SeriesNumber": 17,
      "SeriesTime": "161143.765000",
      "SliceLocation": -82.934068700058,
      "SliceThickness": 2.0,
      "SmallestImagePixelValue": 0,
      "SoftwareVersions": "syngo MR B19",
      "SpacingBetweenSlices": 2.0000000057387,
      "SpecificCharacterSet": "ISO_IR 100",
      "StudyID": "1",
      "StudyTime": "144207.093000",
      "TransmitCoilName": "Body",
      "VariableFlipAngleFlag": "N",
      "WindowCenterWidthExplanation": "Algo1",
      "dBdt": 0.0},
    "slices": {}
  },
  "time": {
    "samples": {
      "AcquisitionNumber": [1, 2, 3, 4, 5, 6, 7, 8, 9, 10, 11, 12, 13, 14, 15, 16, 17, 18, 19, 20, 21, 22, 23, 24, 25, 26, 27, 28, 29, 30, 31, 32, 33, 34, 35, 36, 37, 38, 39, 40, 41, 42, 43, 44, 45, 46, 47, 48, 49, 50, 51, 52, 53, 54, 55, 56, 57, 58, 59, 60, 61, 62, 63, 64, 65, 66, 67, 68, 69, 70, 71, 72, 73, 74, 75, 76, 77, 78, 79, 80, 81, 82, 83, 84, 85, 86, 87, 88, 89, 90, 91, 92, 93, 94, 95, 96, 97, 98, 99, 100, 101, 102, 103, 104, 105, 106, 107, 108, 109, 110, 111, 112, 113, 114, 115, 116, 117, 118, 119, 120, 121, 122, 123, 124, 125, 126, 127, 128, 129, 130, 131, 132, 133, 134, 135, 136, 137, 138, 139, 140, 141, 142, 143, 144, 145, 146, 147, 148, 149, 150, 151, 152, 153, 154, 155, 156, 157, 158, 159, 160, 161, 162, 163, 164, 165, 166, 167, 168, 169, 170, 171, 172, 173, 174, 175, 176, 177, 178, 179, 180, 181, 182, 183, 184, 185, 186, 187, 188, 189, 190, 191, 192, 193, 194, 195, 196, 197, 198, 199, 200, 201, 202, 203, 204, 205, 206, 207, 208, 209, 210, 211, 212, 213, 214, 215, 216, 217, 218, 219, 220, 221, 222, 223, 224, 225, 226, 227, 228, 229, 230, 231, 232, 233, 234, 235, 236, 237, 238, 239, 240, 241, 242, 243, 244, 245, 246, 247, 248, 249, 250, 251, 252, 253, 254, 255, 256, 257, 258, 259, 260, 261, 262, 263, 264, 265, 266, 267, 268, 269, 270, 271, 272, 273, 274, 275, 276, 277, 278, 279, 280, 281, 282, 283, 284, 285, 286, 287, 288, 289, 290, 291, 292, 293, 294, 295, 296, 297, 298, 299, 300, 301, 302, 303, 304, 305, 306, 307, 308, 309, 310, 311, 312, 313, 314, 315, 316, 317, 318, 319, 320, 321, 322, 323, 324, 325, 326, 327, 328, 329, 330, 331, 332, 333, 334, 335, 336, 337, 338, 339, 340, 341, 342, 343, 344, 345, 346, 347, 348, 349, 350, 351, 352, 353, 354, 355, 356, 357, 358, 359, 360, 361, 362, 363, 364, 365, 366, 367, 368, 369, 370, 371, 372, 373, 374, 375, 376, 377, 378, 379, 380, 381, 382, 383, 384, 385, 386, 387, 388, 389, 390, 391, 392, 393, 394, 395, 396, 397, 398, 399, 400, 401, 402, 403, 404, 405, 406, 407, 408, 409, 410, 411, 412, 413, 414, 415, 416, 417, 418, 419, 420, 421, 422, 423, 424, 425, 426, 427, 428, 429, 430, 431, 432, 433, 434, 435, 436, 437, 438, 439, 440, 441, 442, 443, 444, 445, 446, 447, 448, 449, 450, 451, 452, 453, 454, 455, 456, 457, 458, 459, 460, 461, 462, 463, 464, 465, 466, 467, 468, 469, 470, 471, 472, 473, 474, 475, 476, 477, 478, 479, 480, 481, 482, 483, 484, 485, 486, 487, 488, 489, 490, 491, 492, 493, 494, 495, 496, 497, 498, 499, 500, 501, 502, 503, 504, 505, 506, 507, 508, 509, 510, 511, 512, 513, 514, 515, 516, 517, 518, 519, 520, 521, 522, 523, 524, 525, 526, 527, 528, 529, 530, 531, 532, 533, 534, 535, 536, 537, 538, 539, 540, 541, 542, 543, 544, 545, 546, 547, 548, 549, 550, 551, 552, 553, 554, 555, 556, 557, 558, 559, 560, 561, 562, 563, 564, 565, 566, 567, 568, 569, 570, 571, 572, 573, 574, 575, 576, 577, 578, 579, 580, 581],
      "AcquisitionTime": ["161118.690000", "161119.477500", "161120.267500", "161121.055000", "161121.842500", "161122.630000", "161123.420000", "161124.207500", "161124.995000", "161125.782500", "161126.572500", "161127.360000", "161128.147500", "161128.935000", "161129.725000", "161130.512500", "161131.300000", "161132.090000", "161132.877500", "161133.665000", "161134.452500", "161135.242500", "161136.030000", "161136.817500", "161137.605000", "161138.395000", "161139.182500", "161139.970000", "161140.757500", "161141.547500", "161142.335000", "161143.122500", "161143.910000", "161144.700000", "161145.487500", "161146.275000", "161147.062500", "161147.852500", "161148.640000", "161149.427500", "161150.217500", "161151.005000", "161151.792500", "161152.580000", "161153.370000", "161154.157500", "161154.945000", "161155.732500", "161156.522500", "161157.310000", "161158.097500", "161158.885000", "161159.675000", "161200.462500", "161201.250000", "161202.037500", "161202.827500", "161203.615000", "161204.402500", "161205.190000", "161205.980000", "161206.767500", "161207.555000", "161208.345000", "161209.132500", "161209.920000", "161210.707500", "161211.497500", "161212.285000", "161213.072500", "161213.860000", "161214.650000", "161215.437500", "161216.225000", "161217.012500", "161217.802500", "161218.590000", "161219.377500", "161220.165000", "161220.955000", "161221.742500", "161222.530000", "161223.317500", "161224.107500", "161224.895000", "161225.682500", "161226.472500", "161227.260000", "161228.047500", "161228.835000", "161229.625000", "161230.412500", "161231.200000", "161231.987500", "161232.777500", "161233.565000", "161234.352500", "161235.140000", "161235.930000", "161236.717500", "161237.505000", "161238.292500", "161239.082500", "161239.870000", "161240.657500", "161241.445000", "161242.235000", "161243.022500", "161243.810000", "161244.600000", "161245.387500", "161246.175000", "161246.962500", "161247.752500", "161248.540000", "161249.327500", "161250.115000", "161250.905000", "161251.692500", "161252.480000", "161253.267500", "161254.057500", "161254.845000", "161255.632500", "161256.420000", "161257.210000", "161257.997500", "161258.785000", "161259.572500", "161300.362500", "161301.150000", "161301.937500", "161302.727500", "161303.515000", "161304.302500", "161305.090000", "161305.880000", "161306.667500", "161307.455000", "161308.242500", "161309.032500", "161309.820000", "161310.607500", "161311.395000", "161312.185000", "161312.972500", "161313.760000", "161314.547500", "161315.337500", "161316.125000", "161316.912500", "161317.700000", "161318.490000", "161319.277500", "161320.065000", "161320.855000", "161321.642500", "161322.430000", "161323.217500", "161324.007500", "161324.795000", "161325.582500", "161326.370000", "161327.160000", "161327.947500", "161328.735000", "161329.522500", "161330.312500", "161331.100000", "161331.887500", "161332.675000", "161333.465000", "161334.252500", "161335.040000", "161335.830000", "161336.617500", "161337.405000", "161338.192500", "161338.982500", "161339.770000", "161340.557500", "161341.345000", "161342.135000", "161342.922500", "161343.710000", "161344.497500", "161345.287500", "161346.075000", "161346.862500", "161347.650000", "161348.440000", "161349.227500", "161350.015000", "161350.802500", "161351.592500", "161352.380000", "161353.167500", "161353.957500", "161354.745000", "161355.532500", "161356.320000", "161357.110000", "161357.897500", "161358.685000", "161359.472500", "161400.262500", "161401.050000", "161401.837500", "161402.625000", "161403.415000", "161404.202500", "161404.990000", "161405.777500", "161406.567500", "161407.355000", "161408.142500", "161408.930000", "161409.720000", "161410.507500", "161411.295000", "161412.085000", "161412.872500", "161413.660000", "161414.447500", "161415.237500", "161416.025000", "161416.812500", "161417.600000", "161418.390000", "161419.177500", "161419.965000", "161420.752500", "161421.542500", "161422.330000", "161423.117500", "161423.905000", "161424.695000", "161425.482500", "161426.270000", "161427.057500", "161427.847500", "161428.635000", "161429.422500", "161430.212500", "161431.000000", "161431.787500", "161432.575000", "161433.365000", "161434.152500", "161434.940000", "161435.727500", "161436.517500", "161437.305000", "161438.092500", "161438.880000", "161439.670000", "161440.457500", "161441.245000", "161442.032500", "161442.822500", "161443.610000", "161444.397500", "161445.185000", "161445.975000", "161446.762500", "161447.550000", "161448.340000", "161449.127500", "161449.915000", "161450.702500", "161451.492500", "161452.280000", "161453.067500", "161453.855000", "161454.645000", "161455.432500", "161456.220000", "161457.007500", "161457.797500", "161458.585000", "161459.372500", "161500.160000", "161500.950000", "161501.737500", "161502.525000", "161503.312500", "161504.102500", "161504.890000", "161505.677500", "161506.467500", "161507.255000", "161508.042500", "161508.830000", "161509.620000", "161510.407500", "161511.195000", "161511.982500", "161512.772500", "161513.560000", "161514.347500", "161515.135000", "161515.925000", "161516.712500", "161517.500000", "161518.287500", "161519.077500", "161519.865000", "161520.652500", "161521.440000", "161522.230000", "161523.017500", "161523.805000", "161524.595000", "161525.382500", "161526.170000", "161526.957500", "161527.747500", "161528.535000", "161529.322500", "161530.110000", "161530.900000", "161531.687500", "161532.475000", "161533.262500", "161534.052500", "161534.840000", "161535.627500", "161536.415000", "161537.205000", "161537.992500", "161538.780000", "161539.567500", "161540.357500", "161541.145000", "161541.932500", "161542.722500", "161543.510000", "161544.297500", "161545.085000", "161545.875000", "161546.662500", "161547.450000", "161548.237500", "161549.027500", "161549.815000", "161550.602500", "161551.390000", "161552.180000", "161552.967500", "161553.755000", "161554.542500", "161555.332500", "161556.120000", "161556.907500", "161557.695000", "161558.485000", "161559.272500", "161600.060000", "161600.850000", "161601.637500", "161602.425000", "161603.212500", "161604.002500", "161604.790000", "161605.577500", "161606.365000", "161607.155000", "161607.942500", "161608.730000", "161609.517500", "161610.307500", "161611.095000", "161611.882500", "161612.670000", "161613.460000", "161614.247500", "161615.035000", "161615.822500", "161616.612500", "161617.400000", "161618.187500", "161618.977500", "161619.765000", "161620.552500", "161621.340000", "161622.130000", "161622.917500", "161623.705000", "161624.492500", "161625.282500", "161626.070000", "161626.857500", "161627.645000", "161628.435000", "161629.222500", "161630.010000", "161630.797500", "161631.587500", "161632.375000", "161633.162500", "161633.950000", "161634.740000", "161635.527500", "161636.315000", "161637.105000", "161637.892500", "161638.680000", "161639.467500", "161640.257500", "161641.045000", "161641.832500", "161642.620000", "161643.410000", "161644.197500", "161644.985000", "161645.772500", "161646.562500", "161647.350000", "161648.137500", "161648.925000", "161649.715000", "161650.502500", "161651.290000", "161652.080000", "161652.867500", "161653.655000", "161654.442500", "161655.232500", "161656.020000", "161656.807500", "161657.595000", "161658.385000", "161659.172500", "161659.960000", "161700.747500", "161701.537500", "161702.325000", "161703.112500", "161703.900000", "161704.690000", "161705.477500", "161706.265000", "161707.052500", "161707.842500", "161708.630000", "161709.417500", "161710.207500", "161710.995000", "161711.782500", "161712.570000", "161713.360000", "161714.147500", "161714.935000", "161715.722500", "161716.512500", "161717.300000", "161718.087500", "161718.875000", "161719.665000", "161720.452500", "161721.240000", "161722.027500", "161722.817500", "161723.605000", "161724.392500", "161725.180000", "161725.970000", "161726.757500", "161727.545000", "161728.335000", "161729.122500", "161729.910000", "161730.697500", "161731.487500", "161732.275000", "161733.062500", "161733.850000", "161734.640000", "161735.427500", "161736.215000", "161737.002500", "161737.792500", "161738.580000", "161739.367500", "161740.155000", "161740.945000", "161741.732500", "161742.520000", "161743.307500", "161744.097500", "161744.885000", "161745.672500", "161746.462500", "161747.250000", "161748.037500", "161748.825000", "161749.615000", "161750.402500", "161751.190000", "161751.977500", "161752.767500", "161753.555000", "161754.342500", "161755.130000", "161755.920000", "161756.707500", "161757.495000", "161758.282500", "161759.072500", "161759.860000", "161800.647500", "161801.435000", "161802.225000", "161803.012500", "161803.800000", "161804.590000", "161805.377500", "161806.165000", "161806.952500", "161807.742500", "161808.530000", "161809.317500", "161810.105000", "161810.895000", "161811.682500", "161812.470000", "161813.257500", "161814.047500", "161814.835000", "161815.622500", "161816.410000", "161817.200000", "161817.987500", "161818.775000", "161819.562500", "161820.352500", "161821.140000", "161821.927500", "161822.717500", "161823.505000", "161824.292500", "161825.080000", "161825.870000", "161826.657500", "161827.445000", "161828.232500", "161829.022500", "161829.810000", "161830.597500", "161831.385000", "161832.175000", "161832.962500", "161833.750000", "161834.537500", "161835.327500", "161836.115000", "161836.902500", "161837.690000", "161838.480000", "161839.267500", "161840.055000", "161840.845000", "161841.632500", "161842.420000", "161843.207500", "161843.997500", "161844.785000", "161845.572500", "161846.360000", "161847.150000", "161847.937500", "161848.725000", "161849.512500", "161850.302500", "161851.090000", "161851.877500", "161852.665000", "161853.455000", "161854.242500", "161855.030000", "161855.817500"],
      "ContentTime": ["161143.765000", "161143.765000", "161143.765000", "161143.765000", "161143.781000", "161143.781000", "161143.781000", "161143.781000", "161143.781000", "161143.796000", "161143.796000", "161143.796000", "161143.796000", "161143.796000", "161143.796000", "161143.796000", "161143.812000", "161143.812000", "161143.812000", "161143.812000", "161143.812000", "161143.812000", "161143.812000", "161143.828000", "161143.828000", "161143.828000", "161143.828000", "161143.828000", "161143.828000", "161143.828000", "161203.734000", "161203.750000", "161203.750000", "161203.750000", "161203.750000", "161203.750000", "161203.750000", "161203.750000", "161203.765000", "161203.765000", "161203.765000", "161203.765000", "161203.765000", "161203.765000", "161203.765000", "161203.781000", "161203.781000", "161203.781000", "161203.781000", "161203.781000", "161203.781000", "161203.796000", "161203.796000", "161203.796000", "161203.796000", "161223.734000", "161223.750000", "161223.750000", "161223.750000", "161223.750000", "161223.750000", "161223.750000", "161223.750000", "161223.765000", "161223.765000", "161223.765000", "161223.765000", "161223.765000", "161223.781000", "161223.781000", "161223.781000", "161223.781000", "161223.781000", "161223.781000", "161223.796000", "161223.796000", "161223.796000", "161223.796000", "161223.796000", "161223.796000", "161223.796000", "161243.734000", "161243.750000", "161243.750000", "161243.750000", "161243.750000", "161243.750000", "161243.750000", "161243.750000", "161243.765000", "161243.765000", "161243.765000", "161243.765000", "161243.765000", "161243.765000", "161243.765000", "161243.781000", "161243.781000", "161243.781000", "161243.781000", "161243.781000", "161243.781000", "161243.781000", "161243.796000", "161243.796000", "161243.796000", "161303.734000", "161303.750000", "161303.750000", "161303.750000", "161303.750000", "161303.765000", "161303.765000", "161303.765000", "161303.765000", "161303.765000", "161303.765000", "161303.765000", "161303.781000", "161303.781000", "161303.781000", "161303.781000", "161303.781000", "161303.781000", "161303.796000", "161303.796000", "161303.796000", "161303.796000", "161303.796000", "161303.796000", "161303.796000", "161303.812000", "161323.734000", "161323.750000", "161323.750000", "161323.750000", "161323.750000", "161323.750000", "161323.750000", "161323.750000", "161323.765000", "161323.765000", "161323.765000", "161323.765000", "161323.765000", "161323.765000", "161323.765000", "161323.781000", "161323.781000", "161323.781000", "161323.781000", "161323.796000", "161323.796000", "161323.796000", "161323.796000", "161323.796000", "161323.796000", "161343.734000", "161343.750000", "161343.750000", "161343.750000", "161343.750000", "161343.750000", "161343.765000", "161343.765000", "161343.765000", "161343.765000", "161343.765000", "161343.781000", "161343.781000", "161343.781000", "161343.781000", "161343.781000", "161343.781000", "161343.796000", "161343.796000", "161343.796000", "161343.796000", "161343.796000", "161343.796000", "161343.812000", "161343.812000", "161343.812000", "161403.734000", "161403.750000", "161403.750000", "161403.750000", "161403.750000", "161403.750000", "161403.750000", "161403.750000", "161403.765000", "161403.765000", "161403.765000", "161403.765000", "161403.765000", "161403.765000", "161403.765000", "161403.781000", "161403.781000", "161403.781000", "161403.781000", "161403.781000", "161403.781000", "161403.796000", "161403.796000", "161403.796000", "161403.796000", "161423.734000", "161423.750000", "161423.750000", "161423.750000", "161423.750000", "161423.750000", "161423.750000", "161423.750000", "161423.765000", "161423.765000", "161423.765000", "161423.765000", "161423.765000", "161423.765000", "161423.765000", "161423.781000", "161423.781000", "161423.781000", "161423.781000", "161423.781000", "161423.781000", "161423.796000", "161423.796000", "161423.796000", "161423.796000", "161423.796000", "161443.734000", "161443.750000", "161443.750000", "161443.750000", "161443.750000", "161443.750000", "161443.750000", "161443.750000", "161443.765000", "161443.765000", "161443.765000", "161443.765000", "161443.765000", "161443.765000", "161443.765000", "161443.781000", "161443.781000", "161443.781000", "161443.781000", "161443.781000", "161443.781000", "161443.781000", "161443.796000", "161443.796000", "161443.796000", "161503.734000", "161503.750000", "161503.750000", "161503.750000", "161503.750000", "161503.750000", "161503.750000", "161503.750000", "161503.765000", "161503.765000", "161503.765000", "161503.765000", "161503.765000", "161503.765000", "161503.765000", "161503.781000", "161503.781000", "161503.781000", "161503.781000", "161503.781000", "161503.781000", "161503.781000", "161503.796000", "161503.796000", "161503.796000", "161503.796000", "161523.734000", "161523.750000", "161523.750000", "161523.750000", "161523.750000", "161523.750000", "161523.750000", "161523.750000", "161523.765000", "161523.765000", "161523.765000", "161523.765000", "161523.765000", "161523.765000", "161523.765000", "161523.781000", "161523.781000", "161523.781000", "161523.781000", "161523.781000", "161523.781000", "161523.781000", "161523.796000", "161523.796000", "161523.796000", "161543.734000", "161543.750000", "161543.750000", "161543.750000", "161543.750000", "161543.750000", "161543.750000", "161543.750000", "161543.765000", "161543.765000", "161543.765000", "161543.765000", "161543.765000", "161543.765000", "161543.781000", "161543.781000", "161543.781000", "161543.781000", "161543.781000", "161543.796000", "161543.796000", "161543.796000", "161543.796000", "161543.796000", "161543.796000", "161543.812000", "161603.734000", "161603.750000", "161603.750000", "161603.750000", "161603.750000", "161603.750000", "161603.750000", "161603.750000", "161603.765000", "161603.765000", "161603.765000", "161603.765000", "161603.765000", "161603.765000", "161603.765000", "161603.781000", "161603.781000", "161603.781000", "161603.781000", "161603.781000", "161603.781000", "161603.781000", "161603.796000", "161603.796000", "161603.796000", "161623.734000", "161623.750000", "161623.750000", "161623.750000", "161623.750000", "161623.750000", "161623.750000", "161623.750000", "161623.765000", "161623.765000", "161623.765000", "161623.765000", "161623.765000", "161623.765000", "161623.765000", "161623.781000", "161623.781000", "161623.781000", "161623.781000", "161623.781000", "161623.781000", "161623.781000", "161623.796000", "161623.796000", "161623.796000", "161623.796000", "161643.734000", "161643.750000", "161643.750000", "161643.750000", "161643.750000", "161643.750000", "161643.750000", "161643.750000", "161643.765000", "161643.765000", "161643.765000", "161643.765000", "161643.765000", "161643.765000", "161643.765000", "161643.781000", "161643.781000", "161643.781000", "161643.781000", "161643.781000", "161643.781000", "161643.796000", "161643.796000", "161643.796000", "161643.796000", "161703.734000", "161703.750000", "161703.750000", "161703.750000", "161703.750000", "161703.750000", "161703.750000", "161703.750000", "161703.765000", "161703.765000", "161703.765000", "161703.765000", "161703.765000", "161703.781000", "161703.781000", "161703.781000", "161703.781000", "161703.781000", "161703.781000", "161703.781000", "161703.796000", "161703.796000", "161703.796000", "161703.796000", "161703.796000", "161723.734000", "161723.750000", "161723.750000", "161723.750000", "161723.750000", "161723.750000", "161723.750000", "161723.750000", "161723.765000", "161723.765000", "161723.765000", "161723.765000", "161723.765000", "161723.765000", "161723.765000", "161723.781000", "161723.781000", "161723.781000", "161723.781000", "161723.781000", "161723.781000", "161723.781000", "161723.796000", "161723.796000", "161723.796000", "161723.796000", "161743.734000", "161743.750000", "161743.750000", "161743.765000", "161743.765000", "161743.765000", "161743.765000", "161743.765000", "161743.781000", "161743.781000", "161743.781000", "161743.781000", "161743.781000", "161743.781000", "161743.781000", "161743.796000", "161743.796000", "161743.796000", "161743.796000", "161743.796000", "161743.796000", "161743.812000", "161743.812000", "161743.812000", "161743.812000", "161803.734000", "161803.750000", "161803.750000", "161803.750000", "161803.750000", "161803.750000", "161803.750000", "161803.750000", "161803.765000", "161803.765000", "161803.765000", "161803.765000", "161803.765000", "161803.765000", "161803.765000", "161803.781000", "161803.781000", "161803.781000", "161803.781000", "161803.781000", "161803.781000", "161803.796000", "161803.796000", "161803.796000", "161803.796000", "161803.796000", "161823.734000", "161823.750000", "161823.750000", "161823.750000", "161823.750000", "161823.750000", "161823.750000", "161823.765000", "161823.765000", "161823.765000", "161823.765000", "161823.765000", "161823.765000", "161823.765000", "161823.781000", "161823.781000", "161823.781000", "161823.781000", "161823.781000", "161823.781000", "161823.796000", "161823.796000", "161823.796000", "161823.796000", "161823.796000", "161843.734000", "161843.750000", "161843.750000", "161843.750000", "161843.750000", "161843.750000", "161843.750000", "161843.750000", "161843.765000", "161843.765000", "161843.765000", "161843.765000", "161843.765000", "161843.765000", "161843.765000", "161843.781000", "161843.781000", "161843.781000", "161843.781000", "161843.781000", "161843.781000", "161843.781000", "161843.796000", "161843.796000", "161843.796000", "161843.796000", "161856.093000", "161856.093000", "161856.093000", "161856.093000", "161856.109000", "161856.109000", "161856.109000", "161856.109000", "161856.109000", "161856.109000", "161856.109000", "161856.125000", "161856.125000", "161856.125000", "161856.125000", "161856.125000"],
      "DataSetTrailingPadding": [
        "\u0000\u0000\u0000\u0000\u0000\u0000\u0000\u0000\u0000\u0000\u0000\u0000\u0000\u0000\u0000\u0000\u0000\u0000\u0000\u0000\u0000\u0000\u0000\u0000\u0000\u0000\u0000\u0000\u0000\u0000\u0000\u0000\u0000\u0000\u0000\u0000\u0000\u0000\u0000\u0000\u0000\u0000\u0000\u0000\u0000\u0000\u0000\u0000\u0000\u0000\u0000\u0000\u0000\u0000\u0000\u0000\u0000\u0000\u0000\u0000\u0000\u0000\u0000\u0000\u0000\u0000\u0000\u0000\u0000\u0000\u0000\u0000\u0000\u0000\u0000\u0000\u0000\u0000\u0000\u0000\u0000\u0000\u0000\u0000\u0000\u0000\u0000\u0000\u0000\u0000\u0000\u0000\u0000\u0000\u0000\u0000\u0000\u0000\u0000\u0000\u0000\u0000\u0000\u0000\u0000\u0000\u0000\u0000\u0000\u0000\u0000\u0000\u0000\u0000\u0000\u0000\u0000\u0000\u0000\u0000\u0000\u0000\u0000\u0000\u0000\u0000\u0000\u0000\u0000\u0000\u0000\u0000\u0000\u0000\u0000\u0000\u0000\u0000\u0000\u0000\u0000\u0000\u0000\u0000\u0000\u0000\u0000\u0000\u0000\u0000\u0000\u0000\u0000\u0000\u0000\u0000\u0000\u0000\u0000\u0000\u0000\u0000",
        "\u0000\u0000\u0000\u0000\u0000\u0000\u0000\u0000\u0000\u0000\u0000\u0000\u0000\u0000\u0000\u0000\u0000\u0000\u0000\u0000\u0000\u0000\u0000\u0000\u0000\u0000\u0000\u0000\u0000\u0000\u0000\u0000\u0000\u0000\u0000\u0000\u0000\u0000\u0000\u0000\u0000\u0000\u0000\u0000\u0000\u0000\u0000\u0000\u0000\u0000\u0000\u0000\u0000\u0000\u0000\u0000\u0000\u0000\u0000\u0000\u0000\u0000\u0000\u0000\u0000\u0000\u0000\u0000\u0000\u0000\u0000\u0000\u0000\u0000\u0000\u0000\u0000\u0000\u0000\u0000\u0000\u0000\u0000\u0000\u0000\u0000\u0000\u0000\u0000\u0000\u0000\u0000\u0000\u0000\u0000\u0000\u0000\u0000\u0000\u0000\u0000\u0000\u0000\u0000\u0000\u0000\u0000\u0000\u0000\u0000\u0000\u0000\u0000\u0000\u0000\u0000\u0000\u0000\u0000\u0000\u0000\u0000\u0000\u0000\u0000\u0000\u0000\u0000\u0000\u0000\u0000\u0000\u0000\u0000\u0000\u0000\u0000\u0000\u0000\u0000\u0000\u0000\u0000\u0000\u0000\u0000\u0000\u0000\u0000\u0000\u0000\u0000\u0000\u0000\u0000\u0000\u0000\u0000\u0000\u0000\u0000\u0000",
