{
  "AcquisitionMatrixPE": 104,
  "AcquisitionNumber": 1,
  "AcquisitionTime": "16:51:49.690000",
  "BandwidthPerPixelPhaseEncode": 13.935,
  "BaseResolution": 104,
  "CoilString": "C:HEA;HEP",
  "ConversionSoftware": "dcm2niix",
  "ConversionSoftwareVersion": "v1.0.20210317",
  "DerivedVendorReportedEchoSpacing": 0.000690017,
  "DeviceSerialNumber": "35450",
  "DwellTime": 2.5e-06,
  "EchoTime": 0.0348,
  "EffectiveEchoSpacing": 0.000690017,
  "FlipAngle": 55,
  "ImageComments": "Unaliased MB8/PE3 (remote)",
  "ImageOrientationPatientDICOM": [0.999917, -0.00033762, -0.012896, 2.42565e-08, 0.999658, -0.0261695],
  "ImageType": [
    "ORIGINAL",
    "PRIMARY",
    "M",
    "MB",
    "ND",
    "MOSAIC"
],
  "ImagingFrequency": 123.234,
  "InPlanePhaseEncodingDirectionDICOM": "COL",
  "InstitutionAddress": "Univeristy Ave. 197,Newark,North East,US,07102-1814",
  "InstitutionName": "RUBIC",
  "InstitutionalDepartmentName": "Department",
  "MRAcquisitionType": "2D",
  "MagneticFieldStrength": 3,
  "Manufacturer": "Siemens",
  "ManufacturersModelName": "TrioTim",
  "Modality": "MR",
  "MultibandAccelerationFactor": 8,
  "PartialFourier": 0.875,
  "PatientPosition": "HFS",
  "PercentPhaseFOV": 100,
  "PercentSampling": 100,
  "PhaseEncodingDirection": "j-",
  "PhaseEncodingSteps": 91,
  "PhaseResolution": 1,
  "PixelBandwidth": 1923,
  "ProcedureStepDescription": "Cole^Michael",
  "ProtocolName": "cmrr_mbep2d_bold_2mm_MB8_Task_8x",
  "PulseSequenceDetails": "%CustomerSeq%\\cmrr_mbep2d_bold",
  "ReceiveCoilName": "32Ch_Head",
  "ReconMatrixPE": 104,
  "RepetitionTime": 0.785,
  "SAR": 0.112266,
  "ScanOptions": "PFP\\FS",
  "ScanningSequence": "EP",
  "SequenceName": "epfid2d1_104",
  "SequenceVariant": "SK\\SS",
  "SeriesDescription": "cmrr_mbep2d_bold_2mm_MB8_Task_8x",
  "SeriesNumber": 27,
  "ShimSetting": [2064, -432, -7322, 689, -50, -132, 311, 117],
  "SliceThickness": 2,
  "SliceTiming": [0, 0.4375, 0.0875, 0.525, 0.175, 0.6125, 0.2625, 0.7, 0.35, 0, 0.4375, 0.0875, 0.525, 0.175, 0.6125, 0.2625, 0.7, 0.35, 0, 0.4375, 0.0875, 0.525, 0.175, 0.6125, 0.2625, 0.7, 0.35, 0, 0.4375, 0.0875, 0.525, 0.175, 0.6125, 0.2625, 0.7, 0.35, 0, 0.4375, 0.0875, 0.525, 0.175, 0.6125, 0.2625, 0.7, 0.35, 0, 0.4375, 0.0875, 0.525, 0.175, 0.6125, 0.2625, 0.7, 0.35, 0, 0.4375, 0.0875, 0.525, 0.175, 0.6125, 0.2625, 0.7, 0.35, 0, 0.4375, 0.0875, 0.525, 0.175, 0.6125, 0.2625, 0.7, 0.35],
  "SoftwareVersions": "syngo MR B19",
  "SpacingBetweenSlices": 2,
  "StationName": "MRC35450",
  "TaskName": "cpro",
  "TotalReadoutTime": 0.0710717,
  "TxRefAmp": 313.071,
  "dcmmeta_affine": [
    [-1.999833583831787, 4.851301937947028e-08, -0.02580077387392521, 104.28946685791016],
    [0.0006752407061867416, 1.9993150234222412, -0.052334558218717575, -84.8324203491211],
    [-0.025791935622692108, 0.05233891308307648, 1.9991487264633179, -83.8442153930664],
    [0.0, 0.0, 0.0, 1.0]
],
  "dcmmeta_reorient_transform": [
    [0.0, -1.0, 0.0, 103.0],
    [1.0, 0.0, 0.0, 0.0],
    [0.0, 0.0, 1.0, 0.0],
    [0.0, 0.0, 0.0, 1.0]
],
  "dcmmeta_shape": [104, 104, 72, 581],
  "dcmmeta_slice_dim": 2,
  "dcmmeta_version": 0.6,
  "global": {
    "const": {
      "AcquisitionMatrix": [104, 0, 0, 104],
      "AngioFlag": "N",
      "BitsAllocated": 16,
      "BitsStored": 12,
      "Columns": 936,
      "EchoNumbers": 1,
      "EchoTime": 34.8,
      "EchoTrainLength": 1,
      "FlipAngle": 55.0,
      "HighBit": 11,
      "ImageOrientationPatient": [0.99991678654841, -0.0003376203603, -0.0128959680208, 2.4256509e-08, 0.99965752111952, -0.0261694567995],
      "ImagePositionPatient": [-936.22025839229, -952.53118986694, -45.950875649448],
      "ImageType": [
        "ORIGINAL",
        "PRIMARY",
        "M",
        "MB",
        "ND",
        "MOSAIC"
],
      "ImagedNucleus": "1H",
      "ImagingFrequency": 123.234441,
      "InPlanePhaseEncodingDirection": "COL",
      "MRAcquisitionType": "2D",
      "MagneticFieldStrength": 3.0,
      "Manufacturer": "SIEMENS",
      "ManufacturerModelName": "TrioTim",
      "Modality": "MR",
      "NumberOfAverages": 1.0,
      "NumberOfPhaseEncodingSteps": 91,
      "PercentPhaseFieldOfView": 100.0,
      "PercentSampling": 100.0,
      "PerformedProcedureStepStartTime": "144207.140000",
      "PhotometricInterpretation": "MONOCHROME2",
      "PixelBandwidth": 1923.0,
      "PixelRepresentation": 0,
      "PixelSpacing": [2.0, 2.0],
      "ProtocolName": "cmrr_mbep2d_bold_2mm_MB8_Task_8x",
      "RepetitionTime": 785.0,
      "Rows": 936,
      "SAR": 0.11226645213753,
      "SamplesPerPixel": 1,
      "ScanOptions": [
        "PFP",
        "FS"
],
      "ScanningSequence": "EP",
      "SequenceName": "epfid2d1_104",
      "SequenceVariant": [
        "SK",
        "SS"
],
      "SeriesDescription": "cmrr_mbep2d_bold_2mm_MB8_Task_8x",
      "SeriesNumber": 27,
      "SeriesTime": "165225.968000",
      "SliceLocation": -82.934068700058,
      "SliceThickness": 2.0,
      "SmallestImagePixelValue": 0,
      "SoftwareVersions": "syngo MR B19",
      "SpacingBetweenSlices": 2.0000000057387,
      "SpecificCharacterSet": "ISO_IR 100",
      "StudyID": "1",
      "StudyTime": "144207.093000",
      "TransmitCoilName": "Body",
      "VariableFlipAngleFlag": "N",
      "WindowCenterWidthExplanation": "Algo1",
      "dBdt": 0.0},
    "slices": {}
  },
  "time": {
    "samples": {
      "AcquisitionNumber": [1, 2, 3, 4, 5, 6, 7, 8, 9, 10, 11, 12, 13, 14, 15, 16, 17, 18, 19, 20, 21, 22, 23, 24, 25, 26, 27, 28, 29, 30, 31, 32, 33, 34, 35, 36, 37, 38, 39, 40, 41, 42, 43, 44, 45, 46, 47, 48, 49, 50, 51, 52, 53, 54, 55, 56, 57, 58, 59, 60, 61, 62, 63, 64, 65, 66, 67, 68, 69, 70, 71, 72, 73, 74, 75, 76, 77, 78, 79, 80, 81, 82, 83, 84, 85, 86, 87, 88, 89, 90, 91, 92, 93, 94, 95, 96, 97, 98, 99, 100, 101, 102, 103, 104, 105, 106, 107, 108, 109, 110, 111, 112, 113, 114, 115, 116, 117, 118, 119, 120, 121, 122, 123, 124, 125, 126, 127, 128, 129, 130, 131, 132, 133, 134, 135, 136, 137, 138, 139, 140, 141, 142, 143, 144, 145, 146, 147, 148, 149, 150, 151, 152, 153, 154, 155, 156, 157, 158, 159, 160, 161, 162, 163, 164, 165, 166, 167, 168, 169, 170, 171, 172, 173, 174, 175, 176, 177, 178, 179, 180, 181, 182, 183, 184, 185, 186, 187, 188, 189, 190, 191, 192, 193, 194, 195, 196, 197, 198, 199, 200, 201, 202, 203, 204, 205, 206, 207, 208, 209, 210, 211, 212, 213, 214, 215, 216, 217, 218, 219, 220, 221, 222, 223, 224, 225, 226, 227, 228, 229, 230, 231, 232, 233, 234, 235, 236, 237, 238, 239, 240, 241, 242, 243, 244, 245, 246, 247, 248, 249, 250, 251, 252, 253, 254, 255, 256, 257, 258, 259, 260, 261, 262, 263, 264, 265, 266, 267, 268, 269, 270, 271, 272, 273, 274, 275, 276, 277, 278, 279, 280, 281, 282, 283, 284, 285, 286, 287, 288, 289, 290, 291, 292, 293, 294, 295, 296, 297, 298, 299, 300, 301, 302, 303, 304, 305, 306, 307, 308, 309, 310, 311, 312, 313, 314, 315, 316, 317, 318, 319, 320, 321, 322, 323, 324, 325, 326, 327, 328, 329, 330, 331, 332, 333, 334, 335, 336, 337, 338, 339, 340, 341, 342, 343, 344, 345, 346, 347, 348, 349, 350, 351, 352, 353, 354, 355, 356, 357, 358, 359, 360, 361, 362, 363, 364, 365, 366, 367, 368, 369, 370, 371, 372, 373, 374, 375, 376, 377, 378, 379, 380, 381, 382, 383, 384, 385, 386, 387, 388, 389, 390, 391, 392, 393, 394, 395, 396, 397, 398, 399, 400, 401, 402, 403, 404, 405, 406, 407, 408, 409, 410, 411, 412, 413, 414, 415, 416, 417, 418, 419, 420, 421, 422, 423, 424, 425, 426, 427, 428, 429, 430, 431, 432, 433, 434, 435, 436, 437, 438, 439, 440, 441, 442, 443, 444, 445, 446, 447, 448, 449, 450, 451, 452, 453, 454, 455, 456, 457, 458, 459, 460, 461, 462, 463, 464, 465, 466, 467, 468, 469, 470, 471, 472, 473, 474, 475, 476, 477, 478, 479, 480, 481, 482, 483, 484, 485, 486, 487, 488, 489, 490, 491, 492, 493, 494, 495, 496, 497, 498, 499, 500, 501, 502, 503, 504, 505, 506, 507, 508, 509, 510, 511, 512, 513, 514, 515, 516, 517, 518, 519, 520, 521, 522, 523, 524, 525, 526, 527, 528, 529, 530, 531, 532, 533, 534, 535, 536, 537, 538, 539, 540, 541, 542, 543, 544, 545, 546, 547, 548, 549, 550, 551, 552, 553, 554, 555, 556, 557, 558, 559, 560, 561, 562, 563, 564, 565, 566, 567, 568, 569, 570, 571, 572, 573, 574, 575, 576, 577, 578, 579, 580, 581],
      "AcquisitionTime": ["165149.690000", "165150.477500", "165151.265000", "165152.055000", "165152.842500", "165153.630000", "165154.417500", "165155.207500", "165155.995000", "165156.782500", "165157.572500", "165158.360000", "165159.147500", "165159.935000", "165200.725000", "165201.512500", "165202.300000", "165203.087500", "165203.877500", "165204.665000", "165205.452500", "165206.240000", "165207.030000", "165207.817500", "165208.605000", "165209.392500", "165210.182500", "165210.970000", "165211.757500", "165212.545000", "165213.335000", "165214.122500", "165214.910000", "165215.700000", "165216.487500", "165217.275000", "165218.062500", "165218.852500", "165219.640000", "165220.427500", "165221.215000", "165222.005000", "165222.792500", "165223.580000", "165224.367500", "165225.157500", "165225.945000", "165226.732500", "165227.520000", "165228.310000", "165229.097500", "165229.885000", "165230.672500", "165231.462500", "165232.250000", "165233.037500", "165233.827500", "165234.615000", "165235.402500", "165236.190000", "165236.980000", "165237.767500", "165238.555000", "165239.342500", "165240.132500", "165240.920000", "165241.707500", "165242.495000", "165243.285000", "165244.072500", "165244.860000", "165245.647500", "165246.437500", "165247.225000", "165248.012500", "165248.800000", "165249.590000", "165250.377500", "165251.165000", "165251.955000", "165252.742500", "165253.530000", "165254.317500", "165255.107500", "165255.895000", "165256.682500", "165257.470000", "165258.260000", "165259.047500", "165259.835000", "165300.622500", "165301.412500", "165302.200000", "165302.987500", "165303.775000", "165304.565000", "165305.352500", "165306.140000", "165306.927500", "165307.717500", "165308.505000", "165309.292500", "165310.082500", "165310.870000", "165311.657500", "165312.445000", "165313.235000", "165314.022500", "165314.810000", "165315.597500", "165316.387500", "165317.175000", "165317.962500", "165318.750000", "165319.540000", "165320.327500", "165321.115000", "165321.902500", "165322.692500", "165323.480000", "165324.267500", "165325.055000", "165325.845000", "165326.632500", "165327.420000", "165328.210000", "165328.997500", "165329.785000", "165330.572500", "165331.362500", "165332.150000", "165332.937500", "165333.725000", "165334.515000", "165335.302500", "165336.090000", "165336.877500", "165337.667500", "165338.455000", "165339.242500", "165340.030000", "165340.820000", "165341.607500", "165342.395000", "165343.182500", "165343.972500", "165344.760000", "165345.547500", "165346.337500", "165347.125000", "165347.912500", "165348.700000", "165349.490000", "165350.277500", "165351.065000", "165351.852500", "165352.642500", "165353.430000", "165354.217500", "165355.005000", "165355.795000", "165356.582500", "165357.370000", "165358.157500", "165358.947500", "165359.735000", "165400.522500", "165401.310000", "165402.100000", "165402.887500", "165403.675000", "165404.465000", "165405.252500", "165406.040000", "165406.827500", "165407.617500", "165408.405000", "165409.192500", "165409.980000", "165410.770000", "165411.557500", "165412.345000", "165413.132500", "165413.922500", "165414.710000", "165415.497500", "165416.285000", "165417.075000", "165417.862500", "165418.650000", "165419.437500", "165420.227500", "165421.015000", "165421.802500", "165422.592500", "165423.380000", "165424.167500", "165424.955000", "165425.745000", "165426.532500", "165427.320000", "165428.107500", "165428.897500", "165429.685000", "165430.472500", "165431.260000", "165432.050000", "165432.837500", "165433.625000", "165434.412500", "165435.202500", "165435.990000", "165436.777500", "165437.565000", "165438.355000", "165439.142500", "165439.930000", "165440.720000", "165441.507500", "165442.295000", "165443.082500", "165443.872500", "165444.660000", "165445.447500", "165446.235000", "165447.025000", "165447.812500", "165448.600000", "165449.387500", "165450.177500", "165450.965000", "165451.752500", "165452.540000", "165453.330000", "165454.117500", "165454.905000", "165455.695000", "165456.482500", "165457.270000", "165458.057500", "165458.847500", "165459.635000", "165500.422500", "165501.210000", "165502.000000", "165502.787500", "165503.575000", "165504.362500", "165505.152500", "165505.940000", "165506.727500", "165507.515000", "165508.305000", "165509.092500", "165509.880000", "165510.667500", "165511.457500", "165512.245000", "165513.032500", "165513.822500", "165514.610000", "165515.397500", "165516.185000", "165516.975000", "165517.762500", "165518.550000", "165519.337500", "165520.127500", "165520.915000", "165521.702500", "165522.490000", "165523.280000", "165524.067500", "165524.855000", "165525.642500", "165526.432500", "165527.220000", "165528.007500", "165528.795000", "165529.585000", "165530.372500", "165531.160000", "165531.950000", "165532.737500", "165533.525000", "165534.312500", "165535.102500", "165535.890000", "165536.677500", "165537.465000", "165538.255000", "165539.042500", "165539.830000", "165540.617500", "165541.407500", "165542.195000", "165542.982500", "165543.770000", "165544.560000", "165545.347500", "165546.135000", "165546.922500", "165547.712500", "165548.500000", "165549.287500", "165550.077500", "165550.865000", "165551.652500", "165552.440000", "165553.230000", "165554.017500", "165554.805000", "165555.592500", "165556.382500", "165557.170000", "165557.957500", "165558.745000", "165559.535000", "165600.322500", "165601.110000", "165601.897500", "165602.687500", "165603.475000", "165604.262500", "165605.050000", "165605.840000", "165606.627500", "165607.415000", "165608.205000", "165608.992500", "165609.780000", "165610.567500", "165611.357500", "165612.145000", "165612.932500", "165613.720000", "165614.510000", "165615.297500", "165616.085000", "165616.872500", "165617.662500", "165618.450000", "165619.237500", "165620.025000", "165620.815000", "165621.602500", "165622.390000", "165623.177500", "165623.967500", "165624.755000", "165625.542500", "165626.332500", "165627.120000", "165627.907500", "165628.695000", "165629.485000", "165630.272500", "165631.060000", "165631.847500", "165632.637500", "165633.425000", "165634.212500", "165635.000000", "165635.790000", "165636.577500", "165637.365000", "165638.152500", "165638.942500", "165639.730000", "165640.517500", "165641.305000", "165642.095000", "165642.882500", "165643.670000", "165644.460000", "165645.247500", "165646.035000", "165646.822500", "165647.612500", "165648.400000", "165649.187500", "165649.975000", "165650.765000", "165651.552500", "165652.340000", "165653.127500", "165653.917500", "165654.705000", "165655.492500", "165656.280000", "165657.070000", "165657.857500", "165658.645000", "165659.432500", "165700.222500", "165701.010000", "165701.797500", "165702.587500", "165703.375000", "165704.162500", "165704.950000", "165705.740000", "165706.527500", "165707.315000", "165708.102500", "165708.892500", "165709.680000", "165710.467500", "165711.255000", "165712.045000", "165712.832500", "165713.620000", "165714.407500", "165715.197500", "165715.985000", "165716.772500", "165717.560000", "165718.350000", "165719.137500", "165719.925000", "165720.715000", "165721.502500", "165722.290000", "165723.077500", "165723.867500", "165724.655000", "165725.442500", "165726.230000", "165727.020000", "165727.807500", "165728.595000", "165729.382500", "165730.172500", "165730.960000", "165731.747500", "165732.535000", "165733.325000", "165734.112500", "165734.900000", "165735.687500", "165736.477500", "165737.265000", "165738.052500", "165738.842500", "165739.630000", "165740.417500", "165741.205000", "165741.995000", "165742.782500", "165743.570000", "165744.357500", "165745.147500", "165745.935000", "165746.722500", "165747.510000", "165748.300000", "165749.087500", "165749.875000", "165750.662500", "165751.452500", "165752.240000", "165753.027500", "165753.815000", "165754.605000", "165755.392500", "165756.180000", "165756.970000", "165757.757500", "165758.545000", "165759.332500", "165800.122500", "165800.910000", "165801.697500", "165802.485000", "165803.275000", "165804.062500", "165804.850000", "165805.637500", "165806.427500", "165807.215000", "165808.002500", "165808.790000", "165809.580000", "165810.367500", "165811.155000", "165811.945000", "165812.732500", "165813.520000", "165814.307500", "165815.097500", "165815.885000", "165816.672500", "165817.460000", "165818.250000", "165819.037500", "165819.825000", "165820.612500", "165821.402500", "165822.190000", "165822.977500", "165823.765000", "165824.555000", "165825.342500", "165826.130000", "165826.917500", "165827.707500", "165828.495000", "165829.282500", "165830.072500", "165830.860000", "165831.647500", "165832.435000", "165833.225000", "165834.012500", "165834.800000", "165835.587500", "165836.377500", "165837.165000", "165837.952500", "165838.740000", "165839.530000", "165840.317500", "165841.105000", "165841.892500", "165842.682500", "165843.470000", "165844.257500", "165845.045000", "165845.835000", "165846.622500", "165847.410000", "165848.200000", "165848.987500", "165849.775000", "165850.562500", "165851.352500", "165852.140000", "165852.927500", "165853.715000", "165854.505000", "165855.292500", "165856.080000", "165856.867500", "165857.657500", "165858.445000", "165859.232500", "165900.020000", "165900.810000", "165901.597500", "165902.385000", "165903.172500", "165903.962500", "165904.750000", "165905.537500", "165906.327500", "165907.115000", "165907.902500", "165908.690000", "165909.480000", "165910.267500", "165911.055000", "165911.842500", "165912.632500", "165913.420000", "165914.207500", "165914.995000", "165915.785000", "165916.572500", "165917.360000", "165918.147500", "165918.937500", "165919.725000", "165920.512500", "165921.300000", "165922.090000", "165922.877500", "165923.665000", "165924.455000", "165925.242500", "165926.030000", "165926.817500"],
      "ContentTime": ["165225.968000", "165225.968000", "165225.968000", "165225.968000", "165225.984000", "165225.984000", "165225.984000", "165225.984000", "165225.984000", "165226.000000", "165226.000000", "165226.000000", "165226.015000", "165226.015000", "165226.015000", "165226.015000", "165226.031000", "165226.031000", "165226.031000", "165226.031000", "165226.046000", "165226.046000", "165226.046000", "165226.046000", "165226.046000", "165226.062000", "165226.062000", "165226.062000", "165226.062000", "165226.062000", "165226.062000", "165226.078000", "165226.078000", "165226.078000", "165226.078000", "165226.078000", "165226.078000", "165226.078000", "165226.093000", "165226.093000", "165226.093000", "165226.093000", "165226.093000", "165226.093000", "165245.937000", "165245.953000", "165245.953000", "165245.953000", "165245.953000", "165245.953000", "165245.953000", "165245.953000", "165245.968000", "165245.968000", "165245.968000", "165245.968000", "165245.968000", "165245.968000", "165245.968000", "165245.984000", "165245.984000", "165245.984000", "165245.984000", "165245.984000", "165246.000000", "165246.000000", "165246.000000", "165246.000000", "165246.000000", "165305.937000", "165305.953000", "165305.953000", "165305.953000", "165305.953000", "165305.953000", "165305.968000", "165305.968000", "165305.968000", "165305.968000", "165305.968000", "165305.984000", "165305.984000", "165305.984000", "165305.984000", "165305.984000", "165305.984000", "165305.984000", "165306.000000", "165306.000000", "165306.000000", "165306.015000", "165306.015000", "165306.015000", "165306.015000", "165325.937000", "165325.953000", "165325.953000", "165325.953000", "165325.953000", "165325.953000", "165325.953000", "165325.953000", "165325.968000", "165325.968000", "165325.968000", "165325.968000", "165325.968000", "165325.968000", "165325.968000", "165325.984000", "165325.984000", "165325.984000", "165325.984000", "165325.984000", "165326.000000", "165326.000000", "165326.000000", "165326.000000", "165326.000000", "165326.015000", "165345.937000", "165345.953000", "165345.953000", "165345.953000", "165345.953000", "165345.953000", "165345.953000", "165345.953000", "165345.968000", "165345.968000", "165345.968000", "165345.968000", "165345.968000", "165345.968000", "165345.968000", "165345.968000", "165345.984000", "165345.984000", "165345.984000", "165346.015000", "165346.031000", "165346.031000", "165346.031000", "165346.031000", "165346.031000", "165346.031000", "165405.937000", "165405.953000", "165405.953000", "165405.953000", "165405.953000", "165405.953000", "165405.953000", "165405.953000", "165405.968000", "165405.968000", "165405.968000", "165405.968000", "165405.968000", "165405.984000", "165405.984000", "165405.984000", "165405.984000", "165405.984000", "165405.984000", "165405.984000", "165406.000000", "165406.000000", "165406.000000", "165406.000000", "165406.000000", "165425.937000", "165425.953000", "165425.953000", "165425.953000", "165425.953000", "165425.953000", "165425.953000", "165425.953000", "165425.968000", "165425.968000", "165425.968000", "165425.968000", "165425.968000", "165425.968000", "165425.968000", "165425.968000", "165425.984000", "165425.984000", "165425.984000", "165425.984000", "165425.984000", "165425.984000", "165426.000000", "165426.000000", "165426.000000", "165426.000000", "165445.937000", "165445.953000", "165445.953000", "165445.953000", "165445.953000", "165445.953000", "165445.953000", "165445.953000", "165445.968000", "165445.968000", "165445.968000", "165445.968000", "165445.968000", "165445.968000", "165445.968000", "165445.984000", "165445.984000", "165445.984000", "165445.984000", "165445.984000", "165445.984000", "165445.984000", "165446.000000", "165446.000000", "165446.000000", "165505.937000", "165505.953000", "165505.953000", "165505.953000", "165505.953000", "165505.953000", "165505.968000", "165505.968000", "165505.968000", "165505.968000", "165505.968000", "165505.968000", "165505.968000", "165505.984000", "165505.984000", "165505.984000", "165505.984000", "165505.984000", "165505.984000", "165505.984000", "165506.000000", "165506.000000", "165506.000000", "165506.000000", "165506.000000", "165525.937000", "165525.953000", "165525.953000", "165525.953000", "165525.953000", "165525.953000", "165525.953000", "165525.953000", "165525.968000", "165525.968000", "165525.968000", "165525.968000", "165525.968000", "165525.968000", "165525.968000", "165525.984000", "165525.984000", "165525.984000", "165525.984000", "165525.984000", "165525.984000", "165525.984000", "165526.000000", "165526.000000", "165526.000000", "165526.000000", "165545.937000", "165545.953000", "165545.953000", "165545.953000", "165545.953000", "165545.953000", "165545.968000", "165545.968000", "165545.968000", "165545.968000", "165545.968000", "165545.968000", "165545.984000", "165545.984000", "165545.984000", "165545.984000", "165545.984000", "165545.984000", "165546.000000", "165546.000000", "165546.000000", "165546.000000", "165546.000000", "165546.000000", "165546.015000", "165605.937000", "165605.953000", "165605.953000", "165605.953000", "165605.953000", "165605.968000", "165605.968000", "165605.968000", "165605.968000", "165605.968000", "165605.968000", "165605.968000", "165605.984000", "165605.984000", "165605.984000", "165605.984000", "165605.984000", "165605.984000", "165605.984000", "165606.000000", "165606.000000", "165606.000000", "165606.000000", "165606.000000", "165606.015000", "165606.015000", "165625.937000", "165625.953000", "165625.953000", "165625.953000", "165625.953000", "165625.953000", "165625.953000", "165625.953000", "165625.968000", "165625.968000", "165625.968000", "165625.968000", "165625.968000", "165625.968000", "165625.968000", "165625.984000", "165625.984000", "165625.984000", "165625.984000", "165625.984000", "165625.984000", "165625.984000", "165626.000000", "165626.000000", "165626.000000", "165645.937000", "165645.953000", "165645.953000", "165645.953000", "165645.953000", "165645.953000", "165645.953000", "165645.953000", "165645.968000", "165645.968000", "165645.968000", "165645.968000", "165645.968000", "165645.968000", "165645.968000", "165645.984000", "165645.984000", "165645.984000", "165645.984000", "165645.984000", "165645.984000", "165645.984000", "165646.000000", "165646.000000", "165646.000000", "165646.000000", "165705.937000", "165705.953000", "165705.953000", "165705.953000", "165705.953000", "165705.953000", "165705.953000", "165705.953000", "165705.968000", "165705.968000", "165705.968000", "165705.968000", "165705.968000", "165705.968000", "165705.968000", "165705.968000", "165705.984000", "165705.984000", "165705.984000", "165705.984000", "165706.000000", "165706.000000", "165706.000000", "165706.000000", "165706.000000", "165725.937000", "165725.953000", "165725.953000", "165725.953000", "165725.953000", "165725.953000", "165725.953000", "165725.953000", "165725.968000", "165725.968000", "165725.968000", "165725.968000", "165725.968000", "165725.968000", "165725.968000", "165725.984000", "165725.984000", "165725.984000", "165725.984000", "165725.984000", "165725.984000", "165725.984000", "165726.000000", "165726.000000", "165726.000000", "165726.000000", "165745.937000", "165745.953000", "165745.953000", "165745.953000", "165745.953000", "165745.953000", "165745.953000", "165745.968000", "165745.968000", "165745.968000", "165745.968000", "165745.968000", "165745.968000", "165745.968000", "165745.984000", "165745.984000", "165745.984000", "165745.984000", "165745.984000", "165745.984000", "165745.984000", "165746.000000", "165746.000000", "165746.000000", "165746.000000", "165805.968000", "165805.968000", "165805.968000", "165805.968000", "165805.968000", "165805.968000", "165805.984000", "165805.984000", "165805.984000", "165805.984000", "165805.984000", "165805.984000", "165805.984000", "165806.000000", "165806.000000", "165806.000000", "165806.000000", "165806.000000", "165806.000000", "165806.000000", "165806.015000", "165806.015000", "165806.015000", "165806.015000", "165806.015000", "165806.015000", "165825.937000", "165825.953000", "165825.953000", "165825.953000", "165825.953000", "165825.953000", "165825.953000", "165825.953000", "165825.968000", "165825.968000", "165825.968000", "165825.968000", "165825.968000", "165825.968000", "165825.968000", "165825.984000", "165825.984000", "165825.984000", "165825.984000", "165825.984000", "165825.984000", "165825.984000", "165826.000000", "165826.000000", "165826.000000", "165845.937000", "165845.953000", "165845.953000", "165845.953000", "165845.953000", "165845.953000", "165845.953000", "165845.953000", "165845.968000", "165845.968000", "165845.968000", "165845.968000", "165845.968000", "165845.968000", "165845.984000", "165845.984000", "165845.984000", "165845.984000", "165845.984000", "165845.984000", "165845.984000", "165846.000000", "165846.000000", "165846.000000", "165846.000000", "165846.015000", "165905.937000", "165905.953000", "165905.953000", "165905.953000", "165905.953000", "165905.953000", "165905.953000", "165905.953000", "165905.968000", "165905.968000", "165905.968000", "165905.968000", "165905.968000", "165905.968000", "165905.968000", "165905.984000", "165905.984000", "165905.984000", "165905.984000", "165905.984000", "165905.984000", "165905.984000", "165906.000000", "165906.000000", "165906.000000", "165925.937000", "165925.953000", "165925.953000", "165925.953000", "165925.953000", "165925.953000", "165925.953000", "165925.953000", "165925.968000", "165925.968000", "165925.968000", "165925.968000", "165925.968000", "165925.968000", "165925.968000", "165925.984000", "165925.984000", "165925.984000", "165925.984000", "165925.984000", "165926.000000", "165926.000000", "165926.000000", "165926.000000", "165926.000000", "165926.015000", "165927.484000", "165927.500000"],
      "DataSetTrailingPadding": [
        "\u0000\u0000\u0000\u0000\u0000\u0000\u0000\u0000\u0000\u0000\u0000\u0000\u0000\u0000\u0000\u0000\u0000\u0000\u0000\u0000\u0000\u0000\u0000\u0000\u0000\u0000\u0000\u0000\u0000\u0000\u0000\u0000\u0000\u0000\u0000\u0000\u0000\u0000\u0000\u0000\u0000\u0000\u0000\u0000\u0000\u0000\u0000\u0000\u0000\u0000\u0000\u0000\u0000\u0000\u0000\u0000\u0000\u0000\u0000\u0000\u0000\u0000\u0000\u0000\u0000\u0000\u0000\u0000\u0000\u0000\u0000\u0000\u0000\u0000\u0000\u0000\u0000\u0000\u0000\u0000\u0000\u0000\u0000\u0000\u0000\u0000\u0000\u0000\u0000\u0000\u0000\u0000\u0000\u0000\u0000\u0000\u0000\u0000\u0000\u0000\u0000\u0000\u0000\u0000\u0000\u0000\u0000\u0000\u0000\u0000\u0000\u0000\u0000\u0000\u0000\u0000\u0000\u0000\u0000\u0000\u0000\u0000\u0000\u0000\u0000\u0000\u0000\u0000\u0000\u0000\u0000\u0000\u0000\u0000\u0000\u0000\u0000\u0000\u0000\u0000\u0000\u0000\u0000\u0000\u0000\u0000\u0000\u0000\u0000\u0000\u0000\u0000\u0000\u0000\u0000\u0000\u0000\u0000\u0000\u0000\u0000\u0000",
        "\u0000\u0000\u0000\u0000\u0000\u0000\u0000\u0000\u0000\u0000\u0000\u0000\u0000\u0000\u0000\u0000\u0000\u0000\u0000\u0000\u0000\u0000\u0000\u0000\u0000\u0000\u0000\u0000\u0000\u0000\u0000\u0000\u0000\u0000\u0000\u0000\u0000\u0000\u0000\u0000\u0000\u0000\u0000\u0000\u0000\u0000\u0000\u0000\u0000\u0000\u0000\u0000\u0000\u0000\u0000\u0000\u0000\u0000\u0000\u0000\u0000\u0000\u0000\u0000\u0000\u0000\u0000\u0000\u0000\u0000\u0000\u0000\u0000\u0000\u0000\u0000\u0000\u0000\u0000\u0000\u0000\u0000\u0000\u0000\u0000\u0000\u0000\u0000\u0000\u0000\u0000\u0000\u0000\u0000\u0000\u0000\u0000\u0000\u0000\u0000\u0000\u0000\u0000\u0000\u0000\u0000\u0000\u0000\u0000\u0000\u0000\u0000\u0000\u0000\u0000\u0000\u0000\u0000\u0000\u0000\u0000\u0000\u0000\u0000\u0000\u0000\u0000\u0000\u0000\u0000\u0000\u0000\u0000\u0000\u0000\u0000\u0000\u0000\u0000\u0000\u0000\u0000\u0000\u0000\u0000\u0000\u0000\u0000\u0000\u0000\u0000\u0000\u0000\u0000\u0000\u0000\u0000\u0000\u0000\u0000\u0000\u0000",
