{
  "AcquisitionMatrixPE": 104,
  "AcquisitionNumber": 1,
  "AcquisitionTime": "15:54:58.580000",
  "BandwidthPerPixelPhaseEncode": 13.935,
  "BaseResolution": 104,
  "CoilString": "C:HEA;HEP",
  "ConversionSoftware": "dcm2niix",
  "ConversionSoftwareVersion": "v1.0.20210317",
  "DerivedVendorReportedEchoSpacing": 0.000690017,
  "DeviceSerialNumber": "35450",
  "DwellTime": 2.5e-06,
  "EchoTime": 0.0348,
  "EffectiveEchoSpacing": 0.000690017,
  "FlipAngle": 55,
  "ImageComments": "Unaliased MB8/PE3 (remote)",
  "ImageOrientationPatientDICOM": [0.999917, -0.00033762, -0.012896, 2.42565e-08, 0.999658, -0.0261695],
  "ImageType": [
    "ORIGINAL",
    "PRIMARY",
    "M",
    "MB",
    "ND",
    "MOSAIC"
],
  "ImagingFrequency": 123.234,
  "InPlanePhaseEncodingDirectionDICOM": "COL",
  "InstitutionAddress": "Univeristy Ave. 197,Newark,North East,US,07102-1814",
  "InstitutionName": "RUBIC",
  "InstitutionalDepartmentName": "Department",
  "MRAcquisitionType": "2D",
  "MagneticFieldStrength": 3,
  "Manufacturer": "Siemens",
  "ManufacturersModelName": "TrioTim",
  "Modality": "MR",
  "MultibandAccelerationFactor": 8,
  "PartialFourier": 0.875,
  "PatientPosition": "HFS",
  "PercentPhaseFOV": 100,
  "PercentSampling": 100,
  "PhaseEncodingDirection": "j-",
  "PhaseEncodingSteps": 91,
  "PhaseResolution": 1,
  "PixelBandwidth": 1923,
  "ProcedureStepDescription": "Cole^Michael",
  "ProtocolName": "cmrr_mbep2d_bold_2mm_MB8_Task_8x",
  "PulseSequenceDetails": "%CustomerSeq%\\cmrr_mbep2d_bold",
  "ReceiveCoilName": "32Ch_Head",
  "ReconMatrixPE": 104,
  "RepetitionTime": 0.785,
  "SAR": 0.123926,
  "ScanOptions": "PFP\\FS",
  "ScanningSequence": "EP",
  "SequenceName": "epfid2d1_104",
  "SequenceVariant": "SK\\SS",
  "SeriesDescription": "cmrr_mbep2d_bold_2mm_MB8_Task_8x",
  "SeriesNumber": 13,
  "ShimSetting": [2064, -432, -7322, 689, -50, -132, 311, 117],
  "SliceThickness": 2,
  "SliceTiming": [0, 0.4375, 0.0875, 0.525, 0.175, 0.6125, 0.2625, 0.7, 0.35, 0, 0.4375, 0.0875, 0.525, 0.175, 0.6125, 0.2625, 0.7, 0.35, 0, 0.4375, 0.0875, 0.525, 0.175, 0.6125, 0.2625, 0.7, 0.35, 0, 0.4375, 0.0875, 0.525, 0.175, 0.6125, 0.2625, 0.7, 0.35, 0, 0.4375, 0.0875, 0.525, 0.175, 0.6125, 0.2625, 0.7, 0.35, 0, 0.4375, 0.0875, 0.525, 0.175, 0.6125, 0.2625, 0.7, 0.35, 0, 0.4375, 0.0875, 0.525, 0.175, 0.6125, 0.2625, 0.7, 0.35, 0, 0.4375, 0.0875, 0.525, 0.175, 0.6125, 0.2625, 0.7, 0.35],
  "SoftwareVersions": "syngo MR B19",
  "SpacingBetweenSlices": 2,
  "StationName": "MRC35450",
  "TaskName": "cpro",
  "TotalReadoutTime": 0.0710717,
  "TxRefAmp": 313.071,
  "dcmmeta_affine": [
    [-1.999833583831787, 4.851301937947028e-08, -0.02580077387392521, 104.28946685791016],
    [0.0006752407061867416, 1.9993150234222412, -0.052334558218717575, -84.8324203491211],
    [-0.025791935622692108, 0.05233891308307648, 1.9991487264633179, -83.8442153930664],
    [0.0, 0.0, 0.0, 1.0]
],
  "dcmmeta_reorient_transform": [
    [0.0, -1.0, 0.0, 103.0],
    [1.0, 0.0, 0.0, 0.0],
    [0.0, 0.0, 1.0, 0.0],
    [0.0, 0.0, 0.0, 1.0]
],
  "dcmmeta_shape": [104, 104, 72, 581],
  "dcmmeta_slice_dim": 2,
  "dcmmeta_version": 0.6,
  "global": {
    "const": {
      "AcquisitionMatrix": [104, 0, 0, 104],
      "AngioFlag": "N",
      "BitsAllocated": 16,
      "BitsStored": 12,
      "Columns": 936,
      "EchoNumbers": 1,
      "EchoTime": 34.8,
      "EchoTrainLength": 1,
      "FlipAngle": 55.0,
      "HighBit": 11,
      "ImageOrientationPatient": [0.99991678654841, -0.0003376203603, -0.0128959680208, 2.4256509e-08, 0.99965752111952, -0.0261694567995],
      "ImagePositionPatient": [-936.22025839229, -952.53118986694, -45.950875649448],
      "ImageType": [
        "ORIGINAL",
        "PRIMARY",
        "M",
        "MB",
        "ND",
        "MOSAIC"
],
      "ImagedNucleus": "1H",
      "ImagingFrequency": 123.234441,
      "InPlanePhaseEncodingDirection": "COL",
      "MRAcquisitionType": "2D",
      "MagneticFieldStrength": 3.0,
      "Manufacturer": "SIEMENS",
      "ManufacturerModelName": "TrioTim",
      "Modality": "MR",
      "NumberOfAverages": 1.0,
      "NumberOfPhaseEncodingSteps": 91,
      "PercentPhaseFieldOfView": 100.0,
      "PercentSampling": 100.0,
      "PerformedProcedureStepStartTime": "144207.140000",
      "PhotometricInterpretation": "MONOCHROME2",
      "PixelBandwidth": 1923.0,
      "PixelRepresentation": 0,
      "PixelSpacing": [2.0, 2.0],
      "ProtocolName": "cmrr_mbep2d_bold_2mm_MB8_Task_8x",
      "RepetitionTime": 785.0,
      "Rows": 936,
      "SAR": 0.12392590145038,
      "SamplesPerPixel": 1,
      "ScanOptions": [
        "PFP",
        "FS"
],
      "ScanningSequence": "EP",
      "SequenceName": "epfid2d1_104",
      "SequenceVariant": [
        "SK",
        "SS"
],
      "SeriesDescription": "cmrr_mbep2d_bold_2mm_MB8_Task_8x",
      "SeriesNumber": 13,
      "SeriesTime": "155504.437000",
      "SliceLocation": -82.934068700058,
      "SliceThickness": 2.0,
      "SmallestImagePixelValue": 0,
      "SoftwareVersions": "syngo MR B19",
      "SpacingBetweenSlices": 2.0000000057387,
      "SpecificCharacterSet": "ISO_IR 100",
      "StudyID": "1",
      "StudyTime": "144207.093000",
      "TransmitCoilName": "Body",
      "VariableFlipAngleFlag": "N",
      "WindowCenterWidthExplanation": "Algo1",
      "dBdt": 0.0},
    "slices": {}
  },
  "time": {
    "samples": {
      "AcquisitionNumber": [1, 2, 3, 4, 5, 6, 7, 8, 9, 10, 11, 12, 13, 14, 15, 16, 17, 18, 19, 20, 21, 22, 23, 24, 25, 26, 27, 28, 29, 30, 31, 32, 33, 34, 35, 36, 37, 38, 39, 40, 41, 42, 43, 44, 45, 46, 47, 48, 49, 50, 51, 52, 53, 54, 55, 56, 57, 58, 59, 60, 61, 62, 63, 64, 65, 66, 67, 68, 69, 70, 71, 72, 73, 74, 75, 76, 77, 78, 79, 80, 81, 82, 83, 84, 85, 86, 87, 88, 89, 90, 91, 92, 93, 94, 95, 96, 97, 98, 99, 100, 101, 102, 103, 104, 105, 106, 107, 108, 109, 110, 111, 112, 113, 114, 115, 116, 117, 118, 119, 120, 121, 122, 123, 124, 125, 126, 127, 128, 129, 130, 131, 132, 133, 134, 135, 136, 137, 138, 139, 140, 141, 142, 143, 144, 145, 146, 147, 148, 149, 150, 151, 152, 153, 154, 155, 156, 157, 158, 159, 160, 161, 162, 163, 164, 165, 166, 167, 168, 169, 170, 171, 172, 173, 174, 175, 176, 177, 178, 179, 180, 181, 182, 183, 184, 185, 186, 187, 188, 189, 190, 191, 192, 193, 194, 195, 196, 197, 198, 199, 200, 201, 202, 203, 204, 205, 206, 207, 208, 209, 210, 211, 212, 213, 214, 215, 216, 217, 218, 219, 220, 221, 222, 223, 224, 225, 226, 227, 228, 229, 230, 231, 232, 233, 234, 235, 236, 237, 238, 239, 240, 241, 242, 243, 244, 245, 246, 247, 248, 249, 250, 251, 252, 253, 254, 255, 256, 257, 258, 259, 260, 261, 262, 263, 264, 265, 266, 267, 268, 269, 270, 271, 272, 273, 274, 275, 276, 277, 278, 279, 280, 281, 282, 283, 284, 285, 286, 287, 288, 289, 290, 291, 292, 293, 294, 295, 296, 297, 298, 299, 300, 301, 302, 303, 304, 305, 306, 307, 308, 309, 310, 311, 312, 313, 314, 315, 316, 317, 318, 319, 320, 321, 322, 323, 324, 325, 326, 327, 328, 329, 330, 331, 332, 333, 334, 335, 336, 337, 338, 339, 340, 341, 342, 343, 344, 345, 346, 347, 348, 349, 350, 351, 352, 353, 354, 355, 356, 357, 358, 359, 360, 361, 362, 363, 364, 365, 366, 367, 368, 369, 370, 371, 372, 373, 374, 375, 376, 377, 378, 379, 380, 381, 382, 383, 384, 385, 386, 387, 388, 389, 390, 391, 392, 393, 394, 395, 396, 397, 398, 399, 400, 401, 402, 403, 404, 405, 406, 407, 408, 409, 410, 411, 412, 413, 414, 415, 416, 417, 418, 419, 420, 421, 422, 423, 424, 425, 426, 427, 428, 429, 430, 431, 432, 433, 434, 435, 436, 437, 438, 439, 440, 441, 442, 443, 444, 445, 446, 447, 448, 449, 450, 451, 452, 453, 454, 455, 456, 457, 458, 459, 460, 461, 462, 463, 464, 465, 466, 467, 468, 469, 470, 471, 472, 473, 474, 475, 476, 477, 478, 479, 480, 481, 482, 483, 484, 485, 486, 487, 488, 489, 490, 491, 492, 493, 494, 495, 496, 497, 498, 499, 500, 501, 502, 503, 504, 505, 506, 507, 508, 509, 510, 511, 512, 513, 514, 515, 516, 517, 518, 519, 520, 521, 522, 523, 524, 525, 526, 527, 528, 529, 530, 531, 532, 533, 534, 535, 536, 537, 538, 539, 540, 541, 542, 543, 544, 545, 546, 547, 548, 549, 550, 551, 552, 553, 554, 555, 556, 557, 558, 559, 560, 561, 562, 563, 564, 565, 566, 567, 568, 569, 570, 571, 572, 573, 574, 575, 576, 577, 578, 579, 580, 581],
      "AcquisitionTime": ["155458.580000", "155459.367500", "155500.155000", "155500.945000", "155501.732500", "155502.520000", "155503.307500", "155504.097500", "155504.885000", "155505.672500", "155506.462500", "155507.250000", "155508.037500", "155508.825000", "155509.615000", "155510.402500", "155511.190000", "155511.977500", "155512.767500", "155513.555000", "155514.342500", "155515.130000", "155515.920000", "155516.707500", "155517.495000", "155518.282500", "155519.072500", "155519.860000", "155520.647500", "155521.435000", "155522.225000", "155523.012500", "155523.800000", "155524.590000", "155525.377500", "155526.165000", "155526.952500", "155527.742500", "155528.530000", "155529.317500", "155530.105000", "155530.895000", "155531.682500", "155532.470000", "155533.257500", "155534.047500", "155534.835000", "155535.622500", "155536.410000", "155537.200000", "155537.987500", "155538.775000", "155539.562500", "155540.352500", "155541.140000", "155541.927500", "155542.717500", "155543.505000", "155544.292500", "155545.080000", "155545.870000", "155546.657500", "155547.445000", "155548.232500", "155549.022500", "155549.810000", "155550.597500", "155551.385000", "155552.175000", "155552.962500", "155553.750000", "155554.537500", "155555.327500", "155556.115000", "155556.902500", "155557.690000", "155558.480000", "155559.267500", "155600.055000", "155600.845000", "155601.632500", "155602.420000", "155603.207500", "155603.997500", "155604.785000", "155605.572500", "155606.360000", "155607.150000", "155607.937500", "155608.725000", "155609.512500", "155610.302500", "155611.090000", "155611.877500", "155612.665000", "155613.455000", "155614.242500", "155615.030000", "155615.817500", "155616.607500", "155617.395000", "155618.182500", "155618.972500", "155619.760000", "155620.547500", "155621.335000", "155622.125000", "155622.912500", "155623.700000", "155624.487500", "155625.277500", "155626.065000", "155626.852500", "155627.640000", "155628.430000", "155629.217500", "155630.005000", "155630.792500", "155631.582500", "155632.370000", "155633.157500", "155633.945000", "155634.735000", "155635.522500", "155636.310000", "155637.100000", "155637.887500", "155638.675000", "155639.462500", "155640.252500", "155641.040000", "155641.827500", "155642.615000", "155643.405000", "155644.192500", "155644.980000", "155645.767500", "155646.557500", "155647.345000", "155648.132500", "155648.920000", "155649.710000", "155650.497500", "155651.285000", "155652.072500", "155652.862500", "155653.650000", "155654.437500", "155655.227500", "155656.015000", "155656.802500", "155657.590000", "155658.380000", "155659.167500", "155659.955000", "155700.742500", "155701.532500", "155702.320000", "155703.107500", "155703.895000", "155704.685000", "155705.472500", "155706.260000", "155707.047500", "155707.837500", "155708.625000", "155709.412500", "155710.200000", "155710.990000", "155711.777500", "155712.565000", "155713.355000", "155714.142500", "155714.930000", "155715.717500", "155716.507500", "155717.295000", "155718.082500", "155718.870000", "155719.660000", "155720.447500", "155721.235000", "155722.022500", "155722.812500", "155723.600000", "155724.387500", "155725.175000", "155725.965000", "155726.752500", "155727.540000", "155728.327500", "155729.117500", "155729.905000", "155730.692500", "155731.482500", "155732.270000", "155733.057500", "155733.845000", "155734.635000", "155735.422500", "155736.210000", "155736.997500", "155737.787500", "155738.575000", "155739.362500", "155740.150000", "155740.940000", "155741.727500", "155742.515000", "155743.302500", "155744.092500", "155744.880000", "155745.667500", "155746.457500", "155747.245000", "155748.032500", "155748.820000", "155749.610000", "155750.397500", "155751.185000", "155751.972500", "155752.762500", "155753.550000", "155754.337500", "155755.125000", "155755.915000", "155756.702500", "155757.490000", "155758.277500", "155759.067500", "155759.855000", "155800.642500", "155801.430000", "155802.220000", "155803.007500", "155803.795000", "155804.585000", "155805.372500", "155806.160000", "155806.947500", "155807.737500", "155808.525000", "155809.312500", "155810.100000", "155810.890000", "155811.677500", "155812.465000", "155813.252500", "155814.042500", "155814.830000", "155815.617500", "155816.405000", "155817.195000", "155817.982500", "155818.770000", "155819.557500", "155820.347500", "155821.135000", "155821.922500", "155822.712500", "155823.500000", "155824.287500", "155825.075000", "155825.865000", "155826.652500", "155827.440000", "155828.227500", "155829.017500", "155829.805000", "155830.592500", "155831.380000", "155832.170000", "155832.957500", "155833.745000", "155834.532500", "155835.322500", "155836.110000", "155836.897500", "155837.685000", "155838.475000", "155839.262500", "155840.050000", "155840.840000", "155841.627500", "155842.415000", "155843.202500", "155843.992500", "155844.780000", "155845.567500", "155846.355000", "155847.145000", "155847.932500", "155848.720000", "155849.507500", "155850.297500", "155851.085000", "155851.872500", "155852.660000", "155853.450000", "155854.237500", "155855.025000", "155855.812500", "155856.602500", "155857.390000", "155858.177500", "155858.967500", "155859.755000", "155900.542500", "155901.330000", "155902.120000", "155902.907500", "155903.695000", "155904.482500", "155905.272500", "155906.060000", "155906.847500", "155907.635000", "155908.425000", "155909.212500", "155910.000000", "155910.787500", "155911.577500", "155912.365000", "155913.152500", "155913.940000", "155914.730000", "155915.517500", "155916.305000", "155917.095000", "155917.882500", "155918.670000", "155919.457500", "155920.247500", "155921.035000", "155921.822500", "155922.610000", "155923.400000", "155924.187500", "155924.975000", "155925.762500", "155926.552500", "155927.340000", "155928.127500", "155928.915000", "155929.705000", "155930.492500", "155931.280000", "155932.067500", "155932.857500", "155933.645000", "155934.432500", "155935.222500", "155936.010000", "155936.797500", "155937.585000", "155938.375000", "155939.162500", "155939.950000", "155940.737500", "155941.527500", "155942.315000", "155943.102500", "155943.890000", "155944.680000", "155945.467500", "155946.255000", "155947.042500", "155947.832500", "155948.620000", "155949.407500", "155950.195000", "155950.985000", "155951.772500", "155952.560000", "155953.350000", "155954.137500", "155954.925000", "155955.712500", "155956.502500", "155957.290000", "155958.077500", "155958.865000", "155959.655000", "160000.442500", "160001.230000", "160002.017500", "160002.807500", "160003.595000", "160004.382500", "160005.170000", "160005.960000", "160006.747500", "160007.535000", "160008.322500", "160009.112500", "160009.900000", "160010.687500", "160011.477500", "160012.265000", "160013.052500", "160013.840000", "160014.630000", "160015.417500", "160016.205000", "160016.992500", "160017.782500", "160018.570000", "160019.357500", "160020.145000", "160020.935000", "160021.722500", "160022.510000", "160023.297500", "160024.087500", "160024.875000", "160025.662500", "160026.450000", "160027.240000", "160028.027500", "160028.815000", "160029.605000", "160030.392500", "160031.180000", "160031.967500", "160032.757500", "160033.545000", "160034.332500", "160035.120000", "160035.910000", "160036.697500", "160037.485000", "160038.272500", "160039.062500", "160039.850000", "160040.637500", "160041.425000", "160042.215000", "160043.002500", "160043.790000", "160044.577500", "160045.367500", "160046.155000", "160046.942500", "160047.732500", "160048.520000", "160049.307500", "160050.095000", "160050.885000", "160051.672500", "160052.460000", "160053.247500", "160054.037500", "160054.825000", "160055.612500", "160056.400000", "160057.190000", "160057.977500", "160058.765000", "160059.552500", "160100.342500", "160101.130000", "160101.917500", "160102.707500", "160103.495000", "160104.282500", "160105.070000", "160105.860000", "160106.647500", "160107.435000", "160108.222500", "160109.012500", "160109.800000", "160110.587500", "160111.375000", "160112.165000", "160112.952500", "160113.740000", "160114.527500", "160115.317500", "160116.105000", "160116.892500", "160117.680000", "160118.470000", "160119.257500", "160120.045000", "160120.835000", "160121.622500", "160122.410000", "160123.197500", "160123.987500", "160124.775000", "160125.562500", "160126.350000", "160127.140000", "160127.927500", "160128.715000", "160129.502500", "160130.292500", "160131.080000", "160131.867500", "160132.655000", "160133.445000", "160134.232500", "160135.020000", "160135.807500", "160136.597500", "160137.385000", "160138.172500", "160138.962500", "160139.750000", "160140.537500", "160141.325000", "160142.115000", "160142.902500", "160143.690000", "160144.477500", "160145.267500", "160146.055000", "160146.842500", "160147.630000", "160148.420000", "160149.207500", "160149.995000", "160150.782500", "160151.572500", "160152.360000", "160153.147500", "160153.935000", "160154.725000", "160155.512500", "160156.300000", "160157.090000", "160157.877500", "160158.665000", "160159.452500", "160200.242500", "160201.030000", "160201.817500", "160202.605000", "160203.395000", "160204.182500", "160204.970000", "160205.757500", "160206.547500", "160207.335000", "160208.122500", "160208.910000", "160209.700000", "160210.487500", "160211.275000", "160212.062500", "160212.852500", "160213.640000", "160214.427500", "160215.217500", "160216.005000", "160216.792500", "160217.580000", "160218.370000", "160219.157500", "160219.945000", "160220.732500", "160221.522500", "160222.310000", "160223.097500", "160223.885000", "160224.675000", "160225.462500", "160226.250000", "160227.037500", "160227.827500", "160228.615000", "160229.402500", "160230.190000", "160230.980000", "160231.767500", "160232.555000", "160233.345000", "160234.132500", "160234.920000", "160235.707500"],
      "ContentTime": ["155504.437000", "155504.437000", "155504.453000", "155504.453000", "155524.406000", "155524.421000", "155524.421000", "155524.421000", "155524.421000", "155524.421000", "155524.421000", "155524.421000", "155524.437000", "155524.437000", "155524.437000", "155524.437000", "155524.437000", "155524.437000", "155524.453000", "155524.453000", "155524.453000", "155524.453000", "155524.453000", "155524.453000", "155524.453000", "155524.468000", "155524.468000", "155524.468000", "155524.468000", "155524.468000", "155524.484000", "155544.406000", "155544.421000", "155544.421000", "155544.421000", "155544.421000", "155544.421000", "155544.421000", "155544.421000", "155544.437000", "155544.437000", "155544.437000", "155544.437000", "155544.437000", "155544.437000", "155544.437000", "155544.453000", "155544.453000", "155544.453000", "155544.453000", "155544.453000", "155544.453000", "155544.453000", "155544.468000", "155544.468000", "155544.468000", "155544.468000", "155604.406000", "155604.421000", "155604.421000", "155604.421000", "155604.421000", "155604.421000", "155604.421000", "155604.421000", "155604.421000", "155604.437000", "155604.437000", "155604.437000", "155604.437000", "155604.437000", "155604.437000", "155604.437000", "155604.453000", "155604.453000", "155604.453000", "155604.453000", "155604.453000", "155604.453000", "155604.468000", "155604.468000", "155604.468000", "155624.406000", "155624.421000", "155624.421000", "155624.421000", "155624.421000", "155624.421000", "155624.421000", "155624.421000", "155624.421000", "155624.437000", "155624.437000", "155624.437000", "155624.437000", "155624.437000", "155624.437000", "155624.453000", "155624.453000", "155624.453000", "155624.453000", "155624.453000", "155624.453000", "155624.468000", "155624.468000", "155624.468000", "155624.468000", "155624.468000", "155644.406000", "155644.421000", "155644.421000", "155644.421000", "155644.421000", "155644.421000", "155644.421000", "155644.437000", "155644.437000", "155644.437000", "155644.437000", "155644.437000", "155644.437000", "155644.437000", "155644.453000", "155644.453000", "155644.453000", "155644.453000", "155644.453000", "155644.453000", "155644.453000", "155644.468000", "155644.468000", "155644.468000", "155644.468000", "155704.406000", "155704.421000", "155704.421000", "155704.421000", "155704.421000", "155704.421000", "155704.421000", "155704.421000", "155704.421000", "155704.437000", "155704.437000", "155704.437000", "155704.437000", "155704.437000", "155704.437000", "155704.437000", "155704.453000", "155704.453000", "155704.453000", "155704.453000", "155704.453000", "155704.453000", "155704.468000", "155704.468000", "155704.468000", "155704.468000", "155724.406000", "155724.421000", "155724.421000", "155724.421000", "155724.421000", "155724.421000", "155724.421000", "155724.421000", "155724.437000", "155724.437000", "155724.437000", "155724.437000", "155724.437000", "155724.437000", "155724.437000", "155724.453000", "155724.453000", "155724.453000", "155724.453000", "155724.453000", "155724.453000", "155724.453000", "155724.468000", "155724.468000", "155724.468000", "155744.406000", "155744.421000", "155744.421000", "155744.421000", "155744.421000", "155744.421000", "155744.421000", "155744.421000", "155744.437000", "155744.437000", "155744.437000", "155744.437000", "155744.437000", "155744.437000", "155744.437000", "155744.453000", "155744.453000", "155744.453000", "155744.453000", "155744.453000", "155744.453000", "155744.453000", "155744.468000", "155744.468000", "155744.468000", "155744.468000", "155804.406000", "155804.421000", "155804.421000", "155804.421000", "155804.421000", "155804.421000", "155804.421000", "155804.421000", "155804.437000", "155804.437000", "155804.437000", "155804.437000", "155804.437000", "155804.437000", "155804.437000", "155804.453000", "155804.453000", "155804.453000", "155804.453000", "155804.453000", "155804.453000", "155804.453000", "155804.468000", "155804.468000", "155804.468000", "155824.406000", "155824.421000", "155824.421000", "155824.421000", "155824.421000", "155824.421000", "155824.421000", "155824.421000", "155824.437000", "155824.437000", "155824.437000", "155824.437000", "155824.437000", "155824.437000", "155824.453000", "155824.453000", "155824.453000", "155824.453000", "155824.453000", "155824.453000", "155824.453000", "155824.468000", "155824.468000", "155824.468000", "155824.468000", "155824.468000", "155844.406000", "155844.421000", "155844.421000", "155844.421000", "155844.421000", "155844.421000", "155844.421000", "155844.421000", "155844.437000", "155844.437000", "155844.437000", "155844.437000", "155844.437000", "155844.437000", "155844.437000", "155844.453000", "155844.453000", "155844.453000", "155844.453000", "155844.453000", "155844.453000", "155844.453000", "155844.468000", "155844.468000", "155844.468000", "155904.406000", "155904.421000", "155904.421000", "155904.421000", "155904.421000", "155904.421000", "155904.421000", "155904.421000", "155904.437000", "155904.437000", "155904.437000", "155904.437000", "155904.437000", "155904.437000", "155904.437000", "155904.453000", "155904.453000", "155904.453000", "155904.453000", "155904.468000", "155904.468000", "155904.468000", "155904.468000", "155904.468000", "155904.468000", "155904.468000", "155924.406000", "155924.421000", "155924.421000", "155924.421000", "155924.421000", "155924.421000", "155924.437000", "155924.437000", "155924.437000", "155924.437000", "155924.437000", "155924.437000", "155924.437000", "155924.453000", "155924.453000", "155924.453000", "155924.453000", "155924.453000", "155924.453000", "155924.468000", "155924.468000", "155924.468000", "155924.468000", "155924.468000", "155924.468000", "155944.406000", "155944.421000", "155944.421000", "155944.421000", "155944.421000", "155944.421000", "155944.421000", "155944.421000", "155944.437000", "155944.437000", "155944.437000", "155944.437000", "155944.437000", "155944.437000", "155944.437000", "155944.453000", "155944.453000", "155944.453000", "155944.453000", "155944.453000", "155944.453000", "155944.453000", "155944.468000", "155944.468000", "155944.468000", "155944.468000", "160004.406000", "160004.421000", "160004.421000", "160004.421000", "160004.421000", "160004.421000", "160004.421000", "160004.421000", "160004.437000", "160004.437000", "160004.437000", "160004.437000", "160004.437000", "160004.437000", "160004.437000", "160004.453000", "160004.453000", "160004.453000", "160004.453000", "160004.453000", "160004.453000", "160004.453000", "160004.468000", "160004.468000", "160004.468000", "160024.406000", "160024.421000", "160024.421000", "160024.421000", "160024.421000", "160024.421000", "160024.421000", "160024.437000", "160024.437000", "160024.437000", "160024.437000", "160024.437000", "160024.453000", "160024.453000", "160024.453000", "160024.453000", "160024.453000", "160024.453000", "160024.453000", "160024.468000", "160024.468000", "160024.468000", "160024.468000", "160024.468000", "160024.468000", "160044.406000", "160044.421000", "160044.421000", "160044.421000", "160044.421000", "160044.421000", "160044.421000", "160044.421000", "160044.437000", "160044.437000", "160044.437000", "160044.437000", "160044.437000", "160044.437000", "160044.437000", "160044.453000", "160044.453000", "160044.453000", "160044.453000", "160044.453000", "160044.453000", "160044.453000", "160044.468000", "160044.468000", "160044.468000", "160044.468000", "160104.406000", "160104.421000", "160104.421000", "160104.421000", "160104.421000", "160104.421000", "160104.437000", "160104.437000", "160104.437000", "160104.437000", "160104.437000", "160104.453000", "160104.453000", "160104.453000", "160104.453000", "160104.453000", "160104.468000", "160104.468000", "160104.468000", "160104.468000", "160104.468000", "160104.468000", "160104.468000", "160104.484000", "160104.484000", "160124.406000", "160124.421000", "160124.421000", "160124.421000", "160124.421000", "160124.421000", "160124.421000", "160124.421000", "160124.437000", "160124.437000", "160124.437000", "160124.437000", "160124.437000", "160124.437000", "160124.437000", "160124.453000", "160124.453000", "160124.453000", "160124.453000", "160124.453000", "160124.453000", "160124.453000", "160124.468000", "160124.468000", "160124.468000", "160124.468000", "160144.406000", "160144.421000", "160144.421000", "160144.421000", "160144.421000", "160144.421000", "160144.421000", "160144.421000", "160144.437000", "160144.437000", "160144.437000", "160144.437000", "160144.437000", "160144.437000", "160144.437000", "160144.453000", "160144.453000", "160144.453000", "160144.453000", "160144.453000", "160144.453000", "160144.453000", "160144.468000", "160144.468000", "160144.468000", "160204.406000", "160204.421000", "160204.421000", "160204.421000", "160204.421000", "160204.421000", "160204.421000", "160204.421000", "160204.437000", "160204.437000", "160204.437000", "160204.437000", "160204.437000", "160204.437000", "160204.437000", "160204.453000", "160204.453000", "160204.453000", "160204.453000", "160204.453000", "160204.453000", "160204.453000", "160204.468000", "160204.468000", "160204.468000", "160204.468000", "160224.406000", "160224.421000", "160224.421000", "160224.421000", "160224.421000", "160224.421000", "160224.421000", "160224.421000", "160224.437000", "160224.437000", "160224.437000", "160224.437000", "160224.437000", "160224.437000", "160224.453000", "160224.453000", "160224.453000", "160224.453000", "160224.453000", "160224.453000", "160224.468000", "160224.468000", "160224.468000", "160224.468000", "160224.468000", "160235.578000", "160235.578000", "160235.578000", "160235.578000", "160235.593000", "160235.593000", "160235.593000", "160235.593000", "160235.593000", "160235.593000", "160235.593000", "160235.609000", "160235.609000", "160235.609000", "160235.609000"],
      "DataSetTrailingPadding": [
        "\u0000\u0000\u0000\u0000\u0000\u0000\u0000\u0000\u0000\u0000\u0000\u0000\u0000\u0000\u0000\u0000\u0000\u0000\u0000\u0000\u0000\u0000\u0000\u0000\u0000\u0000\u0000\u0000\u0000\u0000\u0000\u0000\u0000\u0000\u0000\u0000\u0000\u0000\u0000\u0000\u0000\u0000\u0000\u0000\u0000\u0000\u0000\u0000\u0000\u0000\u0000\u0000\u0000\u0000\u0000\u0000\u0000\u0000\u0000\u0000\u0000\u0000\u0000\u0000\u0000\u0000\u0000\u0000\u0000\u0000\u0000\u0000\u0000\u0000\u0000\u0000\u0000\u0000\u0000\u0000\u0000\u0000\u0000\u0000\u0000\u0000\u0000\u0000\u0000\u0000\u0000\u0000\u0000\u0000\u0000\u0000\u0000\u0000\u0000\u0000\u0000\u0000\u0000\u0000\u0000\u0000\u0000\u0000\u0000\u0000\u0000\u0000\u0000\u0000\u0000\u0000\u0000\u0000\u0000\u0000\u0000\u0000\u0000\u0000\u0000\u0000\u0000\u0000\u0000\u0000\u0000\u0000\u0000\u0000\u0000\u0000\u0000\u0000\u0000\u0000\u0000\u0000\u0000\u0000\u0000\u0000\u0000\u0000\u0000\u0000\u0000\u0000\u0000\u0000\u0000\u0000\u0000\u0000\u0000\u0000\u0000\u0000",
        "\u0000\u0000\u0000\u0000\u0000\u0000\u0000\u0000\u0000\u0000\u0000\u0000\u0000\u0000\u0000\u0000\u0000\u0000\u0000\u0000\u0000\u0000\u0000\u0000\u0000\u0000\u0000\u0000\u0000\u0000\u0000\u0000\u0000\u0000\u0000\u0000\u0000\u0000\u0000\u0000\u0000\u0000\u0000\u0000\u0000\u0000\u0000\u0000\u0000\u0000\u0000\u0000\u0000\u0000\u0000\u0000\u0000\u0000\u0000\u0000\u0000\u0000\u0000\u0000\u0000\u0000\u0000\u0000\u0000\u0000\u0000\u0000\u0000\u0000\u0000\u0000\u0000\u0000\u0000\u0000\u0000\u0000\u0000\u0000\u0000\u0000\u0000\u0000\u0000\u0000\u0000\u0000\u0000\u0000\u0000\u0000\u0000\u0000\u0000\u0000\u0000\u0000\u0000\u0000\u0000\u0000\u0000\u0000\u0000\u0000\u0000\u0000\u0000\u0000\u0000\u0000\u0000\u0000\u0000\u0000\u0000\u0000\u0000\u0000\u0000\u0000\u0000\u0000\u0000\u0000\u0000\u0000\u0000\u0000\u0000\u0000\u0000\u0000\u0000\u0000\u0000\u0000\u0000\u0000\u0000\u0000\u0000\u0000\u0000\u0000\u0000\u0000\u0000\u0000\u0000\u0000\u0000\u0000\u0000\u0000\u0000\u0000",
