{
  "AcquisitionMatrixPE": 104,
  "AcquisitionNumber": 1,
  "AcquisitionTime": "16:03:13.690000",
  "BandwidthPerPixelPhaseEncode": 13.935,
  "BaseResolution": 104,
  "CoilString": "C:HEA;HEP",
  "ConversionSoftware": "dcm2niix",
  "ConversionSoftwareVersion": "v1.0.20210317",
  "DerivedVendorReportedEchoSpacing": 0.000690017,
  "DeviceSerialNumber": "35450",
  "DwellTime": 2.5e-06,
  "EchoTime": 0.0348,
  "EffectiveEchoSpacing": 0.000690017,
  "FlipAngle": 55,
  "ImageComments": "Unaliased MB8/PE3 (remote)",
  "ImageOrientationPatientDICOM": [0.999917, -0.00033762, -0.012896, 2.42565e-08, 0.999658, -0.0261695],
  "ImageType": [
    "ORIGINAL",
    "PRIMARY",
    "M",
    "MB",
    "ND",
    "MOSAIC"
],
  "ImagingFrequency": 123.234,
  "InPlanePhaseEncodingDirectionDICOM": "COL",
  "InstitutionAddress": "Univeristy Ave. 197,Newark,North East,US,07102-1814",
  "InstitutionName": "RUBIC",
  "InstitutionalDepartmentName": "Department",
  "MRAcquisitionType": "2D",
  "MagneticFieldStrength": 3,
  "Manufacturer": "Siemens",
  "ManufacturersModelName": "TrioTim",
  "Modality": "MR",
  "MultibandAccelerationFactor": 8,
  "PartialFourier": 0.875,
  "PatientPosition": "HFS",
  "PercentPhaseFOV": 100,
  "PercentSampling": 100,
  "PhaseEncodingDirection": "j-",
  "PhaseEncodingSteps": 91,
  "PhaseResolution": 1,
  "PixelBandwidth": 1923,
  "ProcedureStepDescription": "Cole^Michael",
  "ProtocolName": "cmrr_mbep2d_bold_2mm_MB8_Task_8x",
  "PulseSequenceDetails": "%CustomerSeq%\\cmrr_mbep2d_bold",
  "ReceiveCoilName": "32Ch_Head",
  "ReconMatrixPE": 104,
  "RepetitionTime": 0.785,
  "SAR": 0.112266,
  "ScanOptions": "PFP\\FS",
  "ScanningSequence": "EP",
  "SequenceName": "epfid2d1_104",
  "SequenceVariant": "SK\\SS",
  "SeriesDescription": "cmrr_mbep2d_bold_2mm_MB8_Task_8x",
  "SeriesNumber": 15,
  "ShimSetting": [2064, -432, -7322, 689, -50, -132, 311, 117],
  "SliceThickness": 2,
  "SliceTiming": [0, 0.4375, 0.0875, 0.525, 0.175, 0.6125, 0.2625, 0.7, 0.35, 0, 0.4375, 0.0875, 0.525, 0.175, 0.6125, 0.2625, 0.7, 0.35, 0, 0.4375, 0.0875, 0.525, 0.175, 0.6125, 0.2625, 0.7, 0.35, 0, 0.4375, 0.0875, 0.525, 0.175, 0.6125, 0.2625, 0.7, 0.35, 0, 0.4375, 0.0875, 0.525, 0.175, 0.6125, 0.2625, 0.7, 0.35, 0, 0.4375, 0.0875, 0.525, 0.175, 0.6125, 0.2625, 0.7, 0.35, 0, 0.4375, 0.0875, 0.525, 0.175, 0.6125, 0.2625, 0.7, 0.35, 0, 0.4375, 0.0875, 0.525, 0.175, 0.6125, 0.2625, 0.7, 0.35],
  "SoftwareVersions": "syngo MR B19",
  "SpacingBetweenSlices": 2,
  "StationName": "MRC35450",
  "TaskName": "cpro",
  "TotalReadoutTime": 0.0710717,
  "TxRefAmp": 313.071,
  "dcmmeta_affine": [
    [-1.999833583831787, 4.851301937947028e-08, -0.02580077387392521, 104.28946685791016],
    [0.0006752407061867416, 1.9993150234222412, -0.052334558218717575, -84.8324203491211],
    [-0.025791935622692108, 0.05233891308307648, 1.9991487264633179, -83.8442153930664],
    [0.0, 0.0, 0.0, 1.0]
],
  "dcmmeta_reorient_transform": [
    [0.0, -1.0, 0.0, 103.0],
    [1.0, 0.0, 0.0, 0.0],
    [0.0, 0.0, 1.0, 0.0],
    [0.0, 0.0, 0.0, 1.0]
],
  "dcmmeta_shape": [104, 104, 72, 581],
  "dcmmeta_slice_dim": 2,
  "dcmmeta_version": 0.6,
  "global": {
    "const": {
      "AcquisitionMatrix": [104, 0, 0, 104],
      "AngioFlag": "N",
      "BitsAllocated": 16,
      "BitsStored": 12,
      "Columns": 936,
      "EchoNumbers": 1,
      "EchoTime": 34.8,
      "EchoTrainLength": 1,
      "FlipAngle": 55.0,
      "HighBit": 11,
      "ImageOrientationPatient": [0.99991678654841, -0.0003376203603, -0.0128959680208, 2.4256509e-08, 0.99965752111952, -0.0261694567995],
      "ImagePositionPatient": [-936.22025839229, -952.53118986694, -45.950875649448],
      "ImageType": [
        "ORIGINAL",
        "PRIMARY",
        "M",
        "MB",
        "ND",
        "MOSAIC"
],
      "ImagedNucleus": "1H",
      "ImagingFrequency": 123.234441,
      "InPlanePhaseEncodingDirection": "COL",
      "MRAcquisitionType": "2D",
      "MagneticFieldStrength": 3.0,
      "Manufacturer": "SIEMENS",
      "ManufacturerModelName": "TrioTim",
      "Modality": "MR",
      "NumberOfAverages": 1.0,
      "NumberOfPhaseEncodingSteps": 91,
      "PercentPhaseFieldOfView": 100.0,
      "PercentSampling": 100.0,
      "PerformedProcedureStepStartTime": "144207.140000",
      "PhotometricInterpretation": "MONOCHROME2",
      "PixelBandwidth": 1923.0,
      "PixelRepresentation": 0,
      "PixelSpacing": [2.0, 2.0],
      "ProtocolName": "cmrr_mbep2d_bold_2mm_MB8_Task_8x",
      "RepetitionTime": 785.0,
      "Rows": 936,
      "SAR": 0.11226645213753,
      "SamplesPerPixel": 1,
      "ScanOptions": [
        "PFP",
        "FS"
],
      "ScanningSequence": "EP",
      "SequenceName": "epfid2d1_104",
      "SequenceVariant": [
        "SK",
        "SS"
],
      "SeriesDescription": "cmrr_mbep2d_bold_2mm_MB8_Task_8x",
      "SeriesNumber": 15,
      "SeriesTime": "160345.968000",
      "SliceLocation": -82.934068700058,
      "SliceThickness": 2.0,
      "SmallestImagePixelValue": 0,
      "SoftwareVersions": "syngo MR B19",
      "SpacingBetweenSlices": 2.0000000057387,
      "SpecificCharacterSet": "ISO_IR 100",
      "StudyID": "1",
      "StudyTime": "144207.093000",
      "TransmitCoilName": "Body",
      "VariableFlipAngleFlag": "N",
      "WindowCenterWidthExplanation": "Algo1",
      "dBdt": 0.0},
    "slices": {}
  },
  "time": {
    "samples": {
      "AcquisitionNumber": [1, 2, 3, 4, 5, 6, 7, 8, 9, 10, 11, 12, 13, 14, 15, 16, 17, 18, 19, 20, 21, 22, 23, 24, 25, 26, 27, 28, 29, 30, 31, 32, 33, 34, 35, 36, 37, 38, 39, 40, 41, 42, 43, 44, 45, 46, 47, 48, 49, 50, 51, 52, 53, 54, 55, 56, 57, 58, 59, 60, 61, 62, 63, 64, 65, 66, 67, 68, 69, 70, 71, 72, 73, 74, 75, 76, 77, 78, 79, 80, 81, 82, 83, 84, 85, 86, 87, 88, 89, 90, 91, 92, 93, 94, 95, 96, 97, 98, 99, 100, 101, 102, 103, 104, 105, 106, 107, 108, 109, 110, 111, 112, 113, 114, 115, 116, 117, 118, 119, 120, 121, 122, 123, 124, 125, 126, 127, 128, 129, 130, 131, 132, 133, 134, 135, 136, 137, 138, 139, 140, 141, 142, 143, 144, 145, 146, 147, 148, 149, 150, 151, 152, 153, 154, 155, 156, 157, 158, 159, 160, 161, 162, 163, 164, 165, 166, 167, 168, 169, 170, 171, 172, 173, 174, 175, 176, 177, 178, 179, 180, 181, 182, 183, 184, 185, 186, 187, 188, 189, 190, 191, 192, 193, 194, 195, 196, 197, 198, 199, 200, 201, 202, 203, 204, 205, 206, 207, 208, 209, 210, 211, 212, 213, 214, 215, 216, 217, 218, 219, 220, 221, 222, 223, 224, 225, 226, 227, 228, 229, 230, 231, 232, 233, 234, 235, 236, 237, 238, 239, 240, 241, 242, 243, 244, 245, 246, 247, 248, 249, 250, 251, 252, 253, 254, 255, 256, 257, 258, 259, 260, 261, 262, 263, 264, 265, 266, 267, 268, 269, 270, 271, 272, 273, 274, 275, 276, 277, 278, 279, 280, 281, 282, 283, 284, 285, 286, 287, 288, 289, 290, 291, 292, 293, 294, 295, 296, 297, 298, 299, 300, 301, 302, 303, 304, 305, 306, 307, 308, 309, 310, 311, 312, 313, 314, 315, 316, 317, 318, 319, 320, 321, 322, 323, 324, 325, 326, 327, 328, 329, 330, 331, 332, 333, 334, 335, 336, 337, 338, 339, 340, 341, 342, 343, 344, 345, 346, 347, 348, 349, 350, 351, 352, 353, 354, 355, 356, 357, 358, 359, 360, 361, 362, 363, 364, 365, 366, 367, 368, 369, 370, 371, 372, 373, 374, 375, 376, 377, 378, 379, 380, 381, 382, 383, 384, 385, 386, 387, 388, 389, 390, 391, 392, 393, 394, 395, 396, 397, 398, 399, 400, 401, 402, 403, 404, 405, 406, 407, 408, 409, 410, 411, 412, 413, 414, 415, 416, 417, 418, 419, 420, 421, 422, 423, 424, 425, 426, 427, 428, 429, 430, 431, 432, 433, 434, 435, 436, 437, 438, 439, 440, 441, 442, 443, 444, 445, 446, 447, 448, 449, 450, 451, 452, 453, 454, 455, 456, 457, 458, 459, 460, 461, 462, 463, 464, 465, 466, 467, 468, 469, 470, 471, 472, 473, 474, 475, 476, 477, 478, 479, 480, 481, 482, 483, 484, 485, 486, 487, 488, 489, 490, 491, 492, 493, 494, 495, 496, 497, 498, 499, 500, 501, 502, 503, 504, 505, 506, 507, 508, 509, 510, 511, 512, 513, 514, 515, 516, 517, 518, 519, 520, 521, 522, 523, 524, 525, 526, 527, 528, 529, 530, 531, 532, 533, 534, 535, 536, 537, 538, 539, 540, 541, 542, 543, 544, 545, 546, 547, 548, 549, 550, 551, 552, 553, 554, 555, 556, 557, 558, 559, 560, 561, 562, 563, 564, 565, 566, 567, 568, 569, 570, 571, 572, 573, 574, 575, 576, 577, 578, 579, 580, 581],
      "AcquisitionTime": ["160313.690000", "160314.477500", "160315.265000", "160316.052500", "160316.842500", "160317.630000", "160318.417500", "160319.207500", "160319.995000", "160320.782500", "160321.570000", "160322.360000", "160323.147500", "160323.935000", "160324.722500", "160325.512500", "160326.300000", "160327.087500", "160327.875000", "160328.665000", "160329.452500", "160330.240000", "160331.027500", "160331.817500", "160332.605000", "160333.392500", "160334.180000", "160334.970000", "160335.757500", "160336.545000", "160337.335000", "160338.122500", "160338.910000", "160339.697500", "160340.487500", "160341.275000", "160342.062500", "160342.850000", "160343.640000", "160344.427500", "160345.215000", "160346.002500", "160346.792500", "160347.580000", "160348.367500", "160349.155000", "160349.945000", "160350.732500", "160351.520000", "160352.307500", "160353.097500", "160353.885000", "160354.672500", "160355.462500", "160356.250000", "160357.037500", "160357.825000", "160358.615000", "160359.402500", "160400.190000", "160400.977500", "160401.767500", "160402.555000", "160403.342500", "160404.130000", "160404.920000", "160405.707500", "160406.495000", "160407.282500", "160408.072500", "160408.860000", "160409.647500", "160410.437500", "160411.225000", "160412.012500", "160412.800000", "160413.590000", "160414.377500", "160415.165000", "160415.952500", "160416.742500", "160417.530000", "160418.317500", "160419.105000", "160419.895000", "160420.682500", "160421.470000", "160422.257500", "160423.047500", "160423.835000", "160424.622500", "160425.410000", "160426.200000", "160426.987500", "160427.775000", "160428.565000", "160429.352500", "160430.140000", "160430.927500", "160431.717500", "160432.505000", "160433.292500", "160434.080000", "160434.870000", "160435.657500", "160436.445000", "160437.232500", "160438.022500", "160438.810000", "160439.597500", "160440.385000", "160441.175000", "160441.962500", "160442.750000", "160443.537500", "160444.327500", "160445.115000", "160445.902500", "160446.692500", "160447.480000", "160448.267500", "160449.055000", "160449.845000", "160450.632500", "160451.420000", "160452.207500", "160452.997500", "160453.785000", "160454.572500", "160455.360000", "160456.150000", "160456.937500", "160457.725000", "160458.512500", "160459.302500", "160500.090000", "160500.877500", "160501.665000", "160502.455000", "160503.242500", "160504.030000", "160504.820000", "160505.607500", "160506.395000", "160507.182500", "160507.972500", "160508.760000", "160509.547500", "160510.335000", "160511.125000", "160511.912500", "160512.700000", "160513.487500", "160514.277500", "160515.065000", "160515.852500", "160516.640000", "160517.430000", "160518.217500", "160519.005000", "160519.792500", "160520.582500", "160521.370000", "160522.157500", "160522.947500", "160523.735000", "160524.522500", "160525.310000", "160526.100000", "160526.887500", "160527.675000", "160528.462500", "160529.252500", "160530.040000", "160530.827500", "160531.615000", "160532.405000", "160533.192500", "160533.980000", "160534.767500", "160535.557500", "160536.345000", "160537.132500", "160537.920000", "160538.710000", "160539.497500", "160540.285000", "160541.075000", "160541.862500", "160542.650000", "160543.437500", "160544.227500", "160545.015000", "160545.802500", "160546.590000", "160547.380000", "160548.167500", "160548.955000", "160549.742500", "160550.532500", "160551.320000", "160552.107500", "160552.895000", "160553.685000", "160554.472500", "160555.260000", "160556.047500", "160556.837500", "160557.625000", "160558.412500", "160559.202500", "160559.990000", "160600.777500", "160601.565000", "160602.355000", "160603.142500", "160603.930000", "160604.717500", "160605.507500", "160606.295000", "160607.082500", "160607.870000", "160608.660000", "160609.447500", "160610.235000", "160611.022500", "160611.812500", "160612.600000", "160613.387500", "160614.175000", "160614.965000", "160615.752500", "160616.540000", "160617.330000", "160618.117500", "160618.905000", "160619.692500", "160620.482500", "160621.270000", "160622.057500", "160622.845000", "160623.635000", "160624.422500", "160625.210000", "160625.997500", "160626.787500", "160627.575000", "160628.362500", "160629.150000", "160629.940000", "160630.727500", "160631.515000", "160632.302500", "160633.092500", "160633.880000", "160634.667500", "160635.457500", "160636.245000", "160637.032500", "160637.820000", "160638.610000", "160639.397500", "160640.185000", "160640.972500", "160641.762500", "160642.550000", "160643.337500", "160644.125000", "160644.915000", "160645.702500", "160646.490000", "160647.277500", "160648.067500", "160648.855000", "160649.642500", "160650.430000", "160651.220000", "160652.007500", "160652.795000", "160653.585000", "160654.372500", "160655.160000", "160655.947500", "160656.737500", "160657.525000", "160658.312500", "160659.100000", "160659.890000", "160700.677500", "160701.465000", "160702.252500", "160703.042500", "160703.830000", "160704.617500", "160705.405000", "160706.195000", "160706.982500", "160707.770000", "160708.557500", "160709.347500", "160710.135000", "160710.922500", "160711.712500", "160712.500000", "160713.287500", "160714.075000", "160714.865000", "160715.652500", "160716.440000", "160717.227500", "160718.017500", "160718.805000", "160719.592500", "160720.380000", "160721.170000", "160721.957500", "160722.745000", "160723.532500", "160724.322500", "160725.110000", "160725.897500", "160726.687500", "160727.475000", "160728.262500", "160729.050000", "160729.840000", "160730.627500", "160731.415000", "160732.202500", "160732.992500", "160733.780000", "160734.567500", "160735.355000", "160736.145000", "160736.932500", "160737.720000", "160738.507500", "160739.297500", "160740.085000", "160740.872500", "160741.660000", "160742.450000", "160743.237500", "160744.025000", "160744.815000", "160745.602500", "160746.390000", "160747.177500", "160747.967500", "160748.755000", "160749.542500", "160750.330000", "160751.120000", "160751.907500", "160752.695000", "160753.482500", "160754.272500", "160755.060000", "160755.847500", "160756.635000", "160757.425000", "160758.212500", "160759.000000", "160759.787500", "160800.577500", "160801.365000", "160802.152500", "160802.942500", "160803.730000", "160804.517500", "160805.305000", "160806.095000", "160806.882500", "160807.670000", "160808.457500", "160809.247500", "160810.035000", "160810.822500", "160811.610000", "160812.400000", "160813.187500", "160813.975000", "160814.762500", "160815.552500", "160816.340000", "160817.127500", "160817.915000", "160818.705000", "160819.492500", "160820.280000", "160821.070000", "160821.857500", "160822.645000", "160823.432500", "160824.222500", "160825.010000", "160825.797500", "160826.585000", "160827.375000", "160828.162500", "160828.950000", "160829.737500", "160830.527500", "160831.315000", "160832.102500", "160832.890000", "160833.680000", "160834.467500", "160835.255000", "160836.042500", "160836.832500", "160837.620000", "160838.407500", "160839.197500", "160839.985000", "160840.772500", "160841.560000", "160842.350000", "160843.137500", "160843.925000", "160844.712500", "160845.502500", "160846.290000", "160847.077500", "160847.865000", "160848.655000", "160849.442500", "160850.230000", "160851.017500", "160851.807500", "160852.595000", "160853.382500", "160854.170000", "160854.960000", "160855.747500", "160856.535000", "160857.325000", "160858.112500", "160858.900000", "160859.687500", "160900.477500", "160901.265000", "160902.052500", "160902.840000", "160903.630000", "160904.417500", "160905.205000", "160905.992500", "160906.782500", "160907.570000", "160908.357500", "160909.145000", "160909.935000", "160910.722500", "160911.510000", "160912.297500", "160913.087500", "160913.875000", "160914.662500", "160915.452500", "160916.240000", "160917.027500", "160917.815000", "160918.605000", "160919.392500", "160920.180000", "160920.967500", "160921.757500", "160922.545000", "160923.332500", "160924.120000", "160924.910000", "160925.697500", "160926.485000", "160927.272500", "160928.062500", "160928.850000", "160929.637500", "160930.425000", "160931.215000", "160932.002500", "160932.790000", "160933.580000", "160934.367500", "160935.155000", "160935.942500", "160936.732500", "160937.520000", "160938.307500", "160939.095000", "160939.885000", "160940.672500", "160941.460000", "160942.247500", "160943.037500", "160943.825000", "160944.612500", "160945.400000", "160946.190000", "160946.977500", "160947.765000", "160948.552500", "160949.342500", "160950.130000", "160950.917500", "160951.707500", "160952.495000", "160953.282500", "160954.070000", "160954.860000", "160955.647500", "160956.435000", "160957.222500", "160958.012500", "160958.800000", "160959.587500", "161000.375000", "161001.165000", "161001.952500", "161002.740000", "161003.527500", "161004.317500", "161005.105000", "161005.892500", "161006.680000", "161007.470000", "161008.257500", "161009.045000", "161009.835000", "161010.622500", "161011.410000", "161012.197500", "161012.987500", "161013.775000", "161014.562500", "161015.350000", "161016.140000", "161016.927500", "161017.715000", "161018.502500", "161019.292500", "161020.080000", "161020.867500", "161021.655000", "161022.445000", "161023.232500", "161024.020000", "161024.807500", "161025.597500", "161026.385000", "161027.172500", "161027.962500", "161028.750000", "161029.537500", "161030.325000", "161031.115000", "161031.902500", "161032.690000", "161033.477500", "161034.267500", "161035.055000", "161035.842500", "161036.630000", "161037.420000", "161038.207500", "161038.995000", "161039.782500", "161040.572500", "161041.360000", "161042.147500", "161042.937500", "161043.725000", "161044.512500", "161045.300000", "161046.090000", "161046.877500", "161047.665000", "161048.452500", "161049.242500", "161050.030000", "161050.817500"],
      "ContentTime": ["160345.968000", "160345.968000", "160345.968000", "160345.968000", "160345.968000", "160345.984000", "160345.984000", "160345.984000", "160345.984000", "160345.984000", "160346.000000", "160346.000000", "160346.000000", "160346.000000", "160346.015000", "160346.015000", "160346.015000", "160346.015000", "160346.015000", "160346.015000", "160346.031000", "160346.031000", "160346.031000", "160346.031000", "160346.031000", "160346.031000", "160346.031000", "160346.046000", "160346.046000", "160346.046000", "160346.046000", "160346.046000", "160346.046000", "160346.046000", "160346.062000", "160346.062000", "160346.062000", "160346.062000", "160346.062000", "160405.937000", "160405.953000", "160405.953000", "160405.953000", "160405.953000", "160405.953000", "160405.953000", "160405.953000", "160405.968000", "160405.968000", "160405.968000", "160405.968000", "160405.968000", "160405.968000", "160405.968000", "160405.984000", "160405.984000", "160405.984000", "160405.984000", "160405.984000", "160405.984000", "160405.984000", "160406.000000", "160406.000000", "160406.000000", "160425.937000", "160425.953000", "160425.953000", "160425.953000", "160425.953000", "160425.953000", "160425.953000", "160425.953000", "160425.968000", "160425.968000", "160425.968000", "160425.968000", "160425.968000", "160425.968000", "160425.968000", "160425.984000", "160425.984000", "160425.984000", "160425.984000", "160425.984000", "160425.984000", "160426.000000", "160426.000000", "160426.000000", "160426.000000", "160426.000000", "160445.937000", "160445.953000", "160445.953000", "160445.953000", "160445.953000", "160445.953000", "160445.953000", "160445.953000", "160445.968000", "160445.968000", "160445.968000", "160445.968000", "160445.968000", "160445.984000", "160445.984000", "160445.984000", "160445.984000", "160445.984000", "160446.000000", "160446.000000", "160446.000000", "160446.000000", "160446.000000", "160446.000000", "160446.000000", "160505.937000", "160505.953000", "160505.953000", "160505.953000", "160505.953000", "160505.953000", "160505.953000", "160505.953000", "160505.968000", "160505.968000", "160505.968000", "160505.968000", "160505.968000", "160505.968000", "160505.968000", "160505.984000", "160505.984000", "160505.984000", "160505.984000", "160505.984000", "160505.984000", "160505.984000", "160506.000000", "160506.000000", "160506.000000", "160506.000000", "160525.937000", "160525.953000", "160525.953000", "160525.953000", "160525.953000", "160525.953000", "160525.953000", "160525.953000", "160525.968000", "160525.968000", "160525.968000", "160525.968000", "160525.968000", "160525.968000", "160525.968000", "160525.984000", "160525.984000", "160525.984000", "160525.984000", "160525.984000", "160525.984000", "160525.984000", "160526.000000", "160526.000000", "160526.000000", "160545.937000", "160545.953000", "160545.953000", "160545.953000", "160545.953000", "160545.953000", "160545.953000", "160545.953000", "160545.968000", "160545.968000", "160545.968000", "160545.968000", "160545.968000", "160545.968000", "160545.968000", "160545.984000", "160545.984000", "160545.984000", "160545.984000", "160545.984000", "160545.984000", "160545.984000", "160546.000000", "160546.000000", "160546.000000", "160546.000000", "160605.937000", "160605.953000", "160605.953000", "160605.953000", "160605.953000", "160605.953000", "160605.953000", "160605.953000", "160605.968000", "160605.968000", "160605.968000", "160605.968000", "160605.968000", "160605.968000", "160605.968000", "160605.984000", "160605.984000", "160605.984000", "160605.984000", "160605.984000", "160605.984000", "160606.000000", "160606.000000", "160606.000000", "160606.000000", "160625.937000", "160625.953000", "160625.953000", "160625.953000", "160625.953000", "160625.953000", "160625.953000", "160625.953000", "160625.968000", "160625.968000", "160625.968000", "160625.968000", "160625.968000", "160625.968000", "160625.968000", "160625.984000", "160625.984000", "160625.984000", "160625.984000", "160625.984000", "160625.984000", "160625.984000", "160626.000000", "160626.000000", "160626.000000", "160626.000000", "160645.937000", "160645.953000", "160645.953000", "160645.953000", "160645.953000", "160645.953000", "160645.953000", "160645.953000", "160645.968000", "160645.968000", "160645.968000", "160645.968000", "160645.968000", "160645.968000", "160645.968000", "160645.984000", "160645.984000", "160645.984000", "160645.984000", "160645.984000", "160645.984000", "160645.984000", "160646.000000", "160646.000000", "160646.000000", "160705.937000", "160705.953000", "160705.953000", "160705.953000", "160705.953000", "160705.953000", "160705.953000", "160705.953000", "160705.968000", "160705.968000", "160705.968000", "160705.968000", "160705.968000", "160705.968000", "160705.968000", "160705.984000", "160705.984000", "160705.984000", "160705.984000", "160705.984000", "160705.984000", "160705.984000", "160706.000000", "160706.000000", "160706.000000", "160706.000000", "160725.937000", "160725.953000", "160725.953000", "160725.953000", "160725.953000", "160725.953000", "160725.953000", "160725.953000", "160725.968000", "160725.968000", "160725.968000", "160725.968000", "160725.968000", "160725.968000", "160725.968000", "160725.984000", "160725.984000", "160725.984000", "160725.984000", "160725.984000", "160725.984000", "160726.000000", "160726.000000", "160726.000000", "160726.000000", "160745.937000", "160745.953000", "160745.953000", "160745.953000", "160745.953000", "160745.953000", "160745.953000", "160745.953000", "160745.968000", "160745.968000", "160745.968000", "160745.968000", "160745.968000", "160745.968000", "160745.968000", "160745.984000", "160745.984000", "160745.984000", "160745.984000", "160745.984000", "160745.984000", "160745.984000", "160746.000000", "160746.000000", "160746.000000", "160746.000000", "160805.937000", "160805.953000", "160805.953000", "160805.953000", "160805.953000", "160805.953000", "160805.953000", "160805.953000", "160805.968000", "160805.968000", "160805.968000", "160805.968000", "160805.968000", "160805.968000", "160805.968000", "160805.984000", "160805.984000", "160805.984000", "160805.984000", "160805.984000", "160805.984000", "160805.984000", "160806.000000", "160806.000000", "160806.000000", "160825.937000", "160825.953000", "160825.953000", "160825.953000", "160825.953000", "160825.953000", "160825.953000", "160825.953000", "160825.968000", "160825.968000", "160825.968000", "160825.968000", "160825.968000", "160825.984000", "160825.984000", "160825.984000", "160825.984000", "160825.984000", "160825.984000", "160825.984000", "160826.000000", "160826.000000", "160826.000000", "160826.000000", "160826.000000", "160826.000000", "160845.937000", "160845.953000", "160845.953000", "160845.953000", "160845.953000", "160845.953000", "160845.968000", "160845.968000", "160845.968000", "160845.968000", "160845.968000", "160845.968000", "160845.968000", "160845.984000", "160845.984000", "160845.984000", "160845.984000", "160845.984000", "160845.984000", "160845.984000", "160846.000000", "160846.000000", "160846.000000", "160846.000000", "160846.000000", "160905.937000", "160905.953000", "160905.953000", "160905.953000", "160905.953000", "160905.953000", "160905.953000", "160905.953000", "160905.968000", "160905.968000", "160905.968000", "160905.968000", "160905.968000", "160905.984000", "160905.984000", "160905.984000", "160905.984000", "160905.984000", "160906.000000", "160906.000000", "160906.000000", "160906.000000", "160906.000000", "160906.000000", "160906.000000", "160906.015000", "160925.937000", "160925.953000", "160925.953000", "160925.953000", "160925.953000", "160925.953000", "160925.953000", "160925.953000", "160925.968000", "160925.968000", "160925.968000", "160925.968000", "160925.968000", "160925.968000", "160925.968000", "160925.984000", "160925.984000", "160925.984000", "160925.984000", "160925.984000", "160925.984000", "160925.984000", "160926.000000", "160926.000000", "160926.000000", "160945.937000", "160945.953000", "160945.953000", "160945.953000", "160945.953000", "160945.953000", "160945.953000", "160945.953000", "160945.968000", "160945.968000", "160945.968000", "160945.968000", "160945.968000", "160945.968000", "160945.968000", "160945.984000", "160945.984000", "160945.984000", "160945.984000", "160945.984000", "160945.984000", "160945.984000", "160946.000000", "160946.000000", "160946.000000", "160946.000000", "161005.937000", "161005.953000", "161005.953000", "161005.953000", "161005.953000", "161005.953000", "161005.953000", "161005.953000", "161005.968000", "161005.968000", "161005.968000", "161005.968000", "161005.968000", "161005.968000", "161005.968000", "161005.984000", "161005.984000", "161005.984000", "161005.984000", "161005.984000", "161006.000000", "161006.000000", "161006.000000", "161006.000000", "161006.000000", "161025.937000", "161025.953000", "161025.953000", "161025.953000", "161025.953000", "161025.968000", "161025.968000", "161025.968000", "161025.968000", "161025.968000", "161025.968000", "161025.984000", "161025.984000", "161025.984000", "161025.984000", "161025.984000", "161025.984000", "161025.984000", "161026.000000", "161026.000000", "161026.000000", "161026.000000", "161026.000000", "161026.000000", "161026.000000", "161045.937000", "161045.953000", "161045.953000", "161045.953000", "161045.953000", "161045.953000", "161045.953000", "161045.953000", "161045.968000", "161045.968000", "161045.968000", "161045.968000", "161045.968000", "161045.968000", "161045.968000", "161045.984000", "161045.984000", "161045.984000", "161045.984000", "161045.984000", "161045.984000", "161045.984000", "161046.000000", "161046.000000", "161046.000000", "161046.000000", "161051.140000", "161051.140000", "161051.156000", "161051.156000", "161051.156000", "161051.156000", "161051.156000"],
      "DataSetTrailingPadding": [
        "\u0000\u0000\u0000\u0000\u0000\u0000\u0000\u0000\u0000\u0000\u0000\u0000\u0000\u0000\u0000\u0000\u0000\u0000\u0000\u0000\u0000\u0000\u0000\u0000\u0000\u0000\u0000\u0000\u0000\u0000\u0000\u0000\u0000\u0000\u0000\u0000\u0000\u0000\u0000\u0000\u0000\u0000\u0000\u0000\u0000\u0000\u0000\u0000\u0000\u0000\u0000\u0000\u0000\u0000\u0000\u0000\u0000\u0000\u0000\u0000\u0000\u0000\u0000\u0000\u0000\u0000\u0000\u0000\u0000\u0000\u0000\u0000\u0000\u0000\u0000\u0000\u0000\u0000\u0000\u0000\u0000\u0000\u0000\u0000\u0000\u0000\u0000\u0000\u0000\u0000\u0000\u0000\u0000\u0000\u0000\u0000\u0000\u0000\u0000\u0000\u0000\u0000\u0000\u0000\u0000\u0000\u0000\u0000\u0000\u0000\u0000\u0000\u0000\u0000\u0000\u0000\u0000\u0000\u0000\u0000\u0000\u0000\u0000\u0000\u0000\u0000\u0000\u0000\u0000\u0000\u0000\u0000\u0000\u0000\u0000\u0000\u0000\u0000\u0000\u0000\u0000\u0000\u0000\u0000\u0000\u0000\u0000\u0000\u0000\u0000\u0000\u0000\u0000\u0000\u0000\u0000\u0000\u0000\u0000\u0000\u0000\u0000\u0000\u0000",
        "\u0000\u0000\u0000\u0000\u0000\u0000\u0000\u0000\u0000\u0000\u0000\u0000\u0000\u0000\u0000\u0000\u0000\u0000\u0000\u0000\u0000\u0000\u0000\u0000\u0000\u0000\u0000\u0000\u0000\u0000\u0000\u0000\u0000\u0000\u0000\u0000\u0000\u0000\u0000\u0000\u0000\u0000\u0000\u0000\u0000\u0000\u0000\u0000\u0000\u0000\u0000\u0000\u0000\u0000\u0000\u0000\u0000\u0000\u0000\u0000\u0000\u0000\u0000\u0000\u0000\u0000\u0000\u0000\u0000\u0000\u0000\u0000\u0000\u0000\u0000\u0000\u0000\u0000\u0000\u0000\u0000\u0000\u0000\u0000\u0000\u0000\u0000\u0000\u0000\u0000\u0000\u0000\u0000\u0000\u0000\u0000\u0000\u0000\u0000\u0000\u0000\u0000\u0000\u0000\u0000\u0000\u0000\u0000\u0000\u0000\u0000\u0000\u0000\u0000\u0000\u0000\u0000\u0000\u0000\u0000\u0000\u0000\u0000\u0000\u0000\u0000\u0000\u0000\u0000\u0000\u0000\u0000\u0000\u0000\u0000\u0000\u0000\u0000\u0000\u0000\u0000\u0000\u0000\u0000\u0000\u0000\u0000\u0000\u0000\u0000\u0000\u0000\u0000\u0000\u0000\u0000\u0000\u0000\u0000\u0000",
