{
  "AcquisitionMatrixPE": 104,
  "AcquisitionNumber": 1,
  "AcquisitionTime": "16:19:21.740000",
  "BandwidthPerPixelPhaseEncode": 13.935,
  "BaseResolution": 104,
  "CoilString": "C:HEA;HEP",
  "ConversionSoftware": "dcm2niix",
  "ConversionSoftwareVersion": "v1.0.20210317",
  "DerivedVendorReportedEchoSpacing": 0.000690017,
  "DeviceSerialNumber": "35450",
  "DwellTime": 2.5e-06,
  "EchoTime": 0.0348,
  "EffectiveEchoSpacing": 0.000690017,
  "FlipAngle": 55,
  "ImageComments": "Unaliased MB8/PE3 (remote)",
  "ImageOrientationPatientDICOM": [0.999917, -0.00033762, -0.012896, 2.42565e-08, 0.999658, -0.0261695],
  "ImageType": [
    "ORIGINAL",
    "PRIMARY",
    "M",
    "MB",
    "ND",
    "MOSAIC"
],
  "ImagingFrequency": 123.234,
  "InPlanePhaseEncodingDirectionDICOM": "COL",
  "InstitutionAddress": "Univeristy Ave. 197,Newark,North East,US,07102-1814",
  "InstitutionName": "RUBIC",
  "InstitutionalDepartmentName": "Department",
  "MRAcquisitionType": "2D",
  "MagneticFieldStrength": 3,
  "Manufacturer": "Siemens",
  "ManufacturersModelName": "TrioTim",
  "Modality": "MR",
  "MultibandAccelerationFactor": 8,
  "PartialFourier": 0.875,
  "PatientPosition": "HFS",
  "PercentPhaseFOV": 100,
  "PercentSampling": 100,
  "PhaseEncodingDirection": "j-",
  "PhaseEncodingSteps": 91,
  "PhaseResolution": 1,
  "PixelBandwidth": 1923,
  "ProcedureStepDescription": "Cole^Michael",
  "ProtocolName": "cmrr_mbep2d_bold_2mm_MB8_Task_8x",
  "PulseSequenceDetails": "%CustomerSeq%\\cmrr_mbep2d_bold",
  "ReceiveCoilName": "32Ch_Head",
  "ReconMatrixPE": 104,
  "RepetitionTime": 0.785,
  "SAR": 0.112266,
  "ScanOptions": "PFP\\FS",
  "ScanningSequence": "EP",
  "SequenceName": "epfid2d1_104",
  "SequenceVariant": "SK\\SS",
  "SeriesDescription": "cmrr_mbep2d_bold_2mm_MB8_Task_8x",
  "SeriesNumber": 19,
  "ShimSetting": [2064, -432, -7322, 689, -50, -132, 311, 117],
  "SliceThickness": 2,
  "SliceTiming": [0, 0.4375, 0.0875, 0.525, 0.175, 0.6125, 0.2625, 0.7, 0.35, 0, 0.4375, 0.0875, 0.525, 0.175, 0.6125, 0.2625, 0.7, 0.35, 0, 0.4375, 0.0875, 0.525, 0.175, 0.6125, 0.2625, 0.7, 0.35, 0, 0.4375, 0.0875, 0.525, 0.175, 0.6125, 0.2625, 0.7, 0.35, 0, 0.4375, 0.0875, 0.525, 0.175, 0.6125, 0.2625, 0.7, 0.35, 0, 0.4375, 0.0875, 0.525, 0.175, 0.6125, 0.2625, 0.7, 0.35, 0, 0.4375, 0.0875, 0.525, 0.175, 0.6125, 0.2625, 0.7, 0.35, 0, 0.4375, 0.0875, 0.525, 0.175, 0.6125, 0.2625, 0.7, 0.35],
  "SoftwareVersions": "syngo MR B19",
  "SpacingBetweenSlices": 2,
  "StationName": "MRC35450",
  "TaskName": "cpro",
  "TotalReadoutTime": 0.0710717,
  "TxRefAmp": 313.071,
  "dcmmeta_affine": [
    [-1.999833583831787, 4.851301937947028e-08, -0.02580077387392521, 104.28946685791016],
    [0.0006752407061867416, 1.9993150234222412, -0.052334558218717575, -84.8324203491211],
    [-0.025791935622692108, 0.05233891308307648, 1.9991487264633179, -83.8442153930664],
    [0.0, 0.0, 0.0, 1.0]
],
  "dcmmeta_reorient_transform": [
    [0.0, -1.0, 0.0, 103.0],
    [1.0, 0.0, 0.0, 0.0],
    [0.0, 0.0, 1.0, 0.0],
    [0.0, 0.0, 0.0, 1.0]
],
  "dcmmeta_shape": [104, 104, 72, 581],
  "dcmmeta_slice_dim": 2,
  "dcmmeta_version": 0.6,
  "global": {
    "const": {
      "AcquisitionMatrix": [104, 0, 0, 104],
      "AngioFlag": "N",
      "BitsAllocated": 16,
      "BitsStored": 12,
      "Columns": 936,
      "EchoNumbers": 1,
      "EchoTime": 34.8,
      "EchoTrainLength": 1,
      "FlipAngle": 55.0,
      "HighBit": 11,
      "ImageOrientationPatient": [0.99991678654841, -0.0003376203603, -0.0128959680208, 2.4256509e-08, 0.99965752111952, -0.0261694567995],
      "ImagePositionPatient": [-936.22025839229, -952.53118986694, -45.950875649448],
      "ImageType": [
        "ORIGINAL",
        "PRIMARY",
        "M",
        "MB",
        "ND",
        "MOSAIC"
],
      "ImagedNucleus": "1H",
      "ImagingFrequency": 123.234441,
      "InPlanePhaseEncodingDirection": "COL",
      "MRAcquisitionType": "2D",
      "MagneticFieldStrength": 3.0,
      "Manufacturer": "SIEMENS",
      "ManufacturerModelName": "TrioTim",
      "Modality": "MR",
      "NumberOfAverages": 1.0,
      "NumberOfPhaseEncodingSteps": 91,
      "PercentPhaseFieldOfView": 100.0,
      "PercentSampling": 100.0,
      "PerformedProcedureStepStartTime": "144207.140000",
      "PhotometricInterpretation": "MONOCHROME2",
      "PixelBandwidth": 1923.0,
      "PixelRepresentation": 0,
      "PixelSpacing": [2.0, 2.0],
      "ProtocolName": "cmrr_mbep2d_bold_2mm_MB8_Task_8x",
      "RepetitionTime": 785.0,
      "Rows": 936,
      "SAR": 0.11226645213753,
      "SamplesPerPixel": 1,
      "ScanOptions": [
        "PFP",
        "FS"
],
      "ScanningSequence": "EP",
      "SequenceName": "epfid2d1_104",
      "SequenceVariant": [
        "SK",
        "SS"
],
      "SeriesDescription": "cmrr_mbep2d_bold_2mm_MB8_Task_8x",
      "SeriesNumber": 19,
      "SeriesTime": "161944.437000",
      "SliceLocation": -82.934068700058,
      "SliceThickness": 2.0,
      "SmallestImagePixelValue": 0,
      "SoftwareVersions": "syngo MR B19",
      "SpacingBetweenSlices": 2.0000000057387,
      "SpecificCharacterSet": "ISO_IR 100",
      "StudyID": "1",
      "StudyTime": "144207.093000",
      "TransmitCoilName": "Body",
      "VariableFlipAngleFlag": "N",
      "WindowCenterWidthExplanation": "Algo1",
      "dBdt": 0.0},
    "slices": {}
  },
  "time": {
    "samples": {
      "AcquisitionNumber": [1, 2, 3, 4, 5, 6, 7, 8, 9, 10, 11, 12, 13, 14, 15, 16, 17, 18, 19, 20, 21, 22, 23, 24, 25, 26, 27, 28, 29, 30, 31, 32, 33, 34, 35, 36, 37, 38, 39, 40, 41, 42, 43, 44, 45, 46, 47, 48, 49, 50, 51, 52, 53, 54, 55, 56, 57, 58, 59, 60, 61, 62, 63, 64, 65, 66, 67, 68, 69, 70, 71, 72, 73, 74, 75, 76, 77, 78, 79, 80, 81, 82, 83, 84, 85, 86, 87, 88, 89, 90, 91, 92, 93, 94, 95, 96, 97, 98, 99, 100, 101, 102, 103, 104, 105, 106, 107, 108, 109, 110, 111, 112, 113, 114, 115, 116, 117, 118, 119, 120, 121, 122, 123, 124, 125, 126, 127, 128, 129, 130, 131, 132, 133, 134, 135, 136, 137, 138, 139, 140, 141, 142, 143, 144, 145, 146, 147, 148, 149, 150, 151, 152, 153, 154, 155, 156, 157, 158, 159, 160, 161, 162, 163, 164, 165, 166, 167, 168, 169, 170, 171, 172, 173, 174, 175, 176, 177, 178, 179, 180, 181, 182, 183, 184, 185, 186, 187, 188, 189, 190, 191, 192, 193, 194, 195, 196, 197, 198, 199, 200, 201, 202, 203, 204, 205, 206, 207, 208, 209, 210, 211, 212, 213, 214, 215, 216, 217, 218, 219, 220, 221, 222, 223, 224, 225, 226, 227, 228, 229, 230, 231, 232, 233, 234, 235, 236, 237, 238, 239, 240, 241, 242, 243, 244, 245, 246, 247, 248, 249, 250, 251, 252, 253, 254, 255, 256, 257, 258, 259, 260, 261, 262, 263, 264, 265, 266, 267, 268, 269, 270, 271, 272, 273, 274, 275, 276, 277, 278, 279, 280, 281, 282, 283, 284, 285, 286, 287, 288, 289, 290, 291, 292, 293, 294, 295, 296, 297, 298, 299, 300, 301, 302, 303, 304, 305, 306, 307, 308, 309, 310, 311, 312, 313, 314, 315, 316, 317, 318, 319, 320, 321, 322, 323, 324, 325, 326, 327, 328, 329, 330, 331, 332, 333, 334, 335, 336, 337, 338, 339, 340, 341, 342, 343, 344, 345, 346, 347, 348, 349, 350, 351, 352, 353, 354, 355, 356, 357, 358, 359, 360, 361, 362, 363, 364, 365, 366, 367, 368, 369, 370, 371, 372, 373, 374, 375, 376, 377, 378, 379, 380, 381, 382, 383, 384, 385, 386, 387, 388, 389, 390, 391, 392, 393, 394, 395, 396, 397, 398, 399, 400, 401, 402, 403, 404, 405, 406, 407, 408, 409, 410, 411, 412, 413, 414, 415, 416, 417, 418, 419, 420, 421, 422, 423, 424, 425, 426, 427, 428, 429, 430, 431, 432, 433, 434, 435, 436, 437, 438, 439, 440, 441, 442, 443, 444, 445, 446, 447, 448, 449, 450, 451, 452, 453, 454, 455, 456, 457, 458, 459, 460, 461, 462, 463, 464, 465, 466, 467, 468, 469, 470, 471, 472, 473, 474, 475, 476, 477, 478, 479, 480, 481, 482, 483, 484, 485, 486, 487, 488, 489, 490, 491, 492, 493, 494, 495, 496, 497, 498, 499, 500, 501, 502, 503, 504, 505, 506, 507, 508, 509, 510, 511, 512, 513, 514, 515, 516, 517, 518, 519, 520, 521, 522, 523, 524, 525, 526, 527, 528, 529, 530, 531, 532, 533, 534, 535, 536, 537, 538, 539, 540, 541, 542, 543, 544, 545, 546, 547, 548, 549, 550, 551, 552, 553, 554, 555, 556, 557, 558, 559, 560, 561, 562, 563, 564, 565, 566, 567, 568, 569, 570, 571, 572, 573, 574, 575, 576, 577, 578, 579, 580, 581],
      "AcquisitionTime": ["161921.740000", "161922.527500", "161923.315000", "161924.105000", "161924.892500", "161925.680000", "161926.467500", "161927.257500", "161928.045000", "161928.832500", "161929.620000", "161930.410000", "161931.197500", "161931.985000", "161932.772500", "161933.562500", "161934.350000", "161935.137500", "161935.925000", "161936.715000", "161937.502500", "161938.290000", "161939.077500", "161939.867500", "161940.655000", "161941.442500", "161942.232500", "161943.020000", "161943.807500", "161944.595000", "161945.385000", "161946.172500", "161946.960000", "161947.747500", "161948.537500", "161949.325000", "161950.112500", "161950.900000", "161951.690000", "161952.477500", "161953.265000", "161954.052500", "161954.842500", "161955.630000", "161956.417500", "161957.205000", "161957.995000", "161958.782500", "161959.570000", "162000.360000", "162001.147500", "162001.935000", "162002.722500", "162003.512500", "162004.300000", "162005.087500", "162005.875000", "162006.665000", "162007.452500", "162008.240000", "162009.027500", "162009.817500", "162010.605000", "162011.392500", "162012.180000", "162012.970000", "162013.757500", "162014.545000", "162015.332500", "162016.122500", "162016.910000", "162017.697500", "162018.487500", "162019.275000", "162020.062500", "162020.850000", "162021.640000", "162022.427500", "162023.215000", "162024.002500", "162024.792500", "162025.580000", "162026.367500", "162027.155000", "162027.945000", "162028.732500", "162029.520000", "162030.307500", "162031.097500", "162031.885000", "162032.672500", "162033.460000", "162034.250000", "162035.037500", "162035.825000", "162036.615000", "162037.402500", "162038.190000", "162038.977500", "162039.767500", "162040.555000", "162041.342500", "162042.130000", "162042.920000", "162043.707500", "162044.495000", "162045.282500", "162046.072500", "162046.860000", "162047.647500", "162048.435000", "162049.225000", "162050.012500", "162050.800000", "162051.587500", "162052.377500", "162053.165000", "162053.952500", "162054.742500", "162055.530000", "162056.317500", "162057.105000", "162057.895000", "162058.682500", "162059.470000", "162100.257500", "162101.047500", "162101.835000", "162102.622500", "162103.410000", "162104.200000", "162104.987500", "162105.775000", "162106.562500", "162107.352500", "162108.140000", "162108.927500", "162109.715000", "162110.505000", "162111.292500", "162112.080000", "162112.870000", "162113.657500", "162114.445000", "162115.232500", "162116.022500", "162116.810000", "162117.597500", "162118.385000", "162119.175000", "162119.962500", "162120.750000", "162121.537500", "162122.327500", "162123.115000", "162123.902500", "162124.690000", "162125.480000", "162126.267500", "162127.055000", "162127.842500", "162128.632500", "162129.420000", "162130.207500", "162130.997500", "162131.785000", "162132.572500", "162133.360000", "162134.150000", "162134.937500", "162135.725000", "162136.512500", "162137.302500", "162138.090000", "162138.877500", "162139.665000", "162140.455000", "162141.242500", "162142.030000", "162142.817500", "162143.607500", "162144.395000", "162145.182500", "162145.970000", "162146.760000", "162147.547500", "162148.335000", "162149.125000", "162149.912500", "162150.700000", "162151.487500", "162152.277500", "162153.065000", "162153.852500", "162154.640000", "162155.430000", "162156.217500", "162157.005000", "162157.792500", "162158.582500", "162159.370000", "162200.157500", "162200.945000", "162201.735000", "162202.522500", "162203.310000", "162204.097500", "162204.887500", "162205.675000", "162206.462500", "162207.252500", "162208.040000", "162208.827500", "162209.615000", "162210.405000", "162211.192500", "162211.980000", "162212.767500", "162213.557500", "162214.345000", "162215.132500", "162215.920000", "162216.710000", "162217.497500", "162218.285000", "162219.072500", "162219.862500", "162220.650000", "162221.437500", "162222.227500", "162223.015000", "162223.802500", "162224.590000", "162225.380000", "162226.167500", "162226.955000", "162227.742500", "162228.532500", "162229.320000", "162230.107500", "162230.895000", "162231.685000", "162232.472500", "162233.260000", "162234.047500", "162234.837500", "162235.625000", "162236.412500", "162237.200000", "162237.990000", "162238.777500", "162239.565000", "162240.355000", "162241.142500", "162241.930000", "162242.717500", "162243.507500", "162244.295000", "162245.082500", "162245.870000", "162246.660000", "162247.447500", "162248.235000", "162249.022500", "162249.812500", "162250.600000", "162251.387500", "162252.175000", "162252.965000", "162253.752500", "162254.540000", "162255.327500", "162256.117500", "162256.905000", "162257.692500", "162258.482500", "162259.270000", "162300.057500", "162300.845000", "162301.635000", "162302.422500", "162303.210000", "162303.997500", "162304.787500", "162305.575000", "162306.362500", "162307.150000", "162307.940000", "162308.727500", "162309.515000", "162310.302500", "162311.092500", "162311.880000", "162312.667500", "162313.455000", "162314.245000", "162315.032500", "162315.820000", "162316.610000", "162317.397500", "162318.185000", "162318.972500", "162319.762500", "162320.550000", "162321.337500", "162322.125000", "162322.915000", "162323.702500", "162324.490000", "162325.277500", "162326.067500", "162326.855000", "162327.642500", "162328.430000", "162329.220000", "162330.007500", "162330.795000", "162331.582500", "162332.372500", "162333.160000", "162333.947500", "162334.737500", "162335.525000", "162336.312500", "162337.100000", "162337.890000", "162338.677500", "162339.465000", "162340.252500", "162341.042500", "162341.830000", "162342.617500", "162343.405000", "162344.195000", "162344.982500", "162345.770000", "162346.557500", "162347.347500", "162348.135000", "162348.922500", "162349.710000", "162350.500000", "162351.287500", "162352.075000", "162352.865000", "162353.652500", "162354.440000", "162355.227500", "162356.017500", "162356.805000", "162357.592500", "162358.380000", "162359.170000", "162359.957500", "162400.745000", "162401.532500", "162402.322500", "162403.110000", "162403.897500", "162404.685000", "162405.475000", "162406.262500", "162407.050000", "162407.837500", "162408.627500", "162409.415000", "162410.202500", "162410.992500", "162411.780000", "162412.567500", "162413.355000", "162414.145000", "162414.932500", "162415.720000", "162416.507500", "162417.297500", "162418.085000", "162418.872500", "162419.660000", "162420.450000", "162421.237500", "162422.025000", "162422.812500", "162423.602500", "162424.390000", "162425.177500", "162425.965000", "162426.755000", "162427.542500", "162428.330000", "162429.120000", "162429.907500", "162430.695000", "162431.482500", "162432.272500", "162433.060000", "162433.847500", "162434.635000", "162435.425000", "162436.212500", "162437.000000", "162437.787500", "162438.577500", "162439.365000", "162440.152500", "162440.940000", "162441.730000", "162442.517500", "162443.305000", "162444.092500", "162444.882500", "162445.670000", "162446.457500", "162447.247500", "162448.035000", "162448.822500", "162449.610000", "162450.400000", "162451.187500", "162451.975000", "162452.762500", "162453.552500", "162454.340000", "162455.127500", "162455.915000", "162456.705000", "162457.492500", "162458.280000", "162459.067500", "162459.857500", "162500.645000", "162501.432500", "162502.220000", "162503.010000", "162503.797500", "162504.585000", "162505.375000", "162506.162500", "162506.950000", "162507.737500", "162508.527500", "162509.315000", "162510.102500", "162510.890000", "162511.680000", "162512.467500", "162513.255000", "162514.042500", "162514.832500", "162515.620000", "162516.407500", "162517.195000", "162517.985000", "162518.772500", "162519.560000", "162520.347500", "162521.137500", "162521.925000", "162522.712500", "162523.502500", "162524.290000", "162525.077500", "162525.865000", "162526.655000", "162527.442500", "162528.230000", "162529.017500", "162529.807500", "162530.595000", "162531.382500", "162532.170000", "162532.960000", "162533.747500", "162534.535000", "162535.322500", "162536.112500", "162536.900000", "162537.687500", "162538.477500", "162539.265000", "162540.052500", "162540.840000", "162541.630000", "162542.417500", "162543.205000", "162543.992500", "162544.782500", "162545.570000", "162546.357500", "162547.145000", "162547.935000", "162548.722500", "162549.510000", "162550.297500", "162551.087500", "162551.875000", "162552.662500", "162553.450000", "162554.240000", "162555.027500", "162555.815000", "162556.605000", "162557.392500", "162558.180000", "162558.967500", "162559.757500", "162600.545000", "162601.332500", "162602.120000", "162602.910000", "162603.697500", "162604.485000", "162605.272500", "162606.062500", "162606.850000", "162607.637500", "162608.425000", "162609.215000", "162610.002500", "162610.790000", "162611.577500", "162612.367500", "162613.155000", "162613.942500", "162614.732500", "162615.520000", "162616.307500", "162617.095000", "162617.885000", "162618.672500", "162619.460000", "162620.247500", "162621.037500", "162621.825000", "162622.612500", "162623.400000", "162624.190000", "162624.977500", "162625.765000", "162626.552500", "162627.342500", "162628.130000", "162628.917500", "162629.705000", "162630.495000", "162631.282500", "162632.070000", "162632.860000", "162633.647500", "162634.435000", "162635.222500", "162636.012500", "162636.800000", "162637.587500", "162638.375000", "162639.165000", "162639.952500", "162640.740000", "162641.527500", "162642.317500", "162643.105000", "162643.892500", "162644.680000", "162645.470000", "162646.257500", "162647.045000", "162647.832500", "162648.622500", "162649.410000", "162650.197500", "162650.987500", "162651.775000", "162652.562500", "162653.350000", "162654.140000", "162654.927500", "162655.715000", "162656.502500", "162657.292500", "162658.080000", "162658.867500"],
      "ContentTime": ["161944.437000", "161944.437000", "161944.437000", "161944.437000", "161944.453000", "161944.453000", "161944.453000", "161944.453000", "161944.453000", "161944.453000", "161944.453000", "161944.468000", "161944.468000", "161944.468000", "161944.468000", "161944.468000", "161944.468000", "161944.484000", "161944.484000", "161944.484000", "161944.484000", "161944.484000", "161944.484000", "161944.500000", "161944.500000", "161944.500000", "162004.406000", "162004.421000", "162004.421000", "162004.421000", "162004.421000", "162004.421000", "162004.421000", "162004.421000", "162004.437000", "162004.437000", "162004.437000", "162004.437000", "162004.437000", "162004.437000", "162004.437000", "162004.453000", "162004.453000", "162004.453000", "162004.453000", "162004.453000", "162004.453000", "162004.453000", "162004.468000", "162004.468000", "162004.468000", "162024.406000", "162024.421000", "162024.421000", "162024.421000", "162024.421000", "162024.421000", "162024.421000", "162024.421000", "162024.437000", "162024.437000", "162024.437000", "162024.437000", "162024.437000", "162024.437000", "162024.453000", "162024.453000", "162024.453000", "162024.453000", "162024.453000", "162024.453000", "162024.468000", "162024.468000", "162024.468000", "162024.468000", "162024.468000", "162024.468000", "162044.406000", "162044.421000", "162044.421000", "162044.421000", "162044.421000", "162044.421000", "162044.421000", "162044.421000", "162044.437000", "162044.437000", "162044.437000", "162044.453000", "162044.453000", "162044.453000", "162044.453000", "162044.453000", "162044.453000", "162044.453000", "162044.468000", "162044.468000", "162044.468000", "162044.468000", "162044.468000", "162044.484000", "162044.484000", "162104.406000", "162104.421000", "162104.421000", "162104.421000", "162104.421000", "162104.421000", "162104.421000", "162104.421000", "162104.437000", "162104.437000", "162104.437000", "162104.437000", "162104.437000", "162104.437000", "162104.437000", "162104.453000", "162104.453000", "162104.453000", "162104.453000", "162104.453000", "162104.453000", "162104.453000", "162104.468000", "162104.468000", "162104.468000", "162104.468000", "162124.406000", "162124.421000", "162124.421000", "162124.421000", "162124.421000", "162124.437000", "162124.437000", "162124.437000", "162124.437000", "162124.453000", "162124.453000", "162124.453000", "162124.453000", "162124.453000", "162124.453000", "162124.453000", "162124.468000", "162124.468000", "162124.468000", "162124.468000", "162124.468000", "162124.468000", "162124.468000", "162124.484000", "162124.484000", "162144.406000", "162144.421000", "162144.421000", "162144.421000", "162144.421000", "162144.421000", "162144.421000", "162144.421000", "162144.437000", "162144.437000", "162144.437000", "162144.437000", "162144.437000", "162144.437000", "162144.437000", "162144.453000", "162144.453000", "162144.453000", "162144.453000", "162144.453000", "162144.453000", "162144.453000", "162144.468000", "162144.468000", "162144.468000", "162144.468000", "162204.406000", "162204.421000", "162204.421000", "162204.421000", "162204.421000", "162204.421000", "162204.421000", "162204.421000", "162204.437000", "162204.437000", "162204.437000", "162204.437000", "162204.437000", "162204.437000", "162204.437000", "162204.453000", "162204.453000", "162204.453000", "162204.453000", "162204.453000", "162204.453000", "162204.468000", "162204.468000", "162204.468000", "162204.468000", "162224.406000", "162224.421000", "162224.421000", "162224.421000", "162224.421000", "162224.421000", "162224.421000", "162224.421000", "162224.437000", "162224.437000", "162224.437000", "162224.437000", "162224.437000", "162224.453000", "162224.453000", "162224.453000", "162224.453000", "162224.453000", "162224.453000", "162224.453000", "162224.468000", "162224.468000", "162224.468000", "162224.468000", "162224.468000", "162224.484000", "162244.406000", "162244.421000", "162244.421000", "162244.421000", "162244.421000", "162244.421000", "162244.421000", "162244.421000", "162244.437000", "162244.437000", "162244.437000", "162244.437000", "162244.437000", "162244.437000", "162244.437000", "162244.453000", "162244.453000", "162244.453000", "162244.453000", "162244.453000", "162244.453000", "162244.453000", "162244.453000", "162244.468000", "162244.468000", "162304.406000", "162304.421000", "162304.421000", "162304.421000", "162304.421000", "162304.421000", "162304.421000", "162304.421000", "162304.437000", "162304.437000", "162304.437000", "162304.437000", "162304.437000", "162304.437000", "162304.437000", "162304.453000", "162304.453000", "162304.453000", "162304.453000", "162304.453000", "162304.453000", "162304.453000", "162304.468000", "162304.468000", "162304.468000", "162304.468000", "162324.406000", "162324.421000", "162324.421000", "162324.421000", "162324.421000", "162324.421000", "162324.421000", "162324.421000", "162324.437000", "162324.437000", "162324.437000", "162324.437000", "162324.437000", "162324.437000", "162324.437000", "162324.453000", "162324.453000", "162324.453000", "162324.453000", "162324.453000", "162324.453000", "162324.453000", "162324.468000", "162324.468000", "162324.468000", "162344.406000", "162344.421000", "162344.421000", "162344.421000", "162344.421000", "162344.421000", "162344.421000", "162344.421000", "162344.437000", "162344.437000", "162344.437000", "162344.437000", "162344.437000", "162344.437000", "162344.437000", "162344.453000", "162344.453000", "162344.453000", "162344.453000", "162344.453000", "162344.468000", "162344.468000", "162344.468000", "162344.468000", "162344.468000", "162344.468000", "162404.406000", "162404.421000", "162404.421000", "162404.421000", "162404.421000", "162404.421000", "162404.421000", "162404.421000", "162404.437000", "162404.437000", "162404.437000", "162404.437000", "162404.437000", "162404.437000", "162404.453000", "162404.453000", "162404.453000", "162404.453000", "162404.453000", "162404.453000", "162404.453000", "162404.468000", "162404.468000", "162404.468000", "162404.468000", "162424.406000", "162424.421000", "162424.421000", "162424.421000", "162424.421000", "162424.421000", "162424.421000", "162424.421000", "162424.437000", "162424.437000", "162424.437000", "162424.437000", "162424.437000", "162424.437000", "162424.437000", "162424.453000", "162424.453000", "162424.453000", "162424.453000", "162424.453000", "162424.453000", "162424.453000", "162424.468000", "162424.468000", "162424.468000", "162424.468000", "162444.406000", "162444.421000", "162444.421000", "162444.421000", "162444.421000", "162444.421000", "162444.421000", "162444.421000", "162444.437000", "162444.437000", "162444.437000", "162444.437000", "162444.437000", "162444.453000", "162444.453000", "162444.453000", "162444.453000", "162444.453000", "162444.453000", "162444.468000", "162444.468000", "162444.468000", "162444.468000", "162444.468000", "162444.468000", "162504.406000", "162504.421000", "162504.421000", "162504.421000", "162504.421000", "162504.421000", "162504.421000", "162504.421000", "162504.437000", "162504.437000", "162504.437000", "162504.437000", "162504.437000", "162504.437000", "162504.437000", "162504.453000", "162504.453000", "162504.453000", "162504.453000", "162504.453000", "162504.453000", "162504.453000", "162504.468000", "162504.468000", "162504.468000", "162504.468000", "162524.406000", "162524.421000", "162524.421000", "162524.421000", "162524.421000", "162524.421000", "162524.421000", "162524.421000", "162524.437000", "162524.437000", "162524.437000", "162524.437000", "162524.437000", "162524.437000", "162524.437000", "162524.453000", "162524.453000", "162524.453000", "162524.453000", "162524.453000", "162524.453000", "162524.453000", "162524.468000", "162524.468000", "162524.468000", "162544.406000", "162544.421000", "162544.421000", "162544.421000", "162544.421000", "162544.421000", "162544.421000", "162544.421000", "162544.437000", "162544.437000", "162544.437000", "162544.437000", "162544.437000", "162544.437000", "162544.437000", "162544.453000", "162544.453000", "162544.453000", "162544.453000", "162544.453000", "162544.453000", "162544.453000", "162544.468000", "162544.468000", "162544.468000", "162544.468000", "162604.406000", "162604.421000", "162604.421000", "162604.421000", "162604.421000", "162604.421000", "162604.421000", "162604.421000", "162604.437000", "162604.437000", "162604.437000", "162604.437000", "162604.437000", "162604.453000", "162604.453000", "162604.453000", "162604.453000", "162604.453000", "162604.453000", "162604.453000", "162604.468000", "162604.468000", "162604.468000", "162604.468000", "162604.468000", "162624.406000", "162624.421000", "162624.421000", "162624.421000", "162624.421000", "162624.421000", "162624.437000", "162624.437000", "162624.437000", "162624.437000", "162624.437000", "162624.437000", "162624.437000", "162624.453000", "162624.453000", "162624.453000", "162624.453000", "162624.468000", "162624.468000", "162624.468000", "162624.468000", "162624.468000", "162624.468000", "162624.468000", "162624.484000", "162624.484000", "162644.406000", "162644.421000", "162644.421000", "162644.421000", "162644.421000", "162644.421000", "162644.421000", "162644.421000", "162644.437000", "162644.437000", "162644.437000", "162644.437000", "162644.437000", "162644.437000", "162644.437000", "162644.453000", "162644.453000", "162644.453000", "162644.453000", "162644.453000", "162644.468000", "162644.468000", "162644.468000", "162644.468000", "162644.468000", "162659.765000", "162659.765000", "162659.781000", "162659.781000", "162659.781000", "162659.781000", "162659.781000", "162659.781000", "162659.781000", "162659.796000", "162659.796000", "162659.796000", "162659.796000", "162659.796000", "162659.796000", "162659.796000", "162659.812000", "162659.812000", "162659.812000", "162659.812000"],
      "DataSetTrailingPadding": [
        "\u0000\u0000\u0000\u0000\u0000\u0000\u0000\u0000\u0000\u0000\u0000\u0000\u0000\u0000\u0000\u0000\u0000\u0000\u0000\u0000\u0000\u0000\u0000\u0000\u0000\u0000\u0000\u0000\u0000\u0000\u0000\u0000\u0000\u0000\u0000\u0000\u0000\u0000\u0000\u0000\u0000\u0000\u0000\u0000\u0000\u0000\u0000\u0000\u0000\u0000\u0000\u0000\u0000\u0000\u0000\u0000\u0000\u0000\u0000\u0000\u0000\u0000\u0000\u0000\u0000\u0000\u0000\u0000\u0000\u0000\u0000\u0000\u0000\u0000\u0000\u0000\u0000\u0000\u0000\u0000\u0000\u0000\u0000\u0000\u0000\u0000\u0000\u0000\u0000\u0000\u0000\u0000\u0000\u0000\u0000\u0000\u0000\u0000\u0000\u0000\u0000\u0000\u0000\u0000\u0000\u0000\u0000\u0000\u0000\u0000\u0000\u0000\u0000\u0000\u0000\u0000\u0000\u0000\u0000\u0000\u0000\u0000\u0000\u0000\u0000\u0000\u0000\u0000\u0000\u0000\u0000\u0000\u0000\u0000\u0000\u0000\u0000\u0000\u0000\u0000\u0000\u0000\u0000\u0000\u0000\u0000\u0000\u0000\u0000\u0000\u0000\u0000\u0000\u0000\u0000\u0000\u0000\u0000\u0000\u0000\u0000\u0000",
        "\u0000\u0000\u0000\u0000\u0000\u0000\u0000\u0000\u0000\u0000\u0000\u0000\u0000\u0000\u0000\u0000\u0000\u0000\u0000\u0000\u0000\u0000\u0000\u0000\u0000\u0000\u0000\u0000\u0000\u0000\u0000\u0000\u0000\u0000\u0000\u0000\u0000\u0000\u0000\u0000\u0000\u0000\u0000\u0000\u0000\u0000\u0000\u0000\u0000\u0000\u0000\u0000\u0000\u0000\u0000\u0000\u0000\u0000\u0000\u0000\u0000\u0000\u0000\u0000\u0000\u0000\u0000\u0000\u0000\u0000\u0000\u0000\u0000\u0000\u0000\u0000\u0000\u0000\u0000\u0000\u0000\u0000\u0000\u0000\u0000\u0000\u0000\u0000\u0000\u0000\u0000\u0000\u0000\u0000\u0000\u0000\u0000\u0000\u0000\u0000\u0000\u0000\u0000\u0000\u0000\u0000\u0000\u0000\u0000\u0000\u0000\u0000\u0000\u0000\u0000\u0000\u0000\u0000\u0000\u0000\u0000\u0000\u0000\u0000\u0000\u0000\u0000\u0000\u0000\u0000\u0000\u0000\u0000\u0000\u0000\u0000\u0000\u0000\u0000\u0000\u0000\u0000\u0000\u0000\u0000\u0000\u0000\u0000\u0000\u0000\u0000\u0000\u0000\u0000\u0000\u0000\u0000\u0000\u0000\u0000\u0000\u0000",
