{
  "AcquisitionMatrixPE": 104,
  "AcquisitionNumber": 1,
  "AcquisitionTime": "17:14:25.747500",
  "BandwidthPerPixelPhaseEncode": 13.935,
  "BaseResolution": 104,
  "CoilString": "C:HEA;HEP",
  "ConversionSoftware": "dcm2niix",
  "ConversionSoftwareVersion": "v1.0.20210317",
  "DerivedVendorReportedEchoSpacing": 0.000690017,
  "DeviceSerialNumber": "35450",
  "DwellTime": 2.5e-06,
  "EchoTime": 0.0348,
  "EffectiveEchoSpacing": 0.000690017,
  "FlipAngle": 55,
  "ImageComments": "Unaliased MB8/PE3 (remote)",
  "ImageOrientationPatientDICOM": [1, 0, 0, 0, 0.999507, -0.0314108],
  "ImageType": [
    "ORIGINAL",
    "PRIMARY",
    "M",
    "MB",
    "ND",
    "MOSAIC"
],
  "ImagingFrequency": 123.234,
  "InPlanePhaseEncodingDirectionDICOM": "COL",
  "InstitutionAddress": "Univeristy Ave. 197,Newark,North East,US,07102-1814",
  "InstitutionName": "RUBIC",
  "InstitutionalDepartmentName": "Department",
  "MRAcquisitionType": "2D",
  "MagneticFieldStrength": 3,
  "Manufacturer": "Siemens",
  "ManufacturersModelName": "TrioTim",
  "Modality": "MR",
  "MultibandAccelerationFactor": 8,
  "PartialFourier": 0.875,
  "PatientPosition": "HFS",
  "PercentPhaseFOV": 100,
  "PercentSampling": 100,
  "PhaseEncodingDirection": "j-",
  "PhaseEncodingSteps": 91,
  "PhaseResolution": 1,
  "PixelBandwidth": 1923,
  "ProcedureStepDescription": "Cole^Michael",
  "ProtocolName": "cmrr_mbep2d_bold_2mm_MB8_Task_8x",
  "PulseSequenceDetails": "%CustomerSeq%\\cmrr_mbep2d_bold",
  "ReceiveCoilName": "32Ch_Head",
  "ReconMatrixPE": 104,
  "RepetitionTime": 0.785,
  "SAR": 0.115626,
  "ScanOptions": "PFP\\FS",
  "ScanningSequence": "EP",
  "SequenceName": "epfid2d1_104",
  "SequenceVariant": "SK\\SS",
  "SeriesDescription": "cmrr_mbep2d_bold_2mm_MB8_Task_8x",
  "SeriesNumber": 27,
  "ShimSetting": [2064, -282, -7292, 660, -156, -68, -38, 98],
  "SliceThickness": 2,
  "SliceTiming": [0, 0.4375, 0.0875, 0.525, 0.175, 0.6125, 0.2625, 0.7, 0.35, 0, 0.4375, 0.0875, 0.525, 0.175, 0.6125, 0.2625, 0.7, 0.35, 0, 0.4375, 0.0875, 0.525, 0.175, 0.6125, 0.2625, 0.7, 0.35, 0, 0.4375, 0.0875, 0.525, 0.175, 0.6125, 0.2625, 0.7, 0.35, 0, 0.4375, 0.0875, 0.525, 0.175, 0.6125, 0.2625, 0.7, 0.35, 0, 0.4375, 0.0875, 0.525, 0.175, 0.6125, 0.2625, 0.7, 0.35, 0, 0.4375, 0.0875, 0.525, 0.175, 0.6125, 0.2625, 0.7, 0.35, 0, 0.4375, 0.0875, 0.525, 0.175, 0.6125, 0.2625, 0.7, 0.35],
  "SoftwareVersions": "syngo MR B19",
  "SpacingBetweenSlices": 2,
  "StationName": "MRC35450",
  "TaskName": "cpro",
  "TotalReadoutTime": 0.0710717,
  "TxRefAmp": 320.613,
  "dcmmeta_affine": [
    [-2.0, 0.0, 0.0, 104.67796325683594],
    [0.0, 1.999013066291809, -0.06282151490449905, -70.57969665527344],
    [0.0, 0.06282151490449905, 1.999013066291809, -94.56122589111328],
    [0.0, 0.0, 0.0, 1.0]
],
  "dcmmeta_reorient_transform": [
    [0.0, -1.0, 0.0, 103.0],
    [1.0, 0.0, 0.0, 0.0],
    [0.0, 0.0, 1.0, 0.0],
    [0.0, 0.0, 0.0, 1.0]
],
  "dcmmeta_shape": [104, 104, 72, 581],
  "dcmmeta_slice_dim": 2,
  "dcmmeta_version": 0.6,
  "global": {
    "const": {
      "AcquisitionMatrix": [104, 0, 0, 104],
      "AngioFlag": "N",
      "BitsAllocated": 16,
      "BitsStored": 12,
      "Columns": 936,
      "EchoNumbers": 1,
      "EchoTime": 34.8,
      "EchoTrainLength": 1,
      "FlipAngle": 55.0,
      "HighBit": 11,
      "ImageOrientationPatient": [1.0, 0.0, 0.0, 0.0, 0.99950656036366, -0.0314107591441],
      "ImagePositionPatient": [-936.67796611786, -966.90811654409, -61.956859763375],
      "ImageType": [
        "ORIGINAL",
        "PRIMARY",
        "M",
        "MB",
        "ND",
        "MOSAIC"
],
      "ImagedNucleus": "1H",
      "ImagingFrequency": 123.234434,
      "InPlanePhaseEncodingDirection": "COL",
      "MRAcquisitionType": "2D",
      "MagneticFieldStrength": 3.0,
      "Manufacturer": "SIEMENS",
      "ManufacturerModelName": "TrioTim",
      "Modality": "MR",
      "NumberOfAverages": 1.0,
      "NumberOfPhaseEncodingSteps": 91,
      "PercentPhaseFieldOfView": 100.0,
      "PercentSampling": 100.0,
      "PerformedProcedureStepStartTime": "150516.296000",
      "PhotometricInterpretation": "MONOCHROME2",
      "PixelBandwidth": 1923.0,
      "PixelRepresentation": 0,
      "PixelSpacing": [2.0, 2.0],
      "ProtocolName": "cmrr_mbep2d_bold_2mm_MB8_Task_8x",
      "RepetitionTime": 785.0,
      "Rows": 936,
      "SAR": 0.11562550987373,
      "SamplesPerPixel": 1,
      "ScanOptions": [
        "PFP",
        "FS"
],
      "ScanningSequence": "EP",
      "SequenceName": "epfid2d1_104",
      "SequenceVariant": [
        "SK",
        "SS"
],
      "SeriesDescription": "cmrr_mbep2d_bold_2mm_MB8_Task_8x",
      "SeriesNumber": 27,
      "SeriesTime": "171449.546000",
      "SliceLocation": -92.29760575628,
      "SliceThickness": 2.0,
      "SmallestImagePixelValue": 0,
      "SoftwareVersions": "syngo MR B19",
      "SpacingBetweenSlices": 2.0000000006836,
      "SpecificCharacterSet": "ISO_IR 100",
      "StudyID": "1",
      "StudyTime": "150516.265000",
      "TransmitCoilName": "Body",
      "VariableFlipAngleFlag": "N",
      "WindowCenterWidthExplanation": "Algo1",
      "dBdt": 0.0},
    "slices": {}
  },
  "time": {
    "samples": {
      "AcquisitionNumber": [1, 2, 3, 4, 5, 6, 7, 8, 9, 10, 11, 12, 13, 14, 15, 16, 17, 18, 19, 20, 21, 22, 23, 24, 25, 26, 27, 28, 29, 30, 31, 32, 33, 34, 35, 36, 37, 38, 39, 40, 41, 42, 43, 44, 45, 46, 47, 48, 49, 50, 51, 52, 53, 54, 55, 56, 57, 58, 59, 60, 61, 62, 63, 64, 65, 66, 67, 68, 69, 70, 71, 72, 73, 74, 75, 76, 77, 78, 79, 80, 81, 82, 83, 84, 85, 86, 87, 88, 89, 90, 91, 92, 93, 94, 95, 96, 97, 98, 99, 100, 101, 102, 103, 104, 105, 106, 107, 108, 109, 110, 111, 112, 113, 114, 115, 116, 117, 118, 119, 120, 121, 122, 123, 124, 125, 126, 127, 128, 129, 130, 131, 132, 133, 134, 135, 136, 137, 138, 139, 140, 141, 142, 143, 144, 145, 146, 147, 148, 149, 150, 151, 152, 153, 154, 155, 156, 157, 158, 159, 160, 161, 162, 163, 164, 165, 166, 167, 168, 169, 170, 171, 172, 173, 174, 175, 176, 177, 178, 179, 180, 181, 182, 183, 184, 185, 186, 187, 188, 189, 190, 191, 192, 193, 194, 195, 196, 197, 198, 199, 200, 201, 202, 203, 204, 205, 206, 207, 208, 209, 210, 211, 212, 213, 214, 215, 216, 217, 218, 219, 220, 221, 222, 223, 224, 225, 226, 227, 228, 229, 230, 231, 232, 233, 234, 235, 236, 237, 238, 239, 240, 241, 242, 243, 244, 245, 246, 247, 248, 249, 250, 251, 252, 253, 254, 255, 256, 257, 258, 259, 260, 261, 262, 263, 264, 265, 266, 267, 268, 269, 270, 271, 272, 273, 274, 275, 276, 277, 278, 279, 280, 281, 282, 283, 284, 285, 286, 287, 288, 289, 290, 291, 292, 293, 294, 295, 296, 297, 298, 299, 300, 301, 302, 303, 304, 305, 306, 307, 308, 309, 310, 311, 312, 313, 314, 315, 316, 317, 318, 319, 320, 321, 322, 323, 324, 325, 326, 327, 328, 329, 330, 331, 332, 333, 334, 335, 336, 337, 338, 339, 340, 341, 342, 343, 344, 345, 346, 347, 348, 349, 350, 351, 352, 353, 354, 355, 356, 357, 358, 359, 360, 361, 362, 363, 364, 365, 366, 367, 368, 369, 370, 371, 372, 373, 374, 375, 376, 377, 378, 379, 380, 381, 382, 383, 384, 385, 386, 387, 388, 389, 390, 391, 392, 393, 394, 395, 396, 397, 398, 399, 400, 401, 402, 403, 404, 405, 406, 407, 408, 409, 410, 411, 412, 413, 414, 415, 416, 417, 418, 419, 420, 421, 422, 423, 424, 425, 426, 427, 428, 429, 430, 431, 432, 433, 434, 435, 436, 437, 438, 439, 440, 441, 442, 443, 444, 445, 446, 447, 448, 449, 450, 451, 452, 453, 454, 455, 456, 457, 458, 459, 460, 461, 462, 463, 464, 465, 466, 467, 468, 469, 470, 471, 472, 473, 474, 475, 476, 477, 478, 479, 480, 481, 482, 483, 484, 485, 486, 487, 488, 489, 490, 491, 492, 493, 494, 495, 496, 497, 498, 499, 500, 501, 502, 503, 504, 505, 506, 507, 508, 509, 510, 511, 512, 513, 514, 515, 516, 517, 518, 519, 520, 521, 522, 523, 524, 525, 526, 527, 528, 529, 530, 531, 532, 533, 534, 535, 536, 537, 538, 539, 540, 541, 542, 543, 544, 545, 546, 547, 548, 549, 550, 551, 552, 553, 554, 555, 556, 557, 558, 559, 560, 561, 562, 563, 564, 565, 566, 567, 568, 569, 570, 571, 572, 573, 574, 575, 576, 577, 578, 579, 580, 581],
      "AcquisitionTime": ["171425.747500", "171426.535000", "171427.325000", "171428.112500", "171428.900000", "171429.687500", "171430.477500", "171431.265000", "171432.052500", "171432.840000", "171433.630000", "171434.417500", "171435.205000", "171435.992500", "171436.782500", "171437.570000", "171438.357500", "171439.147500", "171439.935000", "171440.722500", "171441.510000", "171442.300000", "171443.087500", "171443.875000", "171444.662500", "171445.452500", "171446.240000", "171447.027500", "171447.815000", "171448.605000", "171449.392500", "171450.180000", "171450.967500", "171451.757500", "171452.545000", "171453.332500", "171454.120000", "171454.910000", "171455.697500", "171456.485000", "171457.275000", "171458.062500", "171458.850000", "171459.637500", "171500.427500", "171501.215000", "171502.002500", "171502.790000", "171503.580000", "171504.367500", "171505.155000", "171505.942500", "171506.732500", "171507.520000", "171508.307500", "171509.095000", "171509.885000", "171510.672500", "171511.460000", "171512.247500", "171513.037500", "171513.825000", "171514.612500", "171515.402500", "171516.190000", "171516.977500", "171517.765000", "171518.555000", "171519.342500", "171520.130000", "171520.917500", "171521.707500", "171522.495000", "171523.282500", "171524.070000", "171524.860000", "171525.647500", "171526.435000", "171527.222500", "171528.012500", "171528.800000", "171529.587500", "171530.375000", "171531.165000", "171531.952500", "171532.740000", "171533.530000", "171534.317500", "171535.105000", "171535.892500", "171536.682500", "171537.470000", "171538.257500", "171539.045000", "171539.835000", "171540.622500", "171541.410000", "171542.197500", "171542.987500", "171543.775000", "171544.562500", "171545.350000", "171546.140000", "171546.927500", "171547.715000", "171548.502500", "171549.292500", "171550.080000", "171550.867500", "171551.657500", "171552.445000", "171553.232500", "171554.020000", "171554.810000", "171555.597500", "171556.385000", "171557.172500", "171557.962500", "171558.750000", "171559.537500", "171600.325000", "171601.115000", "171601.902500", "171602.690000", "171603.477500", "171604.267500", "171605.055000", "171605.842500", "171606.630000", "171607.420000", "171608.207500", "171608.995000", "171609.785000", "171610.572500", "171611.360000", "171612.147500", "171612.937500", "171613.725000", "171614.512500", "171615.300000", "171616.090000", "171616.877500", "171617.665000", "171618.452500", "171619.242500", "171620.030000", "171620.817500", "171621.605000", "171622.395000", "171623.182500", "171623.970000", "171624.757500", "171625.547500", "171626.335000", "171627.122500", "171627.912500", "171628.700000", "171629.487500", "171630.275000", "171631.065000", "171631.852500", "171632.640000", "171633.427500", "171634.217500", "171635.005000", "171635.792500", "171636.580000", "171637.370000", "171638.157500", "171638.945000", "171639.732500", "171640.522500", "171641.310000", "171642.097500", "171642.885000", "171643.675000", "171644.462500", "171645.250000", "171646.040000", "171646.827500", "171647.615000", "171648.402500", "171649.192500", "171649.980000", "171650.767500", "171651.555000", "171652.345000", "171653.132500", "171653.920000", "171654.707500", "171655.497500", "171656.285000", "171657.072500", "171657.860000", "171658.650000", "171659.437500", "171700.225000", "171701.012500", "171701.802500", "171702.590000", "171703.377500", "171704.167500", "171704.955000", "171705.742500", "171706.530000", "171707.320000", "171708.107500", "171708.895000", "171709.682500", "171710.472500", "171711.260000", "171712.047500", "171712.835000", "171713.625000", "171714.412500", "171715.200000", "171715.987500", "171716.777500", "171717.565000", "171718.352500", "171719.140000", "171719.930000", "171720.717500", "171721.505000", "171722.295000", "171723.082500", "171723.870000", "171724.657500", "171725.447500", "171726.235000", "171727.022500", "171727.810000", "171728.600000", "171729.387500", "171730.175000", "171730.962500", "171731.752500", "171732.540000", "171733.327500", "171734.115000", "171734.905000", "171735.692500", "171736.480000", "171737.270000", "171738.057500", "171738.845000", "171739.632500", "171740.422500", "171741.210000", "171741.997500", "171742.785000", "171743.575000", "171744.362500", "171745.150000", "171745.937500", "171746.727500", "171747.515000", "171748.302500", "171749.090000", "171749.880000", "171750.667500", "171751.455000", "171752.242500", "171753.032500", "171753.820000", "171754.607500", "171755.397500", "171756.185000", "171756.972500", "171757.760000", "171758.550000", "171759.337500", "171800.125000", "171800.912500", "171801.702500", "171802.490000", "171803.277500", "171804.065000", "171804.855000", "171805.642500", "171806.430000", "171807.217500", "171808.007500", "171808.795000", "171809.582500", "171810.370000", "171811.160000", "171811.947500", "171812.735000", "171813.525000", "171814.312500", "171815.100000", "171815.887500", "171816.677500", "171817.465000", "171818.252500", "171819.040000", "171819.830000", "171820.617500", "171821.405000", "171822.192500", "171822.982500", "171823.770000", "171824.557500", "171825.345000", "171826.135000", "171826.922500", "171827.710000", "171828.497500", "171829.287500", "171830.075000", "171830.862500", "171831.652500", "171832.440000", "171833.227500", "171834.015000", "171834.805000", "171835.592500", "171836.380000", "171837.167500", "171837.957500", "171838.745000", "171839.532500", "171840.320000", "171841.110000", "171841.897500", "171842.685000", "171843.472500", "171844.262500", "171845.050000", "171845.837500", "171846.625000", "171847.415000", "171848.202500", "171848.990000", "171849.780000", "171850.567500", "171851.355000", "171852.142500", "171852.932500", "171853.720000", "171854.507500", "171855.295000", "171856.085000", "171856.872500", "171857.660000", "171858.447500", "171859.237500", "171900.025000", "171900.812500", "171901.600000", "171902.390000", "171903.177500", "171903.965000", "171904.752500", "171905.542500", "171906.330000", "171907.117500", "171907.907500", "171908.695000", "171909.482500", "171910.270000", "171911.060000", "171911.847500", "171912.635000", "171913.422500", "171914.212500", "171915.000000", "171915.787500", "171916.575000", "171917.365000", "171918.152500", "171918.940000", "171919.727500", "171920.517500", "171921.305000", "171922.092500", "171922.880000", "171923.670000", "171924.457500", "171925.245000", "171926.035000", "171926.822500", "171927.610000", "171928.397500", "171929.187500", "171929.975000", "171930.762500", "171931.550000", "171932.340000", "171933.127500", "171933.915000", "171934.702500", "171935.492500", "171936.280000", "171937.067500", "171937.855000", "171938.645000", "171939.432500", "171940.220000", "171941.007500", "171941.797500", "171942.585000", "171943.372500", "171944.162500", "171944.950000", "171945.737500", "171946.525000", "171947.315000", "171948.102500", "171948.890000", "171949.677500", "171950.467500", "171951.255000", "171952.042500", "171952.830000", "171953.620000", "171954.407500", "171955.195000", "171955.982500", "171956.772500", "171957.560000", "171958.347500", "171959.135000", "171959.925000", "172000.712500", "172001.500000", "172002.290000", "172003.077500", "172003.865000", "172004.652500", "172005.442500", "172006.230000", "172007.017500", "172007.805000", "172008.595000", "172009.382500", "172010.170000", "172010.957500", "172011.747500", "172012.535000", "172013.322500", "172014.110000", "172014.900000", "172015.687500", "172016.475000", "172017.262500", "172018.052500", "172018.840000", "172019.627500", "172020.417500", "172021.205000", "172021.992500", "172022.780000", "172023.570000", "172024.357500", "172025.145000", "172025.932500", "172026.722500", "172027.510000", "172028.297500", "172029.085000", "172029.875000", "172030.662500", "172031.450000", "172032.237500", "172033.027500", "172033.815000", "172034.602500", "172035.390000", "172036.180000", "172036.967500", "172037.755000", "172038.545000", "172039.332500", "172040.120000", "172040.907500", "172041.697500", "172042.485000", "172043.272500", "172044.060000", "172044.850000", "172045.637500", "172046.425000", "172047.212500", "172048.002500", "172048.790000", "172049.577500", "172050.365000", "172051.155000", "172051.942500", "172052.730000", "172053.520000", "172054.307500", "172055.095000", "172055.882500", "172056.672500", "172057.460000", "172058.247500", "172059.035000", "172059.825000", "172100.612500", "172101.400000", "172102.187500", "172102.977500", "172103.765000", "172104.552500", "172105.340000", "172106.130000", "172106.917500", "172107.705000", "172108.492500", "172109.282500", "172110.070000", "172110.857500", "172111.647500", "172112.435000", "172113.222500", "172114.010000", "172114.800000", "172115.587500", "172116.375000", "172117.162500", "172117.952500", "172118.740000", "172119.527500", "172120.315000", "172121.105000", "172121.892500", "172122.680000", "172123.467500", "172124.257500", "172125.045000", "172125.832500", "172126.620000", "172127.410000", "172128.197500", "172128.985000", "172129.775000", "172130.562500", "172131.350000", "172132.137500", "172132.927500", "172133.715000", "172134.502500", "172135.290000", "172136.080000", "172136.867500", "172137.655000", "172138.442500", "172139.232500", "172140.020000", "172140.807500", "172141.595000", "172142.385000", "172143.172500", "172143.960000", "172144.747500", "172145.537500", "172146.325000", "172147.112500", "172147.902500", "172148.690000", "172149.477500", "172150.265000", "172151.055000", "172151.842500", "172152.630000", "172153.417500", "172154.207500", "172154.995000", "172155.782500", "172156.570000", "172157.360000", "172158.147500", "172158.935000", "172159.722500", "172200.512500", "172201.300000", "172202.087500", "172202.875000"],
      "ContentTime": ["171449.546000", "171449.546000", "171449.546000", "171449.546000", "171449.562000", "171449.562000", "171449.562000", "171449.562000", "171449.562000", "171449.562000", "171449.562000", "171449.578000", "171449.578000", "171449.578000", "171449.578000", "171449.578000", "171449.578000", "171449.578000", "171449.593000", "171449.593000", "171449.593000", "171449.593000", "171449.593000", "171449.593000", "171449.593000", "171449.609000", "171449.609000", "171509.515000", "171509.515000", "171509.531000", "171509.531000", "171509.531000", "171509.531000", "171509.531000", "171509.531000", "171509.546000", "171509.546000", "171509.546000", "171509.546000", "171509.546000", "171509.546000", "171509.546000", "171509.562000", "171509.562000", "171509.562000", "171509.562000", "171509.562000", "171509.562000", "171509.562000", "171509.578000", "171509.578000", "171509.578000", "171509.578000", "171529.515000", "171529.515000", "171529.531000", "171529.531000", "171529.531000", "171529.531000", "171529.546000", "171529.546000", "171529.546000", "171529.546000", "171529.546000", "171529.546000", "171529.546000", "171529.562000", "171529.562000", "171529.562000", "171529.562000", "171529.578000", "171529.578000", "171529.578000", "171529.578000", "171529.578000", "171529.578000", "171529.578000", "171529.593000", "171549.515000", "171549.515000", "171549.531000", "171549.531000", "171549.531000", "171549.531000", "171549.531000", "171549.531000", "171549.531000", "171549.546000", "171549.546000", "171549.546000", "171549.546000", "171549.546000", "171549.546000", "171549.562000", "171549.562000", "171549.562000", "171549.562000", "171549.562000", "171549.562000", "171549.562000", "171549.578000", "171549.578000", "171549.578000", "171549.578000", "171609.515000", "171609.515000", "171609.531000", "171609.531000", "171609.531000", "171609.531000", "171609.531000", "171609.531000", "171609.546000", "171609.546000", "171609.546000", "171609.546000", "171609.546000", "171609.546000", "171609.546000", "171609.562000", "171609.562000", "171609.562000", "171609.562000", "171609.562000", "171609.562000", "171609.562000", "171609.578000", "171609.578000", "171609.578000", "171629.515000", "171629.515000", "171629.531000", "171629.531000", "171629.531000", "171629.531000", "171629.531000", "171629.546000", "171629.546000", "171629.546000", "171629.546000", "171629.546000", "171629.546000", "171629.546000", "171629.562000", "171629.562000", "171629.562000", "171629.562000", "171629.562000", "171629.562000", "171629.578000", "171629.578000", "171629.578000", "171629.578000", "171629.578000", "171629.578000", "171649.515000", "171649.515000", "171649.531000", "171649.531000", "171649.531000", "171649.531000", "171649.531000", "171649.531000", "171649.531000", "171649.546000", "171649.546000", "171649.546000", "171649.546000", "171649.562000", "171649.562000", "171649.562000", "171649.562000", "171649.562000", "171649.562000", "171649.562000", "171649.578000", "171649.578000", "171649.578000", "171649.578000", "171649.578000", "171709.515000", "171709.515000", "171709.531000", "171709.531000", "171709.531000", "171709.531000", "171709.531000", "171709.531000", "171709.531000", "171709.546000", "171709.546000", "171709.546000", "171709.546000", "171709.546000", "171709.546000", "171709.546000", "171709.562000", "171709.562000", "171709.562000", "171709.562000", "171709.562000", "171709.562000", "171709.578000", "171709.578000", "171709.578000", "171709.578000", "171729.515000", "171729.515000", "171729.531000", "171729.531000", "171729.531000", "171729.531000", "171729.531000", "171729.531000", "171729.531000", "171729.546000", "171729.546000", "171729.546000", "171729.546000", "171729.546000", "171729.546000", "171729.562000", "171729.562000", "171729.562000", "171729.562000", "171729.562000", "171729.562000", "171729.562000", "171729.578000", "171729.578000", "171729.578000", "171749.515000", "171749.515000", "171749.531000", "171749.531000", "171749.531000", "171749.531000", "171749.531000", "171749.531000", "171749.531000", "171749.546000", "171749.546000", "171749.546000", "171749.546000", "171749.546000", "171749.546000", "171749.562000", "171749.562000", "171749.562000", "171749.562000", "171749.562000", "171749.562000", "171749.562000", "171749.578000", "171749.578000", "171749.578000", "171749.578000", "171809.515000", "171809.515000", "171809.531000", "171809.531000", "171809.531000", "171809.531000", "171809.531000", "171809.531000", "171809.546000", "171809.546000", "171809.546000", "171809.546000", "171809.546000", "171809.546000", "171809.562000", "171809.562000", "171809.562000", "171809.562000", "171809.562000", "171809.562000", "171809.578000", "171809.578000", "171809.578000", "171809.578000", "171809.578000", "171829.515000", "171829.515000", "171829.531000", "171829.531000", "171829.531000", "171829.531000", "171829.531000", "171829.531000", "171829.546000", "171829.546000", "171829.546000", "171829.546000", "171829.546000", "171829.546000", "171829.546000", "171829.562000", "171829.562000", "171829.562000", "171829.562000", "171829.562000", "171829.562000", "171829.562000", "171829.578000", "171829.578000", "171829.578000", "171829.578000", "171849.515000", "171849.515000", "171849.531000", "171849.531000", "171849.531000", "171849.531000", "171849.531000", "171849.531000", "171849.531000", "171849.546000", "171849.546000", "171849.546000", "171849.546000", "171849.546000", "171849.546000", "171849.562000", "171849.562000", "171849.562000", "171849.562000", "171849.562000", "171849.562000", "171849.562000", "171849.578000", "171849.578000", "171849.578000", "171909.515000", "171909.531000", "171909.531000", "171909.531000", "171909.531000", "171909.531000", "171909.531000", "171909.531000", "171909.546000", "171909.546000", "171909.546000", "171909.546000", "171909.546000", "171909.546000", "171909.562000", "171909.562000", "171909.562000", "171909.562000", "171909.562000", "171909.562000", "171909.578000", "171909.578000", "171909.578000", "171909.578000", "171909.578000", "171929.515000", "171929.515000", "171929.531000", "171929.531000", "171929.531000", "171929.531000", "171929.531000", "171929.531000", "171929.531000", "171929.546000", "171929.546000", "171929.546000", "171929.546000", "171929.546000", "171929.546000", "171929.562000", "171929.562000", "171929.562000", "171929.562000", "171929.562000", "171929.562000", "171929.562000", "171929.578000", "171929.578000", "171929.578000", "171929.578000", "171949.515000", "171949.515000", "171949.531000", "171949.531000", "171949.531000", "171949.531000", "171949.546000", "171949.546000", "171949.546000", "171949.546000", "171949.546000", "171949.546000", "171949.562000", "171949.562000", "171949.562000", "171949.562000", "171949.562000", "171949.562000", "171949.578000", "171949.578000", "171949.578000", "171949.578000", "171949.578000", "171949.578000", "171949.578000", "172009.515000", "172009.515000", "172009.531000", "172009.531000", "172009.531000", "172009.531000", "172009.531000", "172009.531000", "172009.531000", "172009.546000", "172009.546000", "172009.546000", "172009.546000", "172009.546000", "172009.546000", "172009.562000", "172009.562000", "172009.562000", "172009.562000", "172009.562000", "172009.562000", "172009.562000", "172009.578000", "172009.578000", "172009.578000", "172009.578000", "172029.515000", "172029.515000", "172029.531000", "172029.531000", "172029.531000", "172029.546000", "172029.546000", "172029.546000", "172029.546000", "172029.546000", "172029.562000", "172029.562000", "172029.562000", "172029.562000", "172029.562000", "172029.578000", "172029.578000", "172029.578000", "172029.578000", "172029.578000", "172029.578000", "172029.578000", "172029.593000", "172029.593000", "172029.593000", "172049.515000", "172049.515000", "172049.531000", "172049.531000", "172049.531000", "172049.531000", "172049.531000", "172049.531000", "172049.531000", "172049.546000", "172049.546000", "172049.546000", "172049.546000", "172049.546000", "172049.546000", "172049.562000", "172049.562000", "172049.562000", "172049.562000", "172049.562000", "172049.562000", "172049.562000", "172049.578000", "172049.578000", "172049.578000", "172049.578000", "172109.515000", "172109.515000", "172109.531000", "172109.531000", "172109.531000", "172109.531000", "172109.531000", "172109.531000", "172109.546000", "172109.546000", "172109.546000", "172109.546000", "172109.546000", "172109.546000", "172109.562000", "172109.562000", "172109.562000", "172109.562000", "172109.562000", "172109.562000", "172109.578000", "172109.578000", "172109.578000", "172109.578000", "172109.578000", "172129.515000", "172129.515000", "172129.531000", "172129.531000", "172129.531000", "172129.531000", "172129.531000", "172129.531000", "172129.546000", "172129.546000", "172129.546000", "172129.546000", "172129.546000", "172129.546000", "172129.546000", "172129.562000", "172129.562000", "172129.562000", "172129.562000", "172129.562000", "172129.578000", "172129.578000", "172129.578000", "172129.578000", "172129.578000", "172129.578000", "172149.515000", "172149.515000", "172149.531000", "172149.531000", "172149.531000", "172149.531000", "172149.531000", "172149.531000", "172149.546000", "172149.546000", "172149.546000", "172149.546000", "172149.546000", "172149.546000", "172149.546000", "172149.562000", "172149.562000", "172149.562000", "172149.562000", "172149.562000", "172149.562000", "172149.578000", "172149.578000", "172149.578000", "172149.578000", "172203.890000", "172203.906000", "172203.906000", "172203.906000", "172203.906000", "172203.906000", "172203.906000", "172203.906000", "172203.921000", "172203.921000", "172203.921000", "172203.921000", "172203.921000", "172203.921000", "172203.921000", "172203.937000", "172203.937000", "172203.937000", "172203.937000"],
      "DataSetTrailingPadding": [
        "\u0000\u0000\u0000\u0000\u0000\u0000\u0000\u0000\u0000\u0000\u0000\u0000\u0000\u0000\u0000\u0000\u0000\u0000\u0000\u0000\u0000\u0000\u0000\u0000\u0000\u0000\u0000\u0000\u0000\u0000\u0000\u0000\u0000\u0000\u0000\u0000\u0000\u0000\u0000\u0000\u0000\u0000\u0000\u0000\u0000\u0000\u0000\u0000\u0000\u0000\u0000\u0000\u0000\u0000\u0000\u0000\u0000\u0000\u0000\u0000\u0000\u0000\u0000\u0000\u0000\u0000\u0000\u0000\u0000\u0000\u0000\u0000\u0000\u0000\u0000\u0000\u0000\u0000\u0000\u0000\u0000\u0000\u0000\u0000\u0000\u0000\u0000\u0000",
        "\u0000\u0000\u0000\u0000\u0000\u0000\u0000\u0000\u0000\u0000\u0000\u0000\u0000\u0000\u0000\u0000\u0000\u0000\u0000\u0000\u0000\u0000\u0000\u0000\u0000\u0000\u0000\u0000\u0000\u0000\u0000\u0000\u0000\u0000\u0000\u0000\u0000\u0000\u0000\u0000\u0000\u0000\u0000\u0000\u0000\u0000\u0000\u0000\u0000\u0000\u0000\u0000\u0000\u0000\u0000\u0000\u0000\u0000\u0000\u0000\u0000\u0000\u0000\u0000\u0000\u0000\u0000\u0000\u0000\u0000\u0000\u0000\u0000\u0000\u0000\u0000\u0000\u0000\u0000\u0000\u0000\u0000\u0000\u0000\u0000\u0000\u0000\u0000",
        "\u0000\u0000\u0000\u0000\u0000\u0000\u0000\u0000\u0000\u0000\u0000\u0000\u0000\u0000\u0000\u0000\u0000\u0000\u0000\u0000\u0000\u0000\u0000\u0000\u0000\u0000\u0000\u0000\u0000\u0000\u0000\u0000\u0000\u0000\u0000\u0000\u0000\u0000\u0000\u0000\u0000\u0000\u0000\u0000\u0000\u0000\u0000\u0000\u0000\u0000\u0000\u0000\u0000\u0000\u0000\u0000\u0000\u0000\u0000\u0000\u0000\u0000\u0000\u0000\u0000\u0000\u0000\u0000\u0000\u0000\u0000\u0000\u0000\u0000\u0000\u0000\u0000\u0000\u0000\u0000\u0000\u0000\u0000\u0000\u0000\u0000\u0000\u0000",
