{
  "AcquisitionMatrixPE": 104,
  "AcquisitionNumber": 1,
  "AcquisitionTime": "16:33:43.715000",
  "BandwidthPerPixelPhaseEncode": 13.935,
  "BaseResolution": 104,
  "CoilString": "C:HEA;HEP",
  "ConversionSoftware": "dcm2niix",
  "ConversionSoftwareVersion": "v1.0.20210317",
  "DerivedVendorReportedEchoSpacing": 0.000690017,
  "DeviceSerialNumber": "35450",
  "DwellTime": 2.5e-06,
  "EchoTime": 0.0348,
  "EffectiveEchoSpacing": 0.000690017,
  "FlipAngle": 55,
  "ImageComments": "Unaliased MB8/PE3 (remote)",
  "ImageOrientationPatientDICOM": [1, 0, 0, 0, 0.999507, -0.0314108],
  "ImageType": [
    "ORIGINAL",
    "PRIMARY",
    "M",
    "MB",
    "ND",
    "MOSAIC"
],
  "ImagingFrequency": 123.234,
  "InPlanePhaseEncodingDirectionDICOM": "COL",
  "InstitutionAddress": "Univeristy Ave. 197,Newark,North East,US,07102-1814",
  "InstitutionName": "RUBIC",
  "InstitutionalDepartmentName": "Department",
  "MRAcquisitionType": "2D",
  "MagneticFieldStrength": 3,
  "Manufacturer": "Siemens",
  "ManufacturersModelName": "TrioTim",
  "Modality": "MR",
  "MultibandAccelerationFactor": 8,
  "PartialFourier": 0.875,
  "PatientPosition": "HFS",
  "PercentPhaseFOV": 100,
  "PercentSampling": 100,
  "PhaseEncodingDirection": "j-",
  "PhaseEncodingSteps": 91,
  "PhaseResolution": 1,
  "PixelBandwidth": 1923,
  "ProcedureStepDescription": "Cole^Michael",
  "ProtocolName": "cmrr_mbep2d_bold_2mm_MB8_Task_8x",
  "PulseSequenceDetails": "%CustomerSeq%\\cmrr_mbep2d_bold",
  "ReceiveCoilName": "32Ch_Head",
  "ReconMatrixPE": 104,
  "RepetitionTime": 0.785,
  "SAR": 0.115626,
  "ScanOptions": "PFP\\FS",
  "ScanningSequence": "EP",
  "SequenceName": "epfid2d1_104",
  "SequenceVariant": "SK\\SS",
  "SeriesDescription": "cmrr_mbep2d_bold_2mm_MB8_Task_8x",
  "SeriesNumber": 17,
  "ShimSetting": [2064, -282, -7292, 660, -156, -68, -38, 98],
  "SliceThickness": 2,
  "SliceTiming": [0, 0.4375, 0.0875, 0.525, 0.175, 0.615, 0.2625, 0.7025, 0.35, 0, 0.4375, 0.0875, 0.525, 0.175, 0.615, 0.2625, 0.7025, 0.35, 0, 0.4375, 0.0875, 0.525, 0.175, 0.615, 0.2625, 0.7025, 0.35, 0, 0.4375, 0.0875, 0.525, 0.175, 0.615, 0.2625, 0.7025, 0.35, 0, 0.4375, 0.0875, 0.525, 0.175, 0.615, 0.2625, 0.7025, 0.35, 0, 0.4375, 0.0875, 0.525, 0.175, 0.615, 0.2625, 0.7025, 0.35, 0, 0.4375, 0.0875, 0.525, 0.175, 0.615, 0.2625, 0.7025, 0.35, 0, 0.4375, 0.0875, 0.525, 0.175, 0.615, 0.2625, 0.7025, 0.35],
  "SoftwareVersions": "syngo MR B19",
  "SpacingBetweenSlices": 2,
  "StationName": "MRC35450",
  "TaskName": "cpro",
  "TotalReadoutTime": 0.0710717,
  "TxRefAmp": 320.613,
  "dcmmeta_affine": [
    [-2.0, 0.0, 0.0, 104.67796325683594],
    [0.0, 1.999013066291809, -0.06282151490449905, -70.57969665527344],
    [0.0, 0.06282151490449905, 1.999013066291809, -94.56122589111328],
    [0.0, 0.0, 0.0, 1.0]
],
  "dcmmeta_reorient_transform": [
    [0.0, -1.0, 0.0, 103.0],
    [1.0, 0.0, 0.0, 0.0],
    [0.0, 0.0, 1.0, 0.0],
    [0.0, 0.0, 0.0, 1.0]
],
  "dcmmeta_shape": [104, 104, 72, 581],
  "dcmmeta_slice_dim": 2,
  "dcmmeta_version": 0.6,
  "global": {
    "const": {
      "AcquisitionMatrix": [104, 0, 0, 104],
      "AngioFlag": "N",
      "BitsAllocated": 16,
      "BitsStored": 12,
      "Columns": 936,
      "EchoNumbers": 1,
      "EchoTime": 34.8,
      "EchoTrainLength": 1,
      "FlipAngle": 55.0,
      "HighBit": 11,
      "ImageOrientationPatient": [1.0, 0.0, 0.0, 0.0, 0.99950656036366, -0.0314107591441],
      "ImagePositionPatient": [-936.67796611786, -966.90811654409, -61.956859763375],
      "ImageType": [
        "ORIGINAL",
        "PRIMARY",
        "M",
        "MB",
        "ND",
        "MOSAIC"
],
      "ImagedNucleus": "1H",
      "ImagingFrequency": 123.234434,
      "InPlanePhaseEncodingDirection": "COL",
      "MRAcquisitionType": "2D",
      "MagneticFieldStrength": 3.0,
      "Manufacturer": "SIEMENS",
      "ManufacturerModelName": "TrioTim",
      "Modality": "MR",
      "NumberOfAverages": 1.0,
      "NumberOfPhaseEncodingSteps": 91,
      "PercentPhaseFieldOfView": 100.0,
      "PercentSampling": 100.0,
      "PerformedProcedureStepStartTime": "150516.296000",
      "PhotometricInterpretation": "MONOCHROME2",
      "PixelBandwidth": 1923.0,
      "PixelRepresentation": 0,
      "PixelSpacing": [2.0, 2.0],
      "ProtocolName": "cmrr_mbep2d_bold_2mm_MB8_Task_8x",
      "RepetitionTime": 785.0,
      "Rows": 936,
      "SAR": 0.11562550987373,
      "SamplesPerPixel": 1,
      "ScanOptions": [
        "PFP",
        "FS"
],
      "ScanningSequence": "EP",
      "SequenceName": "epfid2d1_104",
      "SequenceVariant": [
        "SK",
        "SS"
],
      "SeriesDescription": "cmrr_mbep2d_bold_2mm_MB8_Task_8x",
      "SeriesNumber": 17,
      "SeriesTime": "163402.953000",
      "SliceLocation": -92.29760575628,
      "SliceThickness": 2.0,
      "SmallestImagePixelValue": 0,
      "SoftwareVersions": "syngo MR B19",
      "SpacingBetweenSlices": 2.0000000006836,
      "SpecificCharacterSet": "ISO_IR 100",
      "StudyID": "1",
      "StudyTime": "150516.265000",
      "TransmitCoilName": "Body",
      "VariableFlipAngleFlag": "N",
      "WindowCenterWidthExplanation": "Algo1",
      "dBdt": 0.0},
    "slices": {}
  },
  "time": {
    "samples": {
      "AcquisitionNumber": [1, 2, 3, 4, 5, 6, 7, 8, 9, 10, 11, 12, 13, 14, 15, 16, 17, 18, 19, 20, 21, 22, 23, 24, 25, 26, 27, 28, 29, 30, 31, 32, 33, 34, 35, 36, 37, 38, 39, 40, 41, 42, 43, 44, 45, 46, 47, 48, 49, 50, 51, 52, 53, 54, 55, 56, 57, 58, 59, 60, 61, 62, 63, 64, 65, 66, 67, 68, 69, 70, 71, 72, 73, 74, 75, 76, 77, 78, 79, 80, 81, 82, 83, 84, 85, 86, 87, 88, 89, 90, 91, 92, 93, 94, 95, 96, 97, 98, 99, 100, 101, 102, 103, 104, 105, 106, 107, 108, 109, 110, 111, 112, 113, 114, 115, 116, 117, 118, 119, 120, 121, 122, 123, 124, 125, 126, 127, 128, 129, 130, 131, 132, 133, 134, 135, 136, 137, 138, 139, 140, 141, 142, 143, 144, 145, 146, 147, 148, 149, 150, 151, 152, 153, 154, 155, 156, 157, 158, 159, 160, 161, 162, 163, 164, 165, 166, 167, 168, 169, 170, 171, 172, 173, 174, 175, 176, 177, 178, 179, 180, 181, 182, 183, 184, 185, 186, 187, 188, 189, 190, 191, 192, 193, 194, 195, 196, 197, 198, 199, 200, 201, 202, 203, 204, 205, 206, 207, 208, 209, 210, 211, 212, 213, 214, 215, 216, 217, 218, 219, 220, 221, 222, 223, 224, 225, 226, 227, 228, 229, 230, 231, 232, 233, 234, 235, 236, 237, 238, 239, 240, 241, 242, 243, 244, 245, 246, 247, 248, 249, 250, 251, 252, 253, 254, 255, 256, 257, 258, 259, 260, 261, 262, 263, 264, 265, 266, 267, 268, 269, 270, 271, 272, 273, 274, 275, 276, 277, 278, 279, 280, 281, 282, 283, 284, 285, 286, 287, 288, 289, 290, 291, 292, 293, 294, 295, 296, 297, 298, 299, 300, 301, 302, 303, 304, 305, 306, 307, 308, 309, 310, 311, 312, 313, 314, 315, 316, 317, 318, 319, 320, 321, 322, 323, 324, 325, 326, 327, 328, 329, 330, 331, 332, 333, 334, 335, 336, 337, 338, 339, 340, 341, 342, 343, 344, 345, 346, 347, 348, 349, 350, 351, 352, 353, 354, 355, 356, 357, 358, 359, 360, 361, 362, 363, 364, 365, 366, 367, 368, 369, 370, 371, 372, 373, 374, 375, 376, 377, 378, 379, 380, 381, 382, 383, 384, 385, 386, 387, 388, 389, 390, 391, 392, 393, 394, 395, 396, 397, 398, 399, 400, 401, 402, 403, 404, 405, 406, 407, 408, 409, 410, 411, 412, 413, 414, 415, 416, 417, 418, 419, 420, 421, 422, 423, 424, 425, 426, 427, 428, 429, 430, 431, 432, 433, 434, 435, 436, 437, 438, 439, 440, 441, 442, 443, 444, 445, 446, 447, 448, 449, 450, 451, 452, 453, 454, 455, 456, 457, 458, 459, 460, 461, 462, 463, 464, 465, 466, 467, 468, 469, 470, 471, 472, 473, 474, 475, 476, 477, 478, 479, 480, 481, 482, 483, 484, 485, 486, 487, 488, 489, 490, 491, 492, 493, 494, 495, 496, 497, 498, 499, 500, 501, 502, 503, 504, 505, 506, 507, 508, 509, 510, 511, 512, 513, 514, 515, 516, 517, 518, 519, 520, 521, 522, 523, 524, 525, 526, 527, 528, 529, 530, 531, 532, 533, 534, 535, 536, 537, 538, 539, 540, 541, 542, 543, 544, 545, 546, 547, 548, 549, 550, 551, 552, 553, 554, 555, 556, 557, 558, 559, 560, 561, 562, 563, 564, 565, 566, 567, 568, 569, 570, 571, 572, 573, 574, 575, 576, 577, 578, 579, 580, 581],
      "AcquisitionTime": ["163343.715000", "163344.505000", "163345.292500", "163346.080000", "163346.867500", "163347.657500", "163348.445000", "163349.232500", "163350.022500", "163350.810000", "163351.597500", "163352.385000", "163353.175000", "163353.962500", "163354.750000", "163355.537500", "163356.327500", "163357.115000", "163357.902500", "163358.690000", "163359.480000", "163400.267500", "163401.055000", "163401.842500", "163402.632500", "163403.420000", "163404.207500", "163404.995000", "163405.785000", "163406.572500", "163407.360000", "163408.150000", "163408.937500", "163409.725000", "163410.512500", "163411.302500", "163412.090000", "163412.877500", "163413.665000", "163414.455000", "163415.242500", "163416.030000", "163416.817500", "163417.607500", "163418.395000", "163419.182500", "163419.970000", "163420.760000", "163421.547500", "163422.335000", "163423.122500", "163423.912500", "163424.700000", "163425.487500", "163426.277500", "163427.065000", "163427.852500", "163428.640000", "163429.430000", "163430.217500", "163431.005000", "163431.792500", "163432.582500", "163433.370000", "163434.157500", "163434.945000", "163435.735000", "163436.522500", "163437.310000", "163438.097500", "163438.887500", "163439.675000", "163440.462500", "163441.250000", "163442.040000", "163442.827500", "163443.615000", "163444.405000", "163445.192500", "163445.980000", "163446.767500", "163447.557500", "163448.345000", "163449.132500", "163449.920000", "163450.710000", "163451.497500", "163452.285000", "163453.072500", "163453.862500", "163454.650000", "163455.437500", "163456.225000", "163457.015000", "163457.802500", "163458.590000", "163459.377500", "163500.167500", "163500.955000", "163501.742500", "163502.532500", "163503.320000", "163504.107500", "163504.895000", "163505.685000", "163506.472500", "163507.260000", "163508.047500", "163508.837500", "163509.625000", "163510.412500", "163511.200000", "163511.990000", "163512.777500", "163513.565000", "163514.352500", "163515.142500", "163515.930000", "163516.717500", "163517.505000", "163518.295000", "163519.082500", "163519.870000", "163520.660000", "163521.447500", "163522.235000", "163523.022500", "163523.812500", "163524.600000", "163525.387500", "163526.175000", "163526.965000", "163527.752500", "163528.540000", "163529.327500", "163530.117500", "163530.905000", "163531.692500", "163532.480000", "163533.270000", "163534.057500", "163534.845000", "163535.632500", "163536.422500", "163537.210000", "163537.997500", "163538.787500", "163539.575000", "163540.362500", "163541.150000", "163541.940000", "163542.727500", "163543.515000", "163544.302500", "163545.092500", "163545.880000", "163546.667500", "163547.455000", "163548.245000", "163549.032500", "163549.820000", "163550.607500", "163551.397500", "163552.185000", "163552.972500", "163553.760000", "163554.550000", "163555.337500", "163556.125000", "163556.915000", "163557.702500", "163558.490000", "163559.277500", "163600.067500", "163600.855000", "163601.642500", "163602.430000", "163603.220000", "163604.007500", "163604.795000", "163605.582500", "163606.372500", "163607.160000", "163607.947500", "163608.735000", "163609.525000", "163610.312500", "163611.100000", "163611.887500", "163612.677500", "163613.465000", "163614.252500", "163615.042500", "163615.830000", "163616.617500", "163617.405000", "163618.195000", "163618.982500", "163619.770000", "163620.557500", "163621.347500", "163622.135000", "163622.922500", "163623.710000", "163624.500000", "163625.287500", "163626.075000", "163626.862500", "163627.652500", "163628.440000", "163629.227500", "163630.015000", "163630.805000", "163631.592500", "163632.380000", "163633.170000", "163633.957500", "163634.745000", "163635.532500", "163636.322500", "163637.110000", "163637.897500", "163638.685000", "163639.475000", "163640.262500", "163641.050000", "163641.837500", "163642.627500", "163643.415000", "163644.202500", "163644.990000", "163645.780000", "163646.567500", "163647.355000", "163648.145000", "163648.932500", "163649.720000", "163650.507500", "163651.297500", "163652.085000", "163652.872500", "163653.660000", "163654.450000", "163655.237500", "163656.025000", "163656.812500", "163657.602500", "163658.390000", "163659.177500", "163659.965000", "163700.755000", "163701.542500", "163702.330000", "163703.117500", "163703.907500", "163704.695000", "163705.482500", "163706.272500", "163707.060000", "163707.847500", "163708.635000", "163709.425000", "163710.212500", "163711.000000", "163711.787500", "163712.577500", "163713.365000", "163714.152500", "163714.940000", "163715.730000", "163716.517500", "163717.305000", "163718.092500", "163718.882500", "163719.670000", "163720.457500", "163721.245000", "163722.035000", "163722.822500", "163723.610000", "163724.400000", "163725.187500", "163725.975000", "163726.762500", "163727.552500", "163728.340000", "163729.127500", "163729.915000", "163730.705000", "163731.492500", "163732.280000", "163733.067500", "163733.857500", "163734.645000", "163735.432500", "163736.220000", "163737.010000", "163737.797500", "163738.585000", "163739.372500", "163740.162500", "163740.950000", "163741.737500", "163742.527500", "163743.315000", "163744.102500", "163744.890000", "163745.680000", "163746.467500", "163747.255000", "163748.042500", "163748.832500", "163749.620000", "163750.407500", "163751.195000", "163751.985000", "163752.772500", "163753.560000", "163754.347500", "163755.137500", "163755.925000", "163756.712500", "163757.500000", "163758.290000", "163759.077500", "163759.865000", "163800.655000", "163801.442500", "163802.230000", "163803.017500", "163803.807500", "163804.595000", "163805.382500", "163806.170000", "163806.960000", "163807.747500", "163808.535000", "163809.322500", "163810.112500", "163810.900000", "163811.687500", "163812.475000", "163813.265000", "163814.052500", "163814.840000", "163815.627500", "163816.417500", "163817.205000", "163817.992500", "163818.782500", "163819.570000", "163820.357500", "163821.145000", "163821.935000", "163822.722500", "163823.510000", "163824.297500", "163825.087500", "163825.875000", "163826.662500", "163827.450000", "163828.240000", "163829.027500", "163829.815000", "163830.602500", "163831.392500", "163832.180000", "163832.967500", "163833.755000", "163834.545000", "163835.332500", "163836.120000", "163836.910000", "163837.697500", "163838.485000", "163839.272500", "163840.062500", "163840.850000", "163841.637500", "163842.425000", "163843.215000", "163844.002500", "163844.790000", "163845.577500", "163846.367500", "163847.155000", "163847.942500", "163848.730000", "163849.520000", "163850.307500", "163851.095000", "163851.882500", "163852.672500", "163853.460000", "163854.247500", "163855.037500", "163855.825000", "163856.612500", "163857.400000", "163858.190000", "163858.977500", "163859.765000", "163900.552500", "163901.342500", "163902.130000", "163902.917500", "163903.705000", "163904.495000", "163905.282500", "163906.070000", "163906.857500", "163907.647500", "163908.435000", "163909.222500", "163910.010000", "163910.800000", "163911.587500", "163912.375000", "163913.165000", "163913.952500", "163914.740000", "163915.527500", "163916.317500", "163917.105000", "163917.892500", "163918.680000", "163919.470000", "163920.257500", "163921.045000", "163921.832500", "163922.622500", "163923.410000", "163924.197500", "163924.985000", "163925.775000", "163926.562500", "163927.350000", "163928.137500", "163928.927500", "163929.715000", "163930.502500", "163931.292500", "163932.080000", "163932.867500", "163933.655000", "163934.445000", "163935.232500", "163936.020000", "163936.807500", "163937.597500", "163938.385000", "163939.172500", "163939.960000", "163940.750000", "163941.537500", "163942.325000", "163943.112500", "163943.902500", "163944.690000", "163945.477500", "163946.265000", "163947.055000", "163947.842500", "163948.630000", "163949.420000", "163950.207500", "163950.995000", "163951.782500", "163952.572500", "163953.360000", "163954.147500", "163954.935000", "163955.725000", "163956.512500", "163957.300000", "163958.087500", "163958.877500", "163959.665000", "164000.452500", "164001.240000", "164002.030000", "164002.817500", "164003.605000", "164004.395000", "164005.182500", "164005.970000", "164006.757500", "164007.547500", "164008.335000", "164009.122500", "164009.910000", "164010.700000", "164011.487500", "164012.275000", "164013.062500", "164013.852500", "164014.640000", "164015.427500", "164016.215000", "164017.005000", "164017.792500", "164018.580000", "164019.367500", "164020.157500", "164020.945000", "164021.732500", "164022.522500", "164023.310000", "164024.097500", "164024.885000", "164025.675000", "164026.462500", "164027.250000", "164028.037500", "164028.827500", "164029.615000", "164030.402500", "164031.190000", "164031.980000", "164032.767500", "164033.555000", "164034.342500", "164035.132500", "164035.920000", "164036.707500", "164037.495000", "164038.285000", "164039.072500", "164039.860000", "164040.650000", "164041.437500", "164042.225000", "164043.012500", "164043.802500", "164044.590000", "164045.377500", "164046.165000", "164046.955000", "164047.742500", "164048.530000", "164049.317500", "164050.107500", "164050.895000", "164051.682500", "164052.470000", "164053.260000", "164054.047500", "164054.835000", "164055.622500", "164056.412500", "164057.200000", "164057.987500", "164058.777500", "164059.565000", "164100.352500", "164101.140000", "164101.930000", "164102.717500", "164103.505000", "164104.292500", "164105.082500", "164105.870000", "164106.657500", "164107.445000", "164108.235000", "164109.022500", "164109.810000", "164110.597500", "164111.387500", "164112.175000", "164112.962500", "164113.750000", "164114.540000", "164115.327500", "164116.115000", "164116.905000", "164117.692500", "164118.480000", "164119.267500", "164120.057500", "164120.845000"],
      "ContentTime": ["163402.953000", "163402.953000", "163402.953000", "163402.953000", "163402.968000", "163402.968000", "163402.968000", "163402.968000", "163402.968000", "163402.968000", "163402.968000", "163402.984000", "163402.984000", "163402.984000", "163402.984000", "163402.984000", "163402.984000", "163402.984000", "163403.000000", "163403.000000", "163403.000000", "163403.000000", "163422.921000", "163422.921000", "163422.937000", "163422.937000", "163422.937000", "163422.937000", "163422.937000", "163422.937000", "163422.937000", "163422.953000", "163422.953000", "163422.953000", "163422.953000", "163422.953000", "163422.968000", "163422.968000", "163422.968000", "163422.968000", "163422.968000", "163422.984000", "163422.984000", "163422.984000", "163422.984000", "163422.984000", "163422.984000", "163422.984000", "163442.921000", "163442.921000", "163442.937000", "163442.937000", "163442.937000", "163442.937000", "163442.937000", "163442.937000", "163442.937000", "163442.953000", "163442.953000", "163442.953000", "163442.953000", "163442.953000", "163442.968000", "163442.968000", "163442.968000", "163442.968000", "163442.968000", "163442.968000", "163442.968000", "163442.984000", "163442.984000", "163442.984000", "163442.984000", "163502.921000", "163502.921000", "163502.937000", "163502.937000", "163502.937000", "163502.937000", "163502.937000", "163502.937000", "163502.953000", "163502.953000", "163502.953000", "163502.953000", "163502.953000", "163502.968000", "163502.968000", "163502.968000", "163502.968000", "163502.968000", "163502.968000", "163502.968000", "163502.984000", "163502.984000", "163502.984000", "163502.984000", "163502.984000", "163502.984000", "163522.921000", "163522.921000", "163522.937000", "163522.937000", "163522.937000", "163522.937000", "163522.937000", "163522.937000", "163522.953000", "163522.953000", "163522.953000", "163522.953000", "163522.953000", "163522.953000", "163522.953000", "163522.968000", "163522.968000", "163522.968000", "163522.968000", "163522.968000", "163522.984000", "163522.984000", "163522.984000", "163522.984000", "163522.984000", "163542.921000", "163542.921000", "163542.937000", "163542.937000", "163542.937000", "163542.937000", "163542.937000", "163542.937000", "163542.937000", "163542.953000", "163542.953000", "163542.953000", "163542.953000", "163542.953000", "163542.953000", "163542.968000", "163542.968000", "163542.968000", "163542.968000", "163542.968000", "163542.968000", "163542.968000", "163542.984000", "163542.984000", "163542.984000", "163542.984000", "163602.921000", "163602.921000", "163602.937000", "163602.937000", "163602.937000", "163602.937000", "163602.937000", "163602.937000", "163602.937000", "163602.953000", "163602.953000", "163602.953000", "163602.953000", "163602.953000", "163602.953000", "163602.968000", "163602.968000", "163602.968000", "163602.968000", "163602.968000", "163602.984000", "163602.984000", "163602.984000", "163602.984000", "163602.984000", "163622.921000", "163622.921000", "163622.937000", "163622.937000", "163622.937000", "163622.937000", "163622.937000", "163622.937000", "163622.937000", "163622.953000", "163622.953000", "163622.953000", "163622.953000", "163622.953000", "163622.953000", "163622.953000", "163622.968000", "163622.968000", "163622.968000", "163622.968000", "163622.968000", "163622.968000", "163622.968000", "163622.984000", "163622.984000", "163622.984000", "163642.921000", "163642.921000", "163642.937000", "163642.937000", "163642.937000", "163642.937000", "163642.937000", "163642.937000", "163642.937000", "163642.953000", "163642.953000", "163642.953000", "163642.953000", "163642.953000", "163642.953000", "163642.953000", "163642.968000", "163642.968000", "163642.968000", "163642.968000", "163642.968000", "163642.968000", "163642.968000", "163642.984000", "163642.984000", "163702.921000", "163702.921000", "163702.937000", "163702.937000", "163702.937000", "163702.937000", "163702.937000", "163702.937000", "163702.937000", "163702.953000", "163702.953000", "163702.953000", "163702.953000", "163702.953000", "163702.953000", "163702.953000", "163702.968000", "163702.968000", "163702.968000", "163702.968000", "163702.968000", "163702.968000", "163702.968000", "163702.984000", "163702.984000", "163702.984000", "163722.921000", "163722.921000", "163722.937000", "163722.937000", "163722.937000", "163722.937000", "163722.937000", "163722.953000", "163722.953000", "163722.953000", "163722.953000", "163722.953000", "163722.968000", "163722.968000", "163722.968000", "163722.968000", "163722.968000", "163722.968000", "163722.968000", "163722.984000", "163722.984000", "163722.984000", "163722.984000", "163722.984000", "163722.984000", "163742.921000", "163742.921000", "163742.937000", "163742.937000", "163742.937000", "163742.937000", "163742.953000", "163742.953000", "163742.953000", "163742.953000", "163742.953000", "163742.953000", "163742.953000", "163742.968000", "163742.968000", "163742.968000", "163742.968000", "163742.968000", "163742.968000", "163742.968000", "163742.984000", "163742.984000", "163742.984000", "163742.984000", "163742.984000", "163742.984000", "163802.921000", "163802.921000", "163802.937000", "163802.937000", "163802.937000", "163802.937000", "163802.937000", "163802.937000", "163802.937000", "163802.953000", "163802.953000", "163802.953000", "163802.953000", "163802.953000", "163802.953000", "163802.953000", "163802.968000", "163802.968000", "163802.968000", "163802.968000", "163802.968000", "163802.968000", "163802.984000", "163802.984000", "163802.984000", "163822.921000", "163822.921000", "163822.937000", "163822.937000", "163822.937000", "163822.937000", "163822.937000", "163822.937000", "163822.937000", "163822.953000", "163822.953000", "163822.953000", "163822.953000", "163822.953000", "163822.953000", "163822.953000", "163822.968000", "163822.968000", "163822.968000", "163822.968000", "163822.968000", "163822.968000", "163822.968000", "163822.984000", "163822.984000", "163822.984000", "163842.921000", "163842.921000", "163842.937000", "163842.937000", "163842.937000", "163842.937000", "163842.937000", "163842.937000", "163842.953000", "163842.953000", "163842.953000", "163842.953000", "163842.953000", "163842.953000", "163842.953000", "163842.968000", "163842.968000", "163842.968000", "163842.968000", "163842.968000", "163842.968000", "163842.968000", "163842.984000", "163842.984000", "163842.984000", "163902.921000", "163902.921000", "163902.937000", "163902.937000", "163902.953000", "163902.953000", "163902.953000", "163902.968000", "163902.968000", "163902.968000", "163902.968000", "163902.968000", "163902.968000", "163902.968000", "163902.984000", "163902.984000", "163902.984000", "163902.984000", "163902.984000", "163902.984000", "163902.984000", "163903.000000", "163903.000000", "163903.000000", "163903.000000", "163922.921000", "163922.921000", "163922.937000", "163922.937000", "163922.937000", "163922.937000", "163922.937000", "163922.953000", "163922.953000", "163922.953000", "163922.953000", "163922.953000", "163922.968000", "163922.968000", "163922.968000", "163922.968000", "163922.968000", "163922.968000", "163922.968000", "163922.984000", "163922.984000", "163922.984000", "163922.984000", "163922.984000", "163922.984000", "163923.000000", "163942.921000", "163942.921000", "163942.937000", "163942.937000", "163942.937000", "163942.937000", "163942.937000", "163942.937000", "163942.953000", "163942.953000", "163942.953000", "163942.953000", "163942.953000", "163942.953000", "163942.968000", "163942.968000", "163942.968000", "163942.968000", "163942.968000", "163942.984000", "163942.984000", "163942.984000", "163942.984000", "163942.984000", "163942.984000", "164002.921000", "164002.921000", "164002.937000", "164002.937000", "164002.937000", "164002.937000", "164002.937000", "164002.937000", "164002.937000", "164002.953000", "164002.953000", "164002.953000", "164002.953000", "164002.953000", "164002.953000", "164002.953000", "164002.968000", "164002.968000", "164002.968000", "164002.968000", "164002.968000", "164002.968000", "164002.984000", "164002.984000", "164002.984000", "164002.984000", "164022.921000", "164022.921000", "164022.937000", "164022.937000", "164022.937000", "164022.937000", "164022.937000", "164022.937000", "164022.937000", "164022.953000", "164022.953000", "164022.953000", "164022.953000", "164022.953000", "164022.953000", "164022.968000", "164022.968000", "164022.968000", "164022.968000", "164022.984000", "164022.984000", "164022.984000", "164022.984000", "164022.984000", "164022.984000", "164042.921000", "164042.921000", "164042.937000", "164042.937000", "164042.937000", "164042.937000", "164042.937000", "164042.937000", "164042.937000", "164042.953000", "164042.953000", "164042.953000", "164042.953000", "164042.953000", "164042.953000", "164042.953000", "164042.968000", "164042.968000", "164042.968000", "164042.968000", "164042.968000", "164042.968000", "164042.984000", "164042.984000", "164042.984000", "164042.984000", "164102.921000", "164102.921000", "164102.937000", "164102.937000", "164102.937000", "164102.937000", "164102.937000", "164102.937000", "164102.937000", "164102.953000", "164102.953000", "164102.953000", "164102.953000", "164102.953000", "164102.953000", "164102.953000", "164102.968000", "164102.968000", "164102.968000", "164102.968000", "164102.968000", "164102.968000", "164102.984000", "164102.984000", "164102.984000", "164121.140000", "164121.140000", "164121.140000", "164121.140000", "164121.140000", "164121.140000", "164121.156000", "164121.156000", "164121.156000", "164121.156000", "164121.156000", "164121.156000", "164121.171000", "164121.171000", "164121.171000", "164121.171000", "164121.171000", "164121.171000", "164121.187000", "164121.187000", "164121.187000", "164121.187000", "164121.187000", "164121.203000"],
      "DataSetTrailingPadding": [
        "\u0000\u0000\u0000\u0000\u0000\u0000\u0000\u0000\u0000\u0000\u0000\u0000\u0000\u0000\u0000\u0000\u0000\u0000\u0000\u0000\u0000\u0000\u0000\u0000\u0000\u0000\u0000\u0000\u0000\u0000\u0000\u0000\u0000\u0000\u0000\u0000\u0000\u0000\u0000\u0000\u0000\u0000\u0000\u0000\u0000\u0000\u0000\u0000\u0000\u0000\u0000\u0000\u0000\u0000\u0000\u0000\u0000\u0000\u0000\u0000\u0000\u0000\u0000\u0000\u0000\u0000\u0000\u0000\u0000\u0000\u0000\u0000\u0000\u0000\u0000\u0000\u0000\u0000\u0000\u0000\u0000\u0000\u0000\u0000\u0000\u0000\u0000\u0000",
        "\u0000\u0000\u0000\u0000\u0000\u0000\u0000\u0000\u0000\u0000\u0000\u0000\u0000\u0000\u0000\u0000\u0000\u0000\u0000\u0000\u0000\u0000\u0000\u0000\u0000\u0000\u0000\u0000\u0000\u0000\u0000\u0000\u0000\u0000\u0000\u0000\u0000\u0000\u0000\u0000\u0000\u0000\u0000\u0000\u0000\u0000\u0000\u0000\u0000\u0000\u0000\u0000\u0000\u0000\u0000\u0000\u0000\u0000\u0000\u0000\u0000\u0000\u0000\u0000\u0000\u0000\u0000\u0000\u0000\u0000\u0000\u0000\u0000\u0000\u0000\u0000\u0000\u0000\u0000\u0000\u0000\u0000\u0000\u0000\u0000\u0000",
        "\u0000\u0000\u0000\u0000\u0000\u0000\u0000\u0000\u0000\u0000\u0000\u0000\u0000\u0000\u0000\u0000\u0000\u0000\u0000\u0000\u0000\u0000\u0000\u0000\u0000\u0000\u0000\u0000\u0000\u0000\u0000\u0000\u0000\u0000\u0000\u0000\u0000\u0000\u0000\u0000\u0000\u0000\u0000\u0000\u0000\u0000\u0000\u0000\u0000\u0000\u0000\u0000\u0000\u0000\u0000\u0000\u0000\u0000\u0000\u0000\u0000\u0000\u0000\u0000\u0000\u0000\u0000\u0000\u0000\u0000\u0000\u0000\u0000\u0000\u0000\u0000\u0000\u0000\u0000\u0000\u0000\u0000\u0000\u0000\u0000\u0000\u0000\u0000",
