{
  "AcquisitionMatrixPE": 104,
  "AcquisitionNumber": 1,
  "AcquisitionTime": "16:38:7.740000",
  "BandwidthPerPixelPhaseEncode": 13.935,
  "BaseResolution": 104,
  "CoilString": "C:HEA;HEP",
  "ConversionSoftware": "dcm2niix",
  "ConversionSoftwareVersion": "v1.0.20210317",
  "DerivedVendorReportedEchoSpacing": 0.000690017,
  "DeviceSerialNumber": "35450",
  "DwellTime": 2.5e-06,
  "EchoTime": 0.0348,
  "EffectiveEchoSpacing": 0.000690017,
  "FlipAngle": 55,
  "ImageComments": "Unaliased MB8/PE3",
  "ImageOrientationPatientDICOM": [1, 1.66966e-07, -1.05239e-05, -1.61649e-09, 0.999877, 0.0157099],
  "ImageType": [
    "ORIGINAL",
    "PRIMARY",
    "M",
    "MB",
    "ND",
    "MOSAIC"
],
  "ImagingFrequency": 123.235,
  "InPlanePhaseEncodingDirectionDICOM": "COL",
  "InstitutionAddress": "Univeristy Ave. 197,Newark,North East,US,07102-1814",
  "InstitutionName": "RUBIC",
  "InstitutionalDepartmentName": "Department",
  "MRAcquisitionType": "2D",
  "MagneticFieldStrength": 3,
  "Manufacturer": "Siemens",
  "ManufacturersModelName": "TrioTim",
  "Modality": "MR",
  "MultibandAccelerationFactor": 8,
  "PartialFourier": 0.875,
  "PatientPosition": "HFS",
  "PercentPhaseFOV": 100,
  "PercentSampling": 100,
  "PhaseEncodingDirection": "j-",
  "PhaseEncodingSteps": 91,
  "PhaseResolution": 1,
  "PixelBandwidth": 1923,
  "ProcedureStepDescription": "Cole^Michael",
  "ProtocolName": "cmrr_mbep2d_bold_2mm_MB8_Task_8x",
  "PulseSequenceDetails": "%CustomerSeq%\\cmrr_mbep2d_bold",
  "ReceiveCoilName": "32Ch_Head",
  "ReconMatrixPE": 104,
  "RepetitionTime": 0.785,
  "SAR": 0.13389,
  "ScanOptions": "PFP\\FS",
  "ScanningSequence": "EP",
  "SequenceName": "epfid2d1_104",
  "SequenceVariant": "SK\\SS",
  "SeriesDescription": "cmrr_mbep2d_bold_2mm_MB8_Task_8x",
  "SeriesNumber": 25,
  "ShimSetting": [2084, -394, -7267, 505, -100, -411, 424, 52],
  "SliceThickness": 2,
  "SliceTiming": [0, 0.4375, 0.0875, 0.525, 0.175, 0.6125, 0.2625, 0.7, 0.35, 0, 0.4375, 0.0875, 0.525, 0.175, 0.6125, 0.2625, 0.7, 0.35, 0, 0.4375, 0.0875, 0.525, 0.175, 0.6125, 0.2625, 0.7, 0.35, 0, 0.4375, 0.0875, 0.525, 0.175, 0.6125, 0.2625, 0.7, 0.35, 0, 0.4375, 0.0875, 0.525, 0.175, 0.6125, 0.2625, 0.7, 0.35, 0, 0.4375, 0.0875, 0.525, 0.175, 0.6125, 0.2625, 0.7, 0.35, 0, 0.4375, 0.0875, 0.525, 0.175, 0.6125, 0.2625, 0.7, 0.35, 0, 0.4375, 0.0875, 0.525, 0.175, 0.6125, 0.2625, 0.7, 0.35],
  "SoftwareVersions": "syngo MR B19",
  "SpacingBetweenSlices": 2,
  "StationName": "MRC35450",
  "TaskName": "cpro",
  "TotalReadoutTime": 0.0710717,
  "TxRefAmp": 351.498,
  "dcmmeta_affine": [
    [-2.0, -3.232978107448048e-09, -2.105039129673969e-05, 106.00995635986328],
    [-3.3393141052329156e-07, 1.9997532367706299, 0.03141973167657852, -82.43989562988281],
    [-2.1047742848168127e-05, -0.03141973167657852, 1.9997531175613403, -94.73805236816406],
    [0.0, 0.0, 0.0, 1.0]
],
  "dcmmeta_reorient_transform": [
    [0.0, -1.0, 0.0, 103.0],
    [1.0, 0.0, 0.0, 0.0],
    [0.0, 0.0, 1.0, 0.0],
    [0.0, 0.0, 0.0, 1.0]
],
  "dcmmeta_shape": [104, 104, 72, 581],
  "dcmmeta_slice_dim": 2,
  "dcmmeta_version": 0.6,
  "global": {
    "const": {
      "AcquisitionMatrix": [104, 0, 0, 104],
      "AngioFlag": "N",
      "BitsAllocated": 16,
      "BitsStored": 12,
      "Columns": 936,
      "EchoNumbers": 1,
      "EchoTime": 34.8,
      "EchoTrainLength": 1,
      "FlipAngle": 55.0,
      "HighBit": 11,
      "ImageOrientationPatient": [0.99999999994461, 1.66965699e-07, -1.05238712e-05, -1.616489e-09, 0.9998765924413, 0.01570986594363],
      "ImagePositionPatient": [-938.00995193396, -955.43214550795, -111.03613691417],
      "ImageType": [
        "ORIGINAL",
        "PRIMARY",
        "M",
        "MB",
        "ND",
        "MOSAIC"
],
      "ImagedNucleus": "1H",
      "ImagingFrequency": 123.234722,
      "InPlanePhaseEncodingDirection": "COL",
      "MRAcquisitionType": "2D",
      "MagneticFieldStrength": 3.0,
      "Manufacturer": "SIEMENS",
      "ManufacturerModelName": "TrioTim",
      "Modality": "MR",
      "NumberOfAverages": 1.0,
      "NumberOfPhaseEncodingSteps": 91,
      "PercentPhaseFieldOfView": 100.0,
      "PercentSampling": 100.0,
      "PerformedProcedureStepStartTime": "143538.906000",
      "PhotometricInterpretation": "MONOCHROME2",
      "PixelBandwidth": 1923.0,
      "PixelRepresentation": 0,
      "PixelSpacing": [2.0, 2.0],
      "ProtocolName": "cmrr_mbep2d_bold_2mm_MB8_Task_8x",
      "RepetitionTime": 785.0,
      "Rows": 936,
      "SAR": 0.13388966697326,
      "SamplesPerPixel": 1,
      "ScanOptions": [
        "PFP",
        "FS"
],
      "ScanningSequence": "EP",
      "SequenceName": "epfid2d1_104",
      "SequenceVariant": [
        "SK",
        "SS"
],
      "SeriesDescription": "cmrr_mbep2d_bold_2mm_MB8_Task_8x",
      "SeriesNumber": 25,
      "SeriesTime": "182519.500000",
      "SliceLocation": -96.022596024229,
      "SliceThickness": 2.0,
      "SmallestImagePixelValue": 0,
      "SoftwareVersions": "syngo MR B19",
      "SpacingBetweenSlices": 1.9999999881239,
      "SpecificCharacterSet": "ISO_IR 100",
      "StudyID": "1",
      "StudyTime": "143538.875000",
      "TransmitCoilName": "Body",
      "VariableFlipAngleFlag": "N",
      "WindowCenterWidthExplanation": "Algo1",
      "dBdt": 0.0},
    "slices": {}
  },
  "time": {
    "samples": {
      "AcquisitionNumber": [1, 2, 3, 4, 5, 6, 7, 8, 9, 10, 11, 12, 13, 14, 15, 16, 17, 18, 19, 20, 21, 22, 23, 24, 25, 26, 27, 28, 29, 30, 31, 32, 33, 34, 35, 36, 37, 38, 39, 40, 41, 42, 43, 44, 45, 46, 47, 48, 49, 50, 51, 52, 53, 54, 55, 56, 57, 58, 59, 60, 61, 62, 63, 64, 65, 66, 67, 68, 69, 70, 71, 72, 73, 74, 75, 76, 77, 78, 79, 80, 81, 82, 83, 84, 85, 86, 87, 88, 89, 90, 91, 92, 93, 94, 95, 96, 97, 98, 99, 100, 101, 102, 103, 104, 105, 106, 107, 108, 109, 110, 111, 112, 113, 114, 115, 116, 117, 118, 119, 120, 121, 122, 123, 124, 125, 126, 127, 128, 129, 130, 131, 132, 133, 134, 135, 136, 137, 138, 139, 140, 141, 142, 143, 144, 145, 146, 147, 148, 149, 150, 151, 152, 153, 154, 155, 156, 157, 158, 159, 160, 161, 162, 163, 164, 165, 166, 167, 168, 169, 170, 171, 172, 173, 174, 175, 176, 177, 178, 179, 180, 181, 182, 183, 184, 185, 186, 187, 188, 189, 190, 191, 192, 193, 194, 195, 196, 197, 198, 199, 200, 201, 202, 203, 204, 205, 206, 207, 208, 209, 210, 211, 212, 213, 214, 215, 216, 217, 218, 219, 220, 221, 222, 223, 224, 225, 226, 227, 228, 229, 230, 231, 232, 233, 234, 235, 236, 237, 238, 239, 240, 241, 242, 243, 244, 245, 246, 247, 248, 249, 250, 251, 252, 253, 254, 255, 256, 257, 258, 259, 260, 261, 262, 263, 264, 265, 266, 267, 268, 269, 270, 271, 272, 273, 274, 275, 276, 277, 278, 279, 280, 281, 282, 283, 284, 285, 286, 287, 288, 289, 290, 291, 292, 293, 294, 295, 296, 297, 298, 299, 300, 301, 302, 303, 304, 305, 306, 307, 308, 309, 310, 311, 312, 313, 314, 315, 316, 317, 318, 319, 320, 321, 322, 323, 324, 325, 326, 327, 328, 329, 330, 331, 332, 333, 334, 335, 336, 337, 338, 339, 340, 341, 342, 343, 344, 345, 346, 347, 348, 349, 350, 351, 352, 353, 354, 355, 356, 357, 358, 359, 360, 361, 362, 363, 364, 365, 366, 367, 368, 369, 370, 371, 372, 373, 374, 375, 376, 377, 378, 379, 380, 381, 382, 383, 384, 385, 386, 387, 388, 389, 390, 391, 392, 393, 394, 395, 396, 397, 398, 399, 400, 401, 402, 403, 404, 405, 406, 407, 408, 409, 410, 411, 412, 413, 414, 415, 416, 417, 418, 419, 420, 421, 422, 423, 424, 425, 426, 427, 428, 429, 430, 431, 432, 433, 434, 435, 436, 437, 438, 439, 440, 441, 442, 443, 444, 445, 446, 447, 448, 449, 450, 451, 452, 453, 454, 455, 456, 457, 458, 459, 460, 461, 462, 463, 464, 465, 466, 467, 468, 469, 470, 471, 472, 473, 474, 475, 476, 477, 478, 479, 480, 481, 482, 483, 484, 485, 486, 487, 488, 489, 490, 491, 492, 493, 494, 495, 496, 497, 498, 499, 500, 501, 502, 503, 504, 505, 506, 507, 508, 509, 510, 511, 512, 513, 514, 515, 516, 517, 518, 519, 520, 521, 522, 523, 524, 525, 526, 527, 528, 529, 530, 531, 532, 533, 534, 535, 536, 537, 538, 539, 540, 541, 542, 543, 544, 545, 546, 547, 548, 549, 550, 551, 552, 553, 554, 555, 556, 557, 558, 559, 560, 561, 562, 563, 564, 565, 566, 567, 568, 569, 570, 571, 572, 573, 574, 575, 576, 577, 578, 579, 580, 581],
      "AcquisitionTime": ["163807.740000", "163808.527500", "163809.317500", "163810.105000", "163810.892500", "163811.680000", "163812.470000", "163813.257500", "163814.045000", "163814.832500", "163815.622500", "163816.410000", "163817.197500", "163817.985000", "163818.775000", "163819.562500", "163820.350000", "163821.137500", "163821.927500", "163822.715000", "163823.502500", "163824.292500", "163825.080000", "163825.867500", "163826.655000", "163827.445000", "163828.232500", "163829.020000", "163829.807500", "163830.597500", "163831.385000", "163832.172500", "163832.960000", "163833.750000", "163834.537500", "163835.325000", "163836.112500", "163836.902500", "163837.690000", "163838.477500", "163839.265000", "163840.055000", "163840.842500", "163841.630000", "163842.420000", "163843.207500", "163843.995000", "163844.782500", "163845.572500", "163846.360000", "163847.147500", "163847.935000", "163848.725000", "163849.512500", "163850.300000", "163851.087500", "163851.877500", "163852.665000", "163853.452500", "163854.240000", "163855.030000", "163855.817500", "163856.605000", "163857.392500", "163858.182500", "163858.970000", "163859.757500", "163900.547500", "163901.335000", "163902.122500", "163902.910000", "163903.700000", "163904.487500", "163905.275000", "163906.062500", "163906.852500", "163907.640000", "163908.427500", "163909.215000", "163910.005000", "163910.792500", "163911.580000", "163912.367500", "163913.157500", "163913.945000", "163914.732500", "163915.520000", "163916.310000", "163917.097500", "163917.885000", "163918.675000", "163919.462500", "163920.250000", "163921.037500", "163921.827500", "163922.615000", "163923.402500", "163924.190000", "163924.980000", "163925.767500", "163926.555000", "163927.342500", "163928.132500", "163928.920000", "163929.707500", "163930.495000", "163931.285000", "163932.072500", "163932.860000", "163933.647500", "163934.437500", "163935.225000", "163936.012500", "163936.802500", "163937.590000", "163938.377500", "163939.165000", "163939.955000", "163940.742500", "163941.530000", "163942.317500", "163943.107500", "163943.895000", "163944.682500", "163945.470000", "163946.260000", "163947.047500", "163947.835000", "163948.622500", "163949.412500", "163950.200000", "163950.987500", "163951.775000", "163952.565000", "163953.352500", "163954.140000", "163954.930000", "163955.717500", "163956.505000", "163957.292500", "163958.082500", "163958.870000", "163959.657500", "164000.445000", "164001.235000", "164002.022500", "164002.810000", "164003.597500", "164004.387500", "164005.175000", "164005.962500", "164006.750000", "164007.540000", "164008.327500", "164009.115000", "164009.902500", "164010.692500", "164011.480000", "164012.267500", "164013.057500", "164013.845000", "164014.632500", "164015.420000", "164016.210000", "164016.997500", "164017.785000", "164018.572500", "164019.362500", "164020.150000", "164020.937500", "164021.725000", "164022.515000", "164023.302500", "164024.090000", "164024.877500", "164025.667500", "164026.455000", "164027.242500", "164028.030000", "164028.820000", "164029.607500", "164030.395000", "164031.185000", "164031.972500", "164032.760000", "164033.547500", "164034.337500", "164035.125000", "164035.912500", "164036.700000", "164037.490000", "164038.277500", "164039.065000", "164039.852500", "164040.642500", "164041.430000", "164042.217500", "164043.005000", "164043.795000", "164044.582500", "164045.370000", "164046.157500", "164046.947500", "164047.735000", "164048.522500", "164049.312500", "164050.100000", "164050.887500", "164051.675000", "164052.465000", "164053.252500", "164054.040000", "164054.827500", "164055.617500", "164056.405000", "164057.192500", "164057.980000", "164058.770000", "164059.557500", "164100.345000", "164101.132500", "164101.922500", "164102.710000", "164103.497500", "164104.287500", "164105.075000", "164105.862500", "164106.650000", "164107.440000", "164108.227500", "164109.015000", "164109.802500", "164110.592500", "164111.380000", "164112.167500", "164112.955000", "164113.745000", "164114.532500", "164115.320000", "164116.107500", "164116.897500", "164117.685000", "164118.472500", "164119.260000", "164120.050000", "164120.837500", "164121.625000", "164122.415000", "164123.202500", "164123.990000", "164124.777500", "164125.567500", "164126.355000", "164127.142500", "164127.930000", "164128.720000", "164129.507500", "164130.295000", "164131.082500", "164131.872500", "164132.660000", "164133.447500", "164134.235000", "164135.025000", "164135.812500", "164136.600000", "164137.387500", "164138.177500", "164138.965000", "164139.752500", "164140.542500", "164141.330000", "164142.117500", "164142.905000", "164143.695000", "164144.482500", "164145.270000", "164146.057500", "164146.847500", "164147.635000", "164148.422500", "164149.210000", "164150.000000", "164150.787500", "164151.575000", "164152.362500", "164153.152500", "164153.940000", "164154.727500", "164155.515000", "164156.305000", "164157.092500", "164157.880000", "164158.670000", "164159.457500", "164200.245000", "164201.032500", "164201.822500", "164202.610000", "164203.397500", "164204.185000", "164204.975000", "164205.762500", "164206.550000", "164207.337500", "164208.127500", "164208.915000", "164209.702500", "164210.490000", "164211.280000", "164212.067500", "164212.855000", "164213.642500", "164214.432500", "164215.220000", "164216.007500", "164216.797500", "164217.585000", "164218.372500", "164219.160000", "164219.950000", "164220.737500", "164221.525000", "164222.312500", "164223.102500", "164223.890000", "164224.677500", "164225.465000", "164226.255000", "164227.042500", "164227.830000", "164228.617500", "164229.407500", "164230.195000", "164230.982500", "164231.770000", "164232.560000", "164233.347500", "164234.135000", "164234.925000", "164235.712500", "164236.500000", "164237.287500", "164238.077500", "164238.865000", "164239.652500", "164240.440000", "164241.230000", "164242.017500", "164242.805000", "164243.592500", "164244.382500", "164245.170000", "164245.957500", "164246.745000", "164247.535000", "164248.322500", "164249.110000", "164249.897500", "164250.687500", "164251.475000", "164252.262500", "164253.052500", "164253.840000", "164254.627500", "164255.415000", "164256.205000", "164256.992500", "164257.780000", "164258.567500", "164259.357500", "164300.145000", "164300.932500", "164301.720000", "164302.510000", "164303.297500", "164304.085000", "164304.872500", "164305.662500", "164306.450000", "164307.237500", "164308.025000", "164308.815000", "164309.602500", "164310.390000", "164311.180000", "164311.967500", "164312.755000", "164313.542500", "164314.332500", "164315.120000", "164315.907500", "164316.695000", "164317.485000", "164318.272500", "164319.060000", "164319.847500", "164320.637500", "164321.425000", "164322.212500", "164323.000000", "164323.790000", "164324.577500", "164325.365000", "164326.152500", "164326.942500", "164327.730000", "164328.517500", "164329.307500", "164330.095000", "164330.882500", "164331.670000", "164332.460000", "164333.247500", "164334.035000", "164334.822500", "164335.612500", "164336.400000", "164337.187500", "164337.975000", "164338.765000", "164339.552500", "164340.340000", "164341.127500", "164341.917500", "164342.705000", "164343.492500", "164344.280000", "164345.070000", "164345.857500", "164346.645000", "164347.435000", "164348.222500", "164349.010000", "164349.797500", "164350.587500", "164351.375000", "164352.162500", "164352.950000", "164353.740000", "164354.527500", "164355.315000", "164356.102500", "164356.892500", "164357.680000", "164358.467500", "164359.255000", "164400.045000", "164400.832500", "164401.620000", "164402.407500", "164403.197500", "164403.985000", "164404.772500", "164405.562500", "164406.350000", "164407.137500", "164407.925000", "164408.715000", "164409.502500", "164410.290000", "164411.077500", "164411.867500", "164412.655000", "164413.442500", "164414.230000", "164415.020000", "164415.807500", "164416.595000", "164417.382500", "164418.172500", "164418.960000", "164419.747500", "164420.537500", "164421.325000", "164422.112500", "164422.900000", "164423.690000", "164424.477500", "164425.265000", "164426.052500", "164426.842500", "164427.630000", "164428.417500", "164429.205000", "164429.995000", "164430.782500", "164431.570000", "164432.357500", "164433.147500", "164433.935000", "164434.722500", "164435.510000", "164436.300000", "164437.087500", "164437.875000", "164438.665000", "164439.452500", "164440.240000", "164441.027500", "164441.817500", "164442.605000", "164443.392500", "164444.180000", "164444.970000", "164445.757500", "164446.545000", "164447.332500", "164448.122500", "164448.910000", "164449.697500", "164450.485000", "164451.275000", "164452.062500", "164452.850000", "164453.637500", "164454.427500", "164455.215000", "164456.002500", "164456.792500", "164457.580000", "164458.367500", "164459.155000", "164459.945000", "164500.732500", "164501.520000", "164502.307500", "164503.097500", "164503.885000", "164504.672500", "164505.460000", "164506.250000", "164507.037500", "164507.825000", "164508.612500", "164509.402500", "164510.190000", "164510.977500", "164511.765000", "164512.555000", "164513.342500", "164514.130000", "164514.920000", "164515.707500", "164516.495000", "164517.282500", "164518.072500", "164518.860000", "164519.647500", "164520.435000", "164521.225000", "164522.012500", "164522.800000", "164523.587500", "164524.377500", "164525.165000", "164525.952500", "164526.740000", "164527.530000", "164528.317500", "164529.105000", "164529.892500", "164530.682500", "164531.470000", "164532.257500", "164533.047500", "164533.835000", "164534.622500", "164535.410000", "164536.200000", "164536.987500", "164537.775000", "164538.562500", "164539.352500", "164540.140000", "164540.927500", "164541.715000", "164542.505000", "164543.292500", "164544.080000", "164544.867500"],
      "ContentTime": ["182519.515000", "182519.515000", "182519.515000", "182519.515000", "182519.515000", "182519.515000", "182619.484000", "182619.484000", "182619.484000", "182619.484000", "182619.484000", "182619.500000", "182619.500000", "182619.500000", "182619.500000", "182619.500000", "182619.500000", "182619.515000", "182619.515000", "182619.515000", "182619.515000", "182619.515000", "182619.515000", "182619.531000", "182619.531000", "182619.531000", "182619.531000", "182619.531000", "182619.531000", "182619.546000", "182619.546000", "182619.546000", "182619.546000", "182619.546000", "182719.484000", "182719.484000", "182719.484000", "182719.484000", "182719.484000", "182719.500000", "182719.500000", "182719.500000", "182719.500000", "182719.500000", "182719.500000", "182719.515000", "182719.515000", "182719.515000", "182719.515000", "182719.515000", "182719.515000", "182719.515000", "182719.531000", "182719.531000", "182719.531000", "182719.531000", "182719.531000", "182719.531000", "182719.546000", "182719.546000", "182719.546000", "182719.546000", "182719.546000", "182759.484000", "182759.484000", "182759.484000", "182759.484000", "182759.484000", "182759.500000", "182759.500000", "182759.500000", "182759.500000", "182759.500000", "182759.500000", "182759.515000", "182759.515000", "182759.515000", "182759.515000", "182759.515000", "182759.515000", "182759.531000", "182859.484000", "182859.484000", "182859.484000", "182859.484000", "182859.484000", "182859.500000", "182859.500000", "182859.500000", "182859.500000", "182859.500000", "182859.500000", "182859.515000", "182859.515000", "182859.515000", "182859.515000", "182859.515000", "182859.515000", "182859.515000", "182859.531000", "182859.531000", "182859.531000", "182859.531000", "182859.531000", "182859.531000", "182859.546000", "182859.546000", "182859.546000", "182859.546000", "182859.546000", "182959.500000", "182959.500000", "182959.500000", "182959.500000", "182959.500000", "182959.500000", "182959.500000", "182959.515000", "182959.515000", "182959.515000", "182959.515000", "182959.515000", "182959.515000", "182959.531000", "182959.531000", "182959.531000", "182959.531000", "182959.531000", "182959.531000", "182959.531000", "182959.546000", "182959.546000", "182959.546000", "182959.546000", "182959.546000", "182959.546000", "182959.546000", "182959.562000", "183059.484000", "183059.484000", "183059.484000", "183059.484000", "183059.484000", "183059.500000", "183059.500000", "183059.500000", "183059.500000", "183059.500000", "183059.500000", "183059.515000", "183059.515000", "183059.515000", "183059.515000", "183059.515000", "183059.515000", "183059.531000", "183059.531000", "183059.531000", "183059.531000", "183059.531000", "183059.531000", "183059.546000", "183059.546000", "183059.546000", "183059.546000", "183059.546000", "183159.484000", "183159.484000", "183159.484000", "183159.484000", "183159.484000", "183159.500000", "183159.500000", "183159.500000", "183159.500000", "183159.500000", "183159.500000", "183159.515000", "183159.515000", "183159.515000", "183159.515000", "183159.515000", "183159.515000", "183159.531000", "183159.531000", "183159.531000", "183159.531000", "183159.531000", "183159.531000", "183159.531000", "183159.546000", "183159.546000", "183159.546000", "183159.546000", "183159.546000", "183259.484000", "183259.484000", "183259.484000", "183259.484000", "183259.500000", "183259.500000", "183259.500000", "183259.500000", "183259.500000", "183259.500000", "183259.500000", "183259.515000", "183259.515000", "183259.515000", "183259.515000", "183259.515000", "183259.515000", "183259.515000", "183259.531000", "183259.531000", "183259.531000", "183259.531000", "183259.531000", "183259.531000", "183259.546000", "183259.546000", "183259.546000", "183259.546000", "183359.484000", "183359.484000", "183359.484000", "183359.484000", "183359.500000", "183359.500000", "183359.500000", "183359.500000", "183359.500000", "183359.500000", "183359.500000", "183359.515000", "183359.515000", "183359.515000", "183359.515000", "183359.515000", "183359.515000", "183359.515000", "183359.531000", "183359.531000", "183359.531000", "183359.531000", "183359.531000", "183359.546000", "183359.546000", "183359.546000", "183359.546000", "183359.546000", "183459.484000", "183459.484000", "183459.484000", "183459.484000", "183459.484000", "183459.500000", "183459.500000", "183459.500000", "183459.500000", "183459.500000", "183459.500000", "183459.515000", "183459.515000", "183459.515000", "183459.515000", "183459.515000", "183459.515000", "183459.515000", "183459.531000", "183459.531000", "183459.531000", "183459.531000", "183459.531000", "183459.531000", "183459.546000", "183459.546000", "183459.546000", "183459.546000", "183459.546000", "183559.484000", "183559.484000", "183559.484000", "183559.484000", "183559.500000", "183559.500000", "183559.500000", "183559.500000", "183559.500000", "183559.500000", "183559.500000", "183559.515000", "183559.515000", "183559.515000", "183559.515000", "183559.515000", "183559.515000", "183559.515000", "183559.531000", "183559.531000", "183559.531000", "183559.531000", "183559.531000", "183559.531000", "183559.546000", "183559.546000", "183559.546000", "183559.546000", "183659.484000", "183659.484000", "183659.484000", "183659.484000", "183659.484000", "183659.500000", "183659.500000", "183659.500000", "183659.500000", "183659.500000", "183659.500000", "183659.515000", "183659.515000", "183659.515000", "183659.515000", "183659.515000", "183659.531000", "183659.531000", "183659.531000", "183659.531000", "183659.531000", "183659.531000", "183659.531000", "183659.546000", "183659.546000", "183659.546000", "183659.546000", "183659.546000", "183759.484000", "183759.484000", "183759.484000", "183759.484000", "183759.484000", "183759.500000", "183759.500000", "183759.500000", "183759.500000", "183759.500000", "183759.500000", "183759.515000", "183759.515000", "183759.515000", "183759.515000", "183759.515000", "183759.515000", "183759.515000", "183759.531000", "183759.531000", "183759.531000", "183759.531000", "183759.531000", "183759.531000", "183759.531000", "183759.546000", "183759.546000", "183759.546000", "183819.484000", "183819.484000", "183819.484000", "183819.484000", "183819.484000", "183819.500000", "183819.500000", "183819.500000", "183819.500000", "183819.500000", "183919.484000", "183919.484000", "183919.484000", "183919.484000", "183919.484000", "183919.500000", "183919.500000", "183919.500000", "183919.500000", "183919.515000", "183919.515000", "183919.515000", "183919.515000", "183919.515000", "183919.515000", "183919.515000", "183919.531000", "183919.531000", "183919.531000", "183919.531000", "183919.531000", "183919.531000", "183919.546000", "183919.546000", "183919.546000", "183919.546000", "183919.546000", "183919.546000", "184019.484000", "184019.484000", "184019.484000", "184019.484000", "184019.484000", "184019.500000", "184019.500000", "184019.500000", "184019.500000", "184019.500000", "184019.500000", "184019.515000", "184019.515000", "184019.515000", "184019.515000", "184019.515000", "184019.515000", "184019.515000", "184019.531000", "184019.531000", "184019.531000", "184019.531000", "184019.531000", "184019.531000", "184019.531000", "184019.546000", "184019.546000", "184019.546000", "184119.484000", "184119.484000", "184119.484000", "184119.484000", "184119.500000", "184119.500000", "184119.500000", "184119.500000", "184119.500000", "184119.500000", "184119.500000", "184119.515000", "184119.515000", "184119.515000", "184119.515000", "184119.515000", "184119.515000", "184119.531000", "184119.531000", "184119.531000", "184119.531000", "184119.531000", "184119.531000", "184119.546000", "184119.546000", "184119.546000", "184119.546000", "184119.546000", "184119.546000", "184219.484000", "184219.484000", "184219.484000", "184219.484000", "184219.484000", "184219.500000", "184219.500000", "184219.500000", "184219.500000", "184219.500000", "184219.500000", "184219.515000", "184219.515000", "184219.515000", "184219.515000", "184219.515000", "184219.515000", "184219.515000", "184219.531000", "184219.531000", "184219.531000", "184219.531000", "184219.531000", "184219.531000", "184219.546000", "184219.546000", "184219.546000", "184219.546000", "184319.484000", "184319.484000", "184319.484000", "184319.484000", "184319.500000", "184319.500000", "184319.500000", "184319.500000", "184319.500000", "184319.500000", "184319.500000", "184319.515000", "184319.515000", "184319.515000", "184319.515000", "184319.515000", "184319.515000", "184319.531000", "184319.531000", "184319.531000", "184319.531000", "184319.531000", "184319.531000", "184319.531000", "184319.546000", "184319.546000", "184319.546000", "184319.546000", "184419.484000", "184419.484000", "184419.484000", "184419.484000", "184419.484000", "184419.500000", "184419.500000", "184419.500000", "184419.500000", "184419.500000", "184419.500000", "184419.515000", "184419.515000", "184419.515000", "184419.515000", "184419.515000", "184419.531000", "184419.531000", "184419.531000", "184419.531000", "184419.531000", "184419.531000", "184419.546000", "184419.546000", "184419.546000", "184419.546000", "184419.546000", "184419.546000", "184419.546000", "184519.484000", "184519.484000", "184519.484000", "184519.484000", "184519.500000", "184519.500000", "184519.500000", "184519.500000", "184519.500000", "184519.500000", "184519.500000", "184519.515000", "184519.515000", "184519.515000", "184519.515000", "184519.515000", "184519.515000", "184519.515000", "184519.531000", "184519.531000", "184519.531000", "184519.531000", "184519.531000", "184519.546000", "184519.546000", "184519.546000", "184519.546000", "184519.546000", "184537.046000", "184537.046000", "184537.046000", "184537.062000", "184537.062000", "184537.062000", "184537.062000", "184537.062000", "184537.062000"],
