{
  "AcquisitionMatrixPE": 104,
  "AcquisitionNumber": 1,
  "AcquisitionTime": "15:25:8.755000",
  "BandwidthPerPixelPhaseEncode": 13.935,
  "BaseResolution": 104,
  "CoilString": "C:HEA;HEP",
  "ConversionSoftware": "dcm2niix",
  "ConversionSoftwareVersion": "v1.0.20210317",
  "DerivedVendorReportedEchoSpacing": 0.000690017,
  "DeviceSerialNumber": "35450",
  "DwellTime": 2.5e-06,
  "EchoTime": 0.0348,
  "EffectiveEchoSpacing": 0.000690017,
  "FlipAngle": 55,
  "ImageComments": "Unaliased MB8/PE3",
  "ImageOrientationPatientDICOM": [1, 1.66966e-07, -1.05239e-05, -1.61649e-09, 0.999877, 0.0157099],
  "ImageType": [
    "ORIGINAL",
    "PRIMARY",
    "M",
    "MB",
    "ND",
    "MOSAIC"
],
  "ImagingFrequency": 123.235,
  "InPlanePhaseEncodingDirectionDICOM": "COL",
  "InstitutionAddress": "Univeristy Ave. 197,Newark,North East,US,07102-1814",
  "InstitutionName": "RUBIC",
  "InstitutionalDepartmentName": "Department",
  "MRAcquisitionType": "2D",
  "MagneticFieldStrength": 3,
  "Manufacturer": "Siemens",
  "ManufacturersModelName": "TrioTim",
  "Modality": "MR",
  "MultibandAccelerationFactor": 8,
  "PartialFourier": 0.875,
  "PatientPosition": "HFS",
  "PercentPhaseFOV": 100,
  "PercentSampling": 100,
  "PhaseEncodingDirection": "j-",
  "PhaseEncodingSteps": 91,
  "PhaseResolution": 1,
  "PixelBandwidth": 1923,
  "ProcedureStepDescription": "Cole^Michael",
  "ProtocolName": "cmrr_mbep2d_bold_2mm_MB8_Rest",
  "PulseSequenceDetails": "%CustomerSeq%\\cmrr_mbep2d_bold",
  "ReceiveCoilName": "32Ch_Head",
  "ReconMatrixPE": 104,
  "RepetitionTime": 0.785,
  "SAR": 0.14486,
  "ScanOptions": "PFP\\FS",
  "ScanningSequence": "EP",
  "SequenceName": "epfid2d1_104",
  "SequenceVariant": "SK\\SS",
  "SeriesDescription": "cmrr_mbep2d_bold_2mm_MB8_Rest",
  "SeriesNumber": 9,
  "ShimSetting": [2084, -394, -7267, 505, -100, -411, 424, 52],
  "SliceThickness": 2,
  "SliceTiming": [0, 0.4375, 0.0875, 0.525, 0.175, 0.6125, 0.2625, 0.7, 0.35, 0, 0.4375, 0.0875, 0.525, 0.175, 0.6125, 0.2625, 0.7, 0.35, 0, 0.4375, 0.0875, 0.525, 0.175, 0.6125, 0.2625, 0.7, 0.35, 0, 0.4375, 0.0875, 0.525, 0.175, 0.6125, 0.2625, 0.7, 0.35, 0, 0.4375, 0.0875, 0.525, 0.175, 0.6125, 0.2625, 0.7, 0.35, 0, 0.4375, 0.0875, 0.525, 0.175, 0.6125, 0.2625, 0.7, 0.35, 0, 0.4375, 0.0875, 0.525, 0.175, 0.6125, 0.2625, 0.7, 0.35, 0, 0.4375, 0.0875, 0.525, 0.175, 0.6125, 0.2625, 0.7, 0.35],
  "SoftwareVersions": "syngo MR B19",
  "SpacingBetweenSlices": 2,
  "StationName": "MRC35450",
  "TaskName": "rest",
  "TotalReadoutTime": 0.0710717,
  "TxRefAmp": 351.498,
  "dcmmeta_affine": [
    [-2.0, -3.232978107448048e-09, -2.105039129673969e-05, 106.00995635986328],
    [-3.3393141052329156e-07, 1.9997532367706299, 0.03141973167657852, -82.43989562988281],
    [-2.1047742848168127e-05, -0.03141973167657852, 1.9997531175613403, -94.73805236816406],
    [0.0, 0.0, 0.0, 1.0]
],
  "dcmmeta_reorient_transform": [
    [0.0, -1.0, 0.0, 103.0],
    [1.0, 0.0, 0.0, 0.0],
    [0.0, 0.0, 1.0, 0.0],
    [0.0, 0.0, 0.0, 1.0]
],
  "dcmmeta_shape": [104, 104, 72, 1070],
  "dcmmeta_slice_dim": 2,
  "dcmmeta_version": 0.6,
  "global": {
    "const": {
      "AcquisitionMatrix": [104, 0, 0, 104],
      "AngioFlag": "N",
      "BitsAllocated": 16,
      "BitsStored": 12,
      "Columns": 936,
      "EchoNumbers": 1,
      "EchoTime": 34.8,
      "EchoTrainLength": 1,
      "FlipAngle": 55.0,
      "HighBit": 11,
      "ImageOrientationPatient": [0.99999999994461, 1.66965699e-07, -1.05238712e-05, -1.616489e-09, 0.9998765924413, 0.01570986594363],
      "ImagePositionPatient": [-938.00995193396, -955.43214550795, -111.03613691417],
      "ImageType": [
        "ORIGINAL",
        "PRIMARY",
        "M",
        "MB",
        "ND",
        "MOSAIC"
],
      "ImagedNucleus": "1H",
      "ImagingFrequency": 123.234651,
      "InPlanePhaseEncodingDirection": "COL",
      "MRAcquisitionType": "2D",
      "MagneticFieldStrength": 3.0,
      "Manufacturer": "SIEMENS",
      "ManufacturerModelName": "TrioTim",
      "Modality": "MR",
      "NumberOfAverages": 1.0,
      "NumberOfPhaseEncodingSteps": 91,
      "PercentPhaseFieldOfView": 100.0,
      "PercentSampling": 100.0,
      "PerformedProcedureStepStartTime": "143538.906000",
      "PhotometricInterpretation": "MONOCHROME2",
      "PixelBandwidth": 1923.0,
      "PixelRepresentation": 0,
      "PixelSpacing": [2.0, 2.0],
      "ProtocolName": "cmrr_mbep2d_bold_2mm_MB8_Rest",
      "RepetitionTime": 785.0,
      "Rows": 936,
      "SAR": 0.14485967273347,
      "SamplesPerPixel": 1,
      "ScanOptions": [
        "PFP",
        "FS"
],
      "ScanningSequence": "EP",
      "SequenceName": "epfid2d1_104",
      "SequenceVariant": [
        "SK",
        "SS"
],
      "SeriesDescription": "cmrr_mbep2d_bold_2mm_MB8_Rest",
      "SeriesNumber": 9,
      "SeriesTime": "152616.703000",
      "SliceLocation": -96.022596024229,
      "SliceThickness": 2.0,
      "SmallestImagePixelValue": 0,
      "SoftwareVersions": "syngo MR B19",
      "SpacingBetweenSlices": 1.9999999881239,
      "SpecificCharacterSet": "ISO_IR 100",
      "StudyID": "1",
      "StudyTime": "143538.875000",
      "TransmitCoilName": "Body",
      "VariableFlipAngleFlag": "N",
      "WindowCenterWidthExplanation": "Algo1",
      "dBdt": 0.0},
    "slices": {}
  },
  "time": {
    "samples": {
      "AcquisitionNumber": [1, 2, 3, 4, 5, 6, 7, 8, 9, 10, 11, 12, 13, 14, 15, 16, 17, 18, 19, 20, 21, 22, 23, 24, 25, 26, 27, 28, 29, 30, 31, 32, 33, 34, 35, 36, 37, 38, 39, 40, 41, 42, 43, 44, 45, 46, 47, 48, 49, 50, 51, 52, 53, 54, 55, 56, 57, 58, 59, 60, 61, 62, 63, 64, 65, 66, 67, 68, 69, 70, 71, 72, 73, 74, 75, 76, 77, 78, 79, 80, 81, 82, 83, 84, 85, 86, 87, 88, 89, 90, 91, 92, 93, 94, 95, 96, 97, 98, 99, 100, 101, 102, 103, 104, 105, 106, 107, 108, 109, 110, 111, 112, 113, 114, 115, 116, 117, 118, 119, 120, 121, 122, 123, 124, 125, 126, 127, 128, 129, 130, 131, 132, 133, 134, 135, 136, 137, 138, 139, 140, 141, 142, 143, 144, 145, 146, 147, 148, 149, 150, 151, 152, 153, 154, 155, 156, 157, 158, 159, 160, 161, 162, 163, 164, 165, 166, 167, 168, 169, 170, 171, 172, 173, 174, 175, 176, 177, 178, 179, 180, 181, 182, 183, 184, 185, 186, 187, 188, 189, 190, 191, 192, 193, 194, 195, 196, 197, 198, 199, 200, 201, 202, 203, 204, 205, 206, 207, 208, 209, 210, 211, 212, 213, 214, 215, 216, 217, 218, 219, 220, 221, 222, 223, 224, 225, 226, 227, 228, 229, 230, 231, 232, 233, 234, 235, 236, 237, 238, 239, 240, 241, 242, 243, 244, 245, 246, 247, 248, 249, 250, 251, 252, 253, 254, 255, 256, 257, 258, 259, 260, 261, 262, 263, 264, 265, 266, 267, 268, 269, 270, 271, 272, 273, 274, 275, 276, 277, 278, 279, 280, 281, 282, 283, 284, 285, 286, 287, 288, 289, 290, 291, 292, 293, 294, 295, 296, 297, 298, 299, 300, 301, 302, 303, 304, 305, 306, 307, 308, 309, 310, 311, 312, 313, 314, 315, 316, 317, 318, 319, 320, 321, 322, 323, 324, 325, 326, 327, 328, 329, 330, 331, 332, 333, 334, 335, 336, 337, 338, 339, 340, 341, 342, 343, 344, 345, 346, 347, 348, 349, 350, 351, 352, 353, 354, 355, 356, 357, 358, 359, 360, 361, 362, 363, 364, 365, 366, 367, 368, 369, 370, 371, 372, 373, 374, 375, 376, 377, 378, 379, 380, 381, 382, 383, 384, 385, 386, 387, 388, 389, 390, 391, 392, 393, 394, 395, 396, 397, 398, 399, 400, 401, 402, 403, 404, 405, 406, 407, 408, 409, 410, 411, 412, 413, 414, 415, 416, 417, 418, 419, 420, 421, 422, 423, 424, 425, 426, 427, 428, 429, 430, 431, 432, 433, 434, 435, 436, 437, 438, 439, 440, 441, 442, 443, 444, 445, 446, 447, 448, 449, 450, 451, 452, 453, 454, 455, 456, 457, 458, 459, 460, 461, 462, 463, 464, 465, 466, 467, 468, 469, 470, 471, 472, 473, 474, 475, 476, 477, 478, 479, 480, 481, 482, 483, 484, 485, 486, 487, 488, 489, 490, 491, 492, 493, 494, 495, 496, 497, 498, 499, 500, 501, 502, 503, 504, 505, 506, 507, 508, 509, 510, 511, 512, 513, 514, 515, 516, 517, 518, 519, 520, 521, 522, 523, 524, 525, 526, 527, 528, 529, 530, 531, 532, 533, 534, 535, 536, 537, 538, 539, 540, 541, 542, 543, 544, 545, 546, 547, 548, 549, 550, 551, 552, 553, 554, 555, 556, 557, 558, 559, 560, 561, 562, 563, 564, 565, 566, 567, 568, 569, 570, 571, 572, 573, 574, 575, 576, 577, 578, 579, 580, 581, 582, 583, 584, 585, 586, 587, 588, 589, 590, 591, 592, 593, 594, 595, 596, 597, 598, 599, 600, 601, 602, 603, 604, 605, 606, 607, 608, 609, 610, 611, 612, 613, 614, 615, 616, 617, 618, 619, 620, 621, 622, 623, 624, 625, 626, 627, 628, 629, 630, 631, 632, 633, 634, 635, 636, 637, 638, 639, 640, 641, 642, 643, 644, 645, 646, 647, 648, 649, 650, 651, 652, 653, 654, 655, 656, 657, 658, 659, 660, 661, 662, 663, 664, 665, 666, 667, 668, 669, 670, 671, 672, 673, 674, 675, 676, 677, 678, 679, 680, 681, 682, 683, 684, 685, 686, 687, 688, 689, 690, 691, 692, 693, 694, 695, 696, 697, 698, 699, 700, 701, 702, 703, 704, 705, 706, 707, 708, 709, 710, 711, 712, 713, 714, 715, 716, 717, 718, 719, 720, 721, 722, 723, 724, 725, 726, 727, 728, 729, 730, 731, 732, 733, 734, 735, 736, 737, 738, 739, 740, 741, 742, 743, 744, 745, 746, 747, 748, 749, 750, 751, 752, 753, 754, 755, 756, 757, 758, 759, 760, 761, 762, 763, 764, 765, 766, 767, 768, 769, 770, 771, 772, 773, 774, 775, 776, 777, 778, 779, 780, 781, 782, 783, 784, 785, 786, 787, 788, 789, 790, 791, 792, 793, 794, 795, 796, 797, 798, 799, 800, 801, 802, 803, 804, 805, 806, 807, 808, 809, 810, 811, 812, 813, 814, 815, 816, 817, 818, 819, 820, 821, 822, 823, 824, 825, 826, 827, 828, 829, 830, 831, 832, 833, 834, 835, 836, 837, 838, 839, 840, 841, 842, 843, 844, 845, 846, 847, 848, 849, 850, 851, 852, 853, 854, 855, 856, 857, 858, 859, 860, 861, 862, 863, 864, 865, 866, 867, 868, 869, 870, 871, 872, 873, 874, 875, 876, 877, 878, 879, 880, 881, 882, 883, 884, 885, 886, 887, 888, 889, 890, 891, 892, 893, 894, 895, 896, 897, 898, 899, 900, 901, 902, 903, 904, 905, 906, 907, 908, 909, 910, 911, 912, 913, 914, 915, 916, 917, 918, 919, 920, 921, 922, 923, 924, 925, 926, 927, 928, 929, 930, 931, 932, 933, 934, 935, 936, 937, 938, 939, 940, 941, 942, 943, 944, 945, 946, 947, 948, 949, 950, 951, 952, 953, 954, 955, 956, 957, 958, 959, 960, 961, 962, 963, 964, 965, 966, 967, 968, 969, 970, 971, 972, 973, 974, 975, 976, 977, 978, 979, 980, 981, 982, 983, 984, 985, 986, 987, 988, 989, 990, 991, 992, 993, 994, 995, 996, 997, 998, 999, 1000, 1001, 1002, 1003, 1004, 1005, 1006, 1007, 1008, 1009, 1010, 1011, 1012, 1013, 1014, 1015, 1016, 1017, 1018, 1019, 1020, 1021, 1022, 1023, 1024, 1025, 1026, 1027, 1028, 1029, 1030, 1031, 1032, 1033, 1034, 1035, 1036, 1037, 1038, 1039, 1040, 1041, 1042, 1043, 1044, 1045, 1046, 1047, 1048, 1049, 1050, 1051, 1052, 1053, 1054, 1055, 1056, 1057, 1058, 1059, 1060, 1061, 1062, 1063, 1064, 1065, 1066, 1067, 1068, 1069, 1070],
      "AcquisitionTime": ["152508.755000", "152509.545000", "152510.332500", "152511.120000", "152511.907500", "152512.697500", "152513.485000", "152514.272500", "152515.060000", "152515.850000", "152516.637500", "152517.425000", "152518.212500", "152519.002500", "152519.790000", "152520.577500", "152521.365000", "152522.155000", "152522.942500", "152523.730000", "152524.517500", "152525.307500", "152526.095000", "152526.882500", "152527.672500", "152528.460000", "152529.247500", "152530.035000", "152530.825000", "152531.612500", "152532.400000", "152533.187500", "152533.977500", "152534.765000", "152535.552500", "152536.340000", "152537.130000", "152537.917500", "152538.705000", "152539.492500", "152540.282500", "152541.070000", "152541.857500", "152542.645000", "152543.435000", "152544.222500", "152545.010000", "152545.800000", "152546.587500", "152547.375000", "152548.162500", "152548.952500", "152549.740000", "152550.527500", "152551.315000", "152552.105000", "152552.892500", "152553.680000", "152554.467500", "152555.257500", "152556.045000", "152556.832500", "152557.620000", "152558.410000", "152559.197500", "152559.985000", "152600.772500", "152601.562500", "152602.350000", "152603.137500", "152603.927500", "152604.715000", "152605.502500", "152606.290000", "152607.080000", "152607.867500", "152608.655000", "152609.442500", "152610.232500", "152611.020000", "152611.807500", "152612.595000", "152613.385000", "152614.172500", "152614.960000", "152615.747500", "152616.537500", "152617.325000", "152618.112500", "152618.902500", "152619.690000", "152620.477500", "152621.265000", "152622.055000", "152622.842500", "152623.630000", "152624.417500", "152625.207500", "152625.995000", "152626.782500", "152627.570000", "152628.360000", "152629.147500", "152629.935000", "152630.722500", "152631.512500", "152632.300000", "152633.087500", "152633.875000", "152634.665000", "152635.452500", "152636.240000", "152637.030000", "152637.817500", "152638.605000", "152639.392500", "152640.182500", "152640.970000", "152641.757500", "152642.545000", "152643.335000", "152644.122500", "152644.910000", "152645.697500", "152646.487500", "152647.275000", "152648.062500", "152648.850000", "152649.640000", "152650.427500", "152651.215000", "152652.002500", "152652.792500", "152653.580000", "152654.367500", "152655.157500", "152655.945000", "152656.732500", "152657.520000", "152658.310000", "152659.097500", "152659.885000", "152700.672500", "152701.462500", "152702.250000", "152703.037500", "152703.825000", "152704.615000", "152705.402500", "152706.190000", "152706.977500", "152707.767500", "152708.555000", "152709.342500", "152710.130000", "152710.920000", "152711.707500", "152712.495000", "152713.285000", "152714.072500", "152714.860000", "152715.647500", "152716.437500", "152717.225000", "152718.012500", "152718.800000", "152719.590000", "152720.377500", "152721.165000", "152721.952500", "152722.742500", "152723.530000", "152724.317500", "152725.105000", "152725.895000", "152726.682500", "152727.470000", "152728.257500", "152729.047500", "152729.835000", "152730.622500", "152731.412500", "152732.200000", "152732.987500", "152733.775000", "152734.565000", "152735.352500", "152736.140000", "152736.927500", "152737.717500", "152738.505000", "152739.292500", "152740.080000", "152740.870000", "152741.657500", "152742.445000", "152743.232500", "152744.022500", "152744.810000", "152745.597500", "152746.385000", "152747.175000", "152747.962500", "152748.750000", "152749.540000", "152750.327500", "152751.115000", "152751.902500", "152752.692500", "152753.480000", "152754.267500", "152755.055000", "152755.845000", "152756.632500", "152757.420000", "152758.207500", "152758.997500", "152759.785000", "152800.572500", "152801.360000", "152802.150000", "152802.937500", "152803.725000", "152804.512500", "152805.302500", "152806.090000", "152806.877500", "152807.667500", "152808.455000", "152809.242500", "152810.030000", "152810.820000", "152811.607500", "152812.395000", "152813.182500", "152813.972500", "152814.760000", "152815.547500", "152816.335000", "152817.125000", "152817.912500", "152818.700000", "152819.487500", "152820.277500", "152821.065000", "152821.852500", "152822.640000", "152823.430000", "152824.217500", "152825.005000", "152825.795000", "152826.582500", "152827.370000", "152828.157500", "152828.947500", "152829.735000", "152830.522500", "152831.310000", "152832.100000", "152832.887500", "152833.675000", "152834.462500", "152835.252500", "152836.040000", "152836.827500", "152837.615000", "152838.405000", "152839.192500", "152839.980000", "152840.767500", "152841.557500", "152842.345000", "152843.132500", "152843.922500", "152844.710000", "152845.497500", "152846.285000", "152847.075000", "152847.862500", "152848.650000", "152849.437500", "152850.227500", "152851.015000", "152851.802500", "152852.590000", "152853.380000", "152854.167500", "152854.955000", "152855.742500", "152856.532500", "152857.320000", "152858.107500", "152858.895000", "152859.685000", "152900.472500", "152901.260000", "152902.050000", "152902.837500", "152903.625000", "152904.412500", "152905.202500", "152905.990000", "152906.777500", "152907.565000", "152908.355000", "152909.142500", "152909.930000", "152910.717500", "152911.507500", "152912.295000", "152913.082500", "152913.870000", "152914.660000", "152915.447500", "152916.235000", "152917.022500", "152917.812500", "152918.600000", "152919.387500", "152920.177500", "152920.965000", "152921.752500", "152922.540000", "152923.330000", "152924.117500", "152924.905000", "152925.692500", "152926.482500", "152927.270000", "152928.057500", "152928.845000", "152929.635000", "152930.422500", "152931.210000", "152931.997500", "152932.787500", "152933.575000", "152934.362500", "152935.152500", "152935.940000", "152936.727500", "152937.515000", "152938.305000", "152939.092500", "152939.880000", "152940.667500", "152941.457500", "152942.245000", "152943.032500", "152943.820000", "152944.610000", "152945.397500", "152946.185000", "152946.972500", "152947.762500", "152948.550000", "152949.337500", "152950.125000", "152950.915000", "152951.702500", "152952.490000", "152953.280000", "152954.067500", "152954.855000", "152955.642500", "152956.432500", "152957.220000", "152958.007500", "152958.795000", "152959.585000", "153000.372500", "153001.160000", "153001.947500", "153002.737500", "153003.525000", "153004.312500", "153005.100000", "153005.890000", "153006.677500", "153007.465000", "153008.252500", "153009.042500", "153009.830000", "153010.617500", "153011.407500", "153012.195000", "153012.982500", "153013.770000", "153014.560000", "153015.347500", "153016.135000", "153016.922500", "153017.712500", "153018.500000", "153019.287500", "153020.075000", "153020.865000", "153021.652500", "153022.440000", "153023.227500", "153024.017500", "153024.805000", "153025.592500", "153026.380000", "153027.170000", "153027.957500", "153028.745000", "153029.535000", "153030.322500", "153031.110000", "153031.897500", "153032.687500", "153033.475000", "153034.262500", "153035.050000", "153035.840000", "153036.627500", "153037.415000", "153038.202500", "153038.992500", "153039.780000", "153040.567500", "153041.355000", "153042.145000", "153042.932500", "153043.720000", "153044.507500", "153045.297500", "153046.085000", "153046.872500", "153047.662500", "153048.450000", "153049.237500", "153050.025000", "153050.815000", "153051.602500", "153052.390000", "153053.177500", "153053.967500", "153054.755000", "153055.542500", "153056.330000", "153057.120000", "153057.907500", "153058.695000", "153059.482500", "153100.272500", "153101.060000", "153101.847500", "153102.635000", "153103.425000", "153104.212500", "153105.000000", "153105.790000", "153106.577500", "153107.365000", "153108.152500", "153108.942500", "153109.730000", "153110.517500", "153111.305000", "153112.095000", "153112.882500", "153113.670000", "153114.457500", "153115.247500", "153116.035000", "153116.822500", "153117.610000", "153118.400000", "153119.187500", "153119.975000", "153120.762500", "153121.552500", "153122.340000", "153123.127500", "153123.917500", "153124.705000", "153125.492500", "153126.280000", "153127.070000", "153127.857500", "153128.645000", "153129.432500", "153130.222500", "153131.010000", "153131.797500", "153132.585000", "153133.375000", "153134.162500", "153134.950000", "153135.737500", "153136.527500", "153137.315000", "153138.102500", "153138.890000", "153139.680000", "153140.467500", "153141.255000", "153142.045000", "153142.832500", "153143.620000", "153144.407500", "153145.197500", "153145.985000", "153146.772500", "153147.560000", "153148.350000", "153149.137500", "153149.925000", "153150.712500", "153151.502500", "153152.290000", "153153.077500", "153153.865000", "153154.655000", "153155.442500", "153156.230000", "153157.017500", "153157.807500", "153158.595000", "153159.382500", "153200.172500", "153200.960000", "153201.747500", "153202.535000", "153203.325000", "153204.112500", "153204.900000", "153205.687500", "153206.477500", "153207.265000", "153208.052500", "153208.840000", "153209.630000", "153210.417500", "153211.205000", "153211.992500", "153212.782500", "153213.570000", "153214.357500", "153215.145000", "153215.935000", "153216.722500", "153217.510000", "153218.300000", "153219.087500", "153219.875000", "153220.662500", "153221.452500", "153222.240000", "153223.027500", "153223.815000", "153224.605000", "153225.392500", "153226.180000", "153226.967500", "153227.757500", "153228.545000", "153229.332500", "153230.120000", "153230.910000", "153231.697500", "153232.485000", "153233.272500", "153234.062500", "153234.850000", "153235.637500", "153236.427500", "153237.215000", "153238.002500", "153238.790000", "153239.580000", "153240.367500", "153241.155000", "153241.942500", "153242.732500", "153243.520000", "153244.307500", "153245.095000", "153245.885000", "153246.672500", "153247.460000", "153248.247500", "153249.037500", "153249.825000", "153250.612500", "153251.402500", "153252.190000", "153252.977500", "153253.765000", "153254.555000", "153255.342500", "153256.130000", "153256.917500", "153257.707500", "153258.495000", "153259.282500", "153300.070000", "153300.860000", "153301.647500", "153302.435000", "153303.222500", "153304.012500", "153304.800000", "153305.587500", "153306.375000", "153307.165000", "153307.952500", "153308.740000", "153309.530000", "153310.317500", "153311.105000", "153311.892500", "153312.682500", "153313.470000", "153314.257500", "153315.045000", "153315.835000", "153316.622500", "153317.410000", "153318.197500", "153318.987500", "153319.775000", "153320.562500", "153321.350000", "153322.140000", "153322.927500", "153323.715000", "153324.502500", "153325.292500", "153326.080000", "153326.867500", "153327.657500", "153328.445000", "153329.232500", "153330.020000", "153330.810000", "153331.597500", "153332.385000", "153333.172500", "153333.962500", "153334.750000", "153335.537500", "153336.325000", "153337.115000", "153337.902500", "153338.690000", "153339.477500", "153340.267500", "153341.055000", "153341.842500", "153342.630000", "153343.420000", "153344.207500", "153344.995000", "153345.785000", "153346.572500", "153347.360000", "153348.147500", "153348.937500", "153349.725000", "153350.512500", "153351.300000", "153352.090000", "153352.877500", "153353.665000", "153354.452500", "153355.242500", "153356.030000", "153356.817500", "153357.605000", "153358.395000", "153359.182500", "153359.970000", "153400.757500", "153401.547500", "153402.335000", "153403.122500", "153403.912500", "153404.700000", "153405.487500", "153406.275000", "153407.065000", "153407.852500", "153408.640000", "153409.427500", "153410.217500", "153411.005000", "153411.792500", "153412.580000", "153413.370000", "153414.157500", "153414.945000", "153415.732500", "153416.522500", "153417.310000", "153418.097500", "153418.885000", "153419.675000", "153420.462500", "153421.250000", "153422.040000", "153422.827500", "153423.615000", "153424.402500", "153425.192500", "153425.980000", "153426.767500", "153427.555000", "153428.345000", "153429.132500", "153429.920000", "153430.707500", "153431.497500", "153432.285000", "153433.072500", "153433.860000", "153434.650000", "153435.437500", "153436.225000", "153437.012500", "153437.802500", "153438.590000", "153439.377500", "153440.167500", "153440.955000", "153441.742500", "153442.530000", "153443.320000", "153444.107500", "153444.895000", "153445.682500", "153446.472500", "153447.260000", "153448.047500", "153448.835000", "153449.625000", "153450.412500", "153451.200000", "153451.987500", "153452.777500", "153453.565000", "153454.352500", "153455.140000", "153455.930000", "153456.717500", "153457.505000", "153458.295000", "153459.082500", "153459.870000", "153500.657500", "153501.447500", "153502.235000", "153503.022500", "153503.810000", "153504.600000", "153505.387500", "153506.175000", "153506.962500", "153507.752500", "153508.540000", "153509.327500", "153510.115000", "153510.905000", "153511.692500", "153512.480000", "153513.267500", "153514.057500", "153514.845000", "153515.632500", "153516.422500", "153517.210000", "153517.997500", "153518.785000", "153519.575000", "153520.362500", "153521.150000", "153521.937500", "153522.727500", "153523.515000", "153524.302500", "153525.090000", "153525.880000", "153526.667500", "153527.455000", "153528.242500", "153529.032500", "153529.820000", "153530.607500", "153531.395000", "153532.185000", "153532.972500", "153533.760000", "153534.550000", "153535.337500", "153536.125000", "153536.912500", "153537.702500", "153538.490000", "153539.277500", "153540.065000", "153540.855000", "153541.642500", "153542.430000", "153543.217500", "153544.007500", "153544.795000", "153545.582500", "153546.370000", "153547.160000", "153547.947500", "153548.735000", "153549.522500", "153550.312500", "153551.100000", "153551.887500", "153552.677500", "153553.465000", "153554.252500", "153555.040000", "153555.830000", "153556.617500", "153557.405000", "153558.192500", "153558.982500", "153559.770000", "153600.557500", "153601.345000", "153602.135000", "153602.922500", "153603.710000", "153604.497500", "153605.287500", "153606.075000", "153606.862500", "153607.652500", "153608.440000", "153609.227500", "153610.015000", "153610.805000", "153611.592500", "153612.380000", "153613.167500", "153613.957500", "153614.745000", "153615.532500", "153616.320000", "153617.110000", "153617.897500", "153618.685000", "153619.472500", "153620.262500", "153621.050000", "153621.837500", "153622.625000", "153623.415000", "153624.202500", "153624.990000", "153625.780000", "153626.567500", "153627.355000", "153628.142500", "153628.932500", "153629.720000", "153630.507500", "153631.295000", "153632.085000", "153632.872500", "153633.660000", "153634.447500", "153635.237500", "153636.025000", "153636.812500", "153637.600000", "153638.390000", "153639.177500", "153639.965000", "153640.752500", "153641.542500", "153642.330000", "153643.117500", "153643.907500", "153644.695000", "153645.482500", "153646.270000", "153647.060000", "153647.847500", "153648.635000", "153649.422500", "153650.212500", "153651.000000", "153651.787500", "153652.575000", "153653.365000", "153654.152500", "153654.940000", "153655.727500", "153656.517500", "153657.305000", "153658.092500", "153658.880000", "153659.670000", "153700.457500", "153701.245000", "153702.035000", "153702.822500", "153703.610000", "153704.397500", "153705.187500", "153705.975000", "153706.762500", "153707.550000", "153708.340000", "153709.127500", "153709.915000", "153710.702500", "153711.492500", "153712.280000", "153713.067500", "153713.855000", "153714.645000", "153715.432500", "153716.220000", "153717.007500", "153717.797500", "153718.585000", "153719.372500", "153720.162500", "153720.950000", "153721.737500", "153722.525000", "153723.315000", "153724.102500", "153724.890000", "153725.677500", "153726.467500", "153727.255000", "153728.042500", "153728.830000", "153729.620000", "153730.407500", "153731.195000", "153731.982500", "153732.772500", "153733.560000", "153734.347500", "153735.135000", "153735.925000", "153736.712500", "153737.500000", "153738.290000", "153739.077500", "153739.865000", "153740.652500", "153741.442500", "153742.230000", "153743.017500", "153743.805000", "153744.595000", "153745.382500", "153746.170000", "153746.957500", "153747.747500", "153748.535000", "153749.322500", "153750.110000", "153750.900000", "153751.687500", "153752.475000", "153753.262500", "153754.052500", "153754.840000", "153755.627500", "153756.417500", "153757.205000", "153757.992500", "153758.780000", "153759.570000", "153800.357500", "153801.145000", "153801.932500", "153802.722500", "153803.510000", "153804.297500", "153805.085000", "153805.875000", "153806.662500", "153807.450000", "153808.237500", "153809.027500", "153809.815000", "153810.602500", "153811.390000", "153812.180000", "153812.967500", "153813.755000", "153814.545000", "153815.332500", "153816.120000", "153816.907500", "153817.697500", "153818.485000", "153819.272500", "153820.060000", "153820.850000", "153821.637500", "153822.425000", "153823.212500", "153824.002500", "153824.790000", "153825.577500", "153826.365000", "153827.155000", "153827.942500", "153828.730000", "153829.517500", "153830.307500", "153831.095000", "153831.882500", "153832.672500", "153833.460000", "153834.247500", "153835.035000", "153835.825000", "153836.612500", "153837.400000", "153838.187500", "153838.977500", "153839.765000", "153840.552500", "153841.340000", "153842.130000", "153842.917500", "153843.705000", "153844.492500", "153845.282500", "153846.070000", "153846.857500", "153847.645000", "153848.435000", "153849.222500", "153850.010000", "153850.800000", "153851.587500", "153852.375000", "153853.162500", "153853.952500", "153854.740000", "153855.527500", "153856.315000", "153857.105000", "153857.892500", "153858.680000", "153859.467500", "153900.257500", "153901.045000", "153901.832500", "153902.620000", "153903.410000", "153904.197500", "153904.985000", "153905.772500", "153906.562500", "153907.350000", "153908.137500", "153908.927500", "153909.715000", "153910.502500", "153911.290000"],
