{
  "AcquisitionMatrixPE": 104,
  "AcquisitionNumber": 1,
  "AcquisitionTime": "14:08:55.740000",
  "BandwidthPerPixelPhaseEncode": 13.935,
  "BaseResolution": 104,
  "CoilString": "C:HEA;HEP",
  "ConversionSoftware": "dcm2niix",
  "ConversionSoftwareVersion": "v1.0.20210317",
  "DerivedVendorReportedEchoSpacing": 0.000690017,
  "DeviceSerialNumber": "35450",
  "DwellTime": 2.5e-06,
  "EchoTime": 0.0348,
  "EffectiveEchoSpacing": 0.000690017,
  "FlipAngle": 55,
  "ImageComments": "Unaliased MB8/PE3 (remote)",
  "ImageOrientationPatientDICOM": [1, 0, 0, 0, 1, 0],
  "ImageType": [
    "ORIGINAL",
    "PRIMARY",
    "M",
    "MB",
    "ND",
    "MOSAIC"
],
  "ImagingFrequency": 123.234,
  "InPlanePhaseEncodingDirectionDICOM": "COL",
  "InstitutionAddress": "Univeristy Ave. 197,Newark,North East,US,07102-1814",
  "InstitutionName": "RUBIC",
  "InstitutionalDepartmentName": "Department",
  "MRAcquisitionType": "2D",
  "MagneticFieldStrength": 3,
  "Manufacturer": "Siemens",
  "ManufacturersModelName": "TrioTim",
  "Modality": "MR",
  "MultibandAccelerationFactor": 8,
  "PartialFourier": 0.875,
  "PatientPosition": "HFS",
  "PercentPhaseFOV": 100,
  "PercentSampling": 100,
  "PhaseEncodingDirection": "j-",
  "PhaseEncodingSteps": 91,
  "PhaseResolution": 1,
  "PixelBandwidth": 1923,
  "ProcedureStepDescription": "Cole^Michael",
  "ProtocolName": "cmrr_mbep2d_bold_2mm_MB8_Task_8x",
  "PulseSequenceDetails": "%CustomerSeq%\\cmrr_mbep2d_bold",
  "ReceiveCoilName": "32Ch_Head",
  "ReconMatrixPE": 104,
  "RepetitionTime": 0.785,
  "SAR": 0.15006,
  "ScanOptions": "PFP\\FS",
  "ScanningSequence": "EP",
  "SequenceName": "epfid2d1_104",
  "SequenceVariant": "SK\\SS",
  "SeriesDescription": "cmrr_mbep2d_bold_2mm_MB8_Task_8x",
  "SeriesNumber": 23,
  "ShimSetting": [2155, -377, -7304, 308, -123, 27, 175, 27],
  "SliceThickness": 2,
  "SliceTiming": [0, 0.4375, 0.0875, 0.525, 0.175, 0.6125, 0.2625, 0.7, 0.35, 0, 0.4375, 0.0875, 0.525, 0.175, 0.6125, 0.2625, 0.7, 0.35, 0, 0.4375, 0.0875, 0.525, 0.175, 0.6125, 0.2625, 0.7, 0.35, 0, 0.4375, 0.0875, 0.525, 0.175, 0.6125, 0.2625, 0.7, 0.35, 0, 0.4375, 0.0875, 0.525, 0.175, 0.6125, 0.2625, 0.7, 0.35, 0, 0.4375, 0.0875, 0.525, 0.175, 0.6125, 0.2625, 0.7, 0.35, 0, 0.4375, 0.0875, 0.525, 0.175, 0.6125, 0.2625, 0.7, 0.35, 0, 0.4375, 0.0875, 0.525, 0.175, 0.6125, 0.2625, 0.7, 0.35],
  "SoftwareVersions": "syngo MR B19",
  "SpacingBetweenSlices": 2,
  "StationName": "MRC35450",
  "TaskName": "cpro",
  "TotalReadoutTime": 0.0710717,
  "TxRefAmp": 393.292,
  "dcmmeta_affine": [
    [-2.0, 0.0, 0.0, 104.0],
    [0.0, 2.0, 0.0, -78.44551849365234],
    [0.0, 0.0, 2.0, -93.31477355957031],
    [0.0, 0.0, 0.0, 1.0]
],
  "dcmmeta_reorient_transform": [
    [0.0, -1.0, 0.0, 103.0],
    [1.0, 0.0, 0.0, 0.0],
    [0.0, 0.0, 1.0, 0.0],
    [0.0, 0.0, 0.0, 1.0]
],
  "dcmmeta_shape": [104, 104, 72, 581],
  "dcmmeta_slice_dim": 2,
  "dcmmeta_version": 0.6,
  "global": {
    "const": {
      "AcquisitionMatrix": [104, 0, 0, 104],
      "AngioFlag": "N",
      "BitsAllocated": 16,
      "BitsStored": 12,
      "Columns": 936,
      "EchoNumbers": 1,
      "EchoTime": 34.8,
      "EchoTrainLength": 1,
      "FlipAngle": 55.0,
      "HighBit": 11,
      "ImageOrientationPatient": [1.0, 0.0, 0.0, 0.0, 1.0, 0.0],
      "ImagePositionPatient": [-936.0, -959.554479599, -93.31477355957],
      "ImageType": [
        "ORIGINAL",
        "PRIMARY",
        "M",
        "MB",
        "ND",
        "MOSAIC"
],
      "ImagedNucleus": "1H",
      "ImagingFrequency": 123.23447,
      "InPlanePhaseEncodingDirection": "COL",
      "MRAcquisitionType": "2D",
      "MagneticFieldStrength": 3.0,
      "Manufacturer": "SIEMENS",
      "ManufacturerModelName": "TrioTim",
      "Modality": "MR",
      "NumberOfAverages": 1.0,
      "NumberOfPhaseEncodingSteps": 91,
      "PercentPhaseFieldOfView": 100.0,
      "PercentSampling": 100.0,
      "PerformedProcedureStepStartTime": "121510.312000",
      "PhotometricInterpretation": "MONOCHROME2",
      "PixelBandwidth": 1923.0,
      "PixelRepresentation": 0,
      "PixelSpacing": [2.0, 2.0],
      "ProtocolName": "cmrr_mbep2d_bold_2mm_MB8_Task_8x",
      "RepetitionTime": 785.0,
      "Rows": 936,
      "SAR": 0.15005977563059,
      "SamplesPerPixel": 1,
      "ScanOptions": [
        "PFP",
        "FS"
],
      "ScanningSequence": "EP",
      "SequenceName": "epfid2d1_104",
      "SequenceVariant": [
        "SK",
        "SS"
],
      "SeriesDescription": "cmrr_mbep2d_bold_2mm_MB8_Task_8x",
      "SeriesNumber": 23,
      "SeriesTime": "140931.656000",
      "SliceLocation": -93.31477355957,
      "SliceThickness": 2.0,
      "SmallestImagePixelValue": 0,
      "SoftwareVersions": "syngo MR B19",
      "SpacingBetweenSlices": 2.0000000537281,
      "SpecificCharacterSet": "ISO_IR 100",
      "StudyID": "1",
      "StudyTime": "121510.281000",
      "TransmitCoilName": "Body",
      "VariableFlipAngleFlag": "N",
      "WindowCenterWidthExplanation": "Algo1",
      "dBdt": 0.0},
    "slices": {}
  },
  "time": {
    "samples": {
      "AcquisitionNumber": [1, 2, 3, 4, 5, 6, 7, 8, 9, 10, 11, 12, 13, 14, 15, 16, 17, 18, 19, 20, 21, 22, 23, 24, 25, 26, 27, 28, 29, 30, 31, 32, 33, 34, 35, 36, 37, 38, 39, 40, 41, 42, 43, 44, 45, 46, 47, 48, 49, 50, 51, 52, 53, 54, 55, 56, 57, 58, 59, 60, 61, 62, 63, 64, 65, 66, 67, 68, 69, 70, 71, 72, 73, 74, 75, 76, 77, 78, 79, 80, 81, 82, 83, 84, 85, 86, 87, 88, 89, 90, 91, 92, 93, 94, 95, 96, 97, 98, 99, 100, 101, 102, 103, 104, 105, 106, 107, 108, 109, 110, 111, 112, 113, 114, 115, 116, 117, 118, 119, 120, 121, 122, 123, 124, 125, 126, 127, 128, 129, 130, 131, 132, 133, 134, 135, 136, 137, 138, 139, 140, 141, 142, 143, 144, 145, 146, 147, 148, 149, 150, 151, 152, 153, 154, 155, 156, 157, 158, 159, 160, 161, 162, 163, 164, 165, 166, 167, 168, 169, 170, 171, 172, 173, 174, 175, 176, 177, 178, 179, 180, 181, 182, 183, 184, 185, 186, 187, 188, 189, 190, 191, 192, 193, 194, 195, 196, 197, 198, 199, 200, 201, 202, 203, 204, 205, 206, 207, 208, 209, 210, 211, 212, 213, 214, 215, 216, 217, 218, 219, 220, 221, 222, 223, 224, 225, 226, 227, 228, 229, 230, 231, 232, 233, 234, 235, 236, 237, 238, 239, 240, 241, 242, 243, 244, 245, 246, 247, 248, 249, 250, 251, 252, 253, 254, 255, 256, 257, 258, 259, 260, 261, 262, 263, 264, 265, 266, 267, 268, 269, 270, 271, 272, 273, 274, 275, 276, 277, 278, 279, 280, 281, 282, 283, 284, 285, 286, 287, 288, 289, 290, 291, 292, 293, 294, 295, 296, 297, 298, 299, 300, 301, 302, 303, 304, 305, 306, 307, 308, 309, 310, 311, 312, 313, 314, 315, 316, 317, 318, 319, 320, 321, 322, 323, 324, 325, 326, 327, 328, 329, 330, 331, 332, 333, 334, 335, 336, 337, 338, 339, 340, 341, 342, 343, 344, 345, 346, 347, 348, 349, 350, 351, 352, 353, 354, 355, 356, 357, 358, 359, 360, 361, 362, 363, 364, 365, 366, 367, 368, 369, 370, 371, 372, 373, 374, 375, 376, 377, 378, 379, 380, 381, 382, 383, 384, 385, 386, 387, 388, 389, 390, 391, 392, 393, 394, 395, 396, 397, 398, 399, 400, 401, 402, 403, 404, 405, 406, 407, 408, 409, 410, 411, 412, 413, 414, 415, 416, 417, 418, 419, 420, 421, 422, 423, 424, 425, 426, 427, 428, 429, 430, 431, 432, 433, 434, 435, 436, 437, 438, 439, 440, 441, 442, 443, 444, 445, 446, 447, 448, 449, 450, 451, 452, 453, 454, 455, 456, 457, 458, 459, 460, 461, 462, 463, 464, 465, 466, 467, 468, 469, 470, 471, 472, 473, 474, 475, 476, 477, 478, 479, 480, 481, 482, 483, 484, 485, 486, 487, 488, 489, 490, 491, 492, 493, 494, 495, 496, 497, 498, 499, 500, 501, 502, 503, 504, 505, 506, 507, 508, 509, 510, 511, 512, 513, 514, 515, 516, 517, 518, 519, 520, 521, 522, 523, 524, 525, 526, 527, 528, 529, 530, 531, 532, 533, 534, 535, 536, 537, 538, 539, 540, 541, 542, 543, 544, 545, 546, 547, 548, 549, 550, 551, 552, 553, 554, 555, 556, 557, 558, 559, 560, 561, 562, 563, 564, 565, 566, 567, 568, 569, 570, 571, 572, 573, 574, 575, 576, 577, 578, 579, 580, 581],
      "AcquisitionTime": ["140855.740000", "140856.527500", "140857.317500", "140858.105000", "140858.892500", "140859.680000", "140900.470000", "140901.257500", "140902.045000", "140902.835000", "140903.622500", "140904.410000", "140905.197500", "140905.987500", "140906.775000", "140907.562500", "140908.350000", "140909.140000", "140909.927500", "140910.715000", "140911.502500", "140912.292500", "140913.080000", "140913.867500", "140914.655000", "140915.445000", "140916.232500", "140917.020000", "140917.807500", "140918.597500", "140919.385000", "140920.172500", "140920.962500", "140921.750000", "140922.537500", "140923.325000", "140924.115000", "140924.902500", "140925.690000", "140926.477500", "140927.267500", "140928.055000", "140928.842500", "140929.630000", "140930.420000", "140931.207500", "140931.995000", "140932.782500", "140933.572500", "140934.360000", "140935.147500", "140935.935000", "140936.725000", "140937.512500", "140938.300000", "140939.090000", "140939.877500", "140940.665000", "140941.452500", "140942.242500", "140943.030000", "140943.817500", "140944.605000", "140945.395000", "140946.182500", "140946.970000", "140947.757500", "140948.547500", "140949.335000", "140950.122500", "140950.910000", "140951.700000", "140952.487500", "140953.275000", "140954.065000", "140954.852500", "140955.640000", "140956.427500", "140957.217500", "140958.005000", "140958.792500", "140959.580000", "141000.370000", "141001.157500", "141001.945000", "141002.732500", "141003.522500", "141004.310000", "141005.097500", "141005.885000", "141006.675000", "141007.462500", "141008.250000", "141009.037500", "141009.827500", "141010.615000", "141011.402500", "141012.192500", "141012.980000", "141013.767500", "141014.555000", "141015.345000", "141016.132500", "141016.920000", "141017.707500", "141018.497500", "141019.285000", "141020.072500", "141020.860000", "141021.650000", "141022.437500", "141023.225000", "141024.012500", "141024.802500", "141025.590000", "141026.377500", "141027.165000", "141027.955000", "141028.742500", "141029.530000", "141030.320000", "141031.107500", "141031.895000", "141032.682500", "141033.472500", "141034.260000", "141035.047500", "141035.835000", "141036.625000", "141037.412500", "141038.200000", "141038.987500", "141039.777500", "141040.565000", "141041.352500", "141042.140000", "141042.930000", "141043.717500", "141044.505000", "141045.292500", "141046.082500", "141046.870000", "141047.657500", "141048.447500", "141049.235000", "141050.022500", "141050.810000", "141051.600000", "141052.387500", "141053.175000", "141053.962500", "141054.752500", "141055.540000", "141056.327500", "141057.115000", "141057.905000", "141058.692500", "141059.480000", "141100.267500", "141101.057500", "141101.845000", "141102.632500", "141103.420000", "141104.210000", "141104.997500", "141105.785000", "141106.575000", "141107.362500", "141108.150000", "141108.937500", "141109.727500", "141110.515000", "141111.302500", "141112.090000", "141112.880000", "141113.667500", "141114.455000", "141115.242500", "141116.032500", "141116.820000", "141117.607500", "141118.395000", "141119.185000", "141119.972500", "141120.760000", "141121.547500", "141122.337500", "141123.125000", "141123.912500", "141124.702500", "141125.490000", "141126.277500", "141127.065000", "141127.855000", "141128.642500", "141129.430000", "141130.217500", "141131.007500", "141131.795000", "141132.582500", "141133.370000", "141134.160000", "141134.947500", "141135.735000", "141136.522500", "141137.312500", "141138.100000", "141138.887500", "141139.675000", "141140.465000", "141141.252500", "141142.040000", "141142.830000", "141143.617500", "141144.405000", "141145.192500", "141145.982500", "141146.770000", "141147.557500", "141148.345000", "141149.135000", "141149.922500", "141150.710000", "141151.497500", "141152.287500", "141153.075000", "141153.862500", "141154.650000", "141155.440000", "141156.227500", "141157.015000", "141157.802500", "141158.592500", "141159.380000", "141200.167500", "141200.957500", "141201.745000", "141202.532500", "141203.320000", "141204.110000", "141204.897500", "141205.685000", "141206.472500", "141207.262500", "141208.050000", "141208.837500", "141209.625000", "141210.415000", "141211.202500", "141211.990000", "141212.777500", "141213.567500", "141214.355000", "141215.142500", "141215.930000", "141216.720000", "141217.507500", "141218.295000", "141219.085000", "141219.872500", "141220.660000", "141221.447500", "141222.237500", "141223.025000", "141223.812500", "141224.600000", "141225.390000", "141226.177500", "141226.965000", "141227.752500", "141228.542500", "141229.330000", "141230.117500", "141230.905000", "141231.695000", "141232.482500", "141233.270000", "141234.057500", "141234.847500", "141235.635000", "141236.422500", "141237.212500", "141238.000000", "141238.787500", "141239.575000", "141240.365000", "141241.152500", "141241.940000", "141242.727500", "141243.517500", "141244.305000", "141245.092500", "141245.880000", "141246.670000", "141247.457500", "141248.245000", "141249.032500", "141249.822500", "141250.610000", "141251.397500", "141252.185000", "141252.975000", "141253.762500", "141254.550000", "141255.340000", "141256.127500", "141256.915000", "141257.702500", "141258.492500", "141259.280000", "141300.067500", "141300.855000", "141301.645000", "141302.432500", "141303.220000", "141304.007500", "141304.797500", "141305.585000", "141306.372500", "141307.160000", "141307.950000", "141308.737500", "141309.525000", "141310.315000", "141311.102500", "141311.890000", "141312.677500", "141313.467500", "141314.255000", "141315.042500", "141315.830000", "141316.620000", "141317.407500", "141318.195000", "141318.982500", "141319.772500", "141320.560000", "141321.347500", "141322.135000", "141322.925000", "141323.712500", "141324.500000", "141325.287500", "141326.077500", "141326.865000", "141327.652500", "141328.442500", "141329.230000", "141330.017500", "141330.805000", "141331.595000", "141332.382500", "141333.170000", "141333.957500", "141334.747500", "141335.535000", "141336.322500", "141337.110000", "141337.900000", "141338.687500", "141339.475000", "141340.262500", "141341.052500", "141341.840000", "141342.627500", "141343.415000", "141344.205000", "141344.992500", "141345.780000", "141346.570000", "141347.357500", "141348.145000", "141348.932500", "141349.722500", "141350.510000", "141351.297500", "141352.085000", "141352.875000", "141353.662500", "141354.450000", "141355.237500", "141356.027500", "141356.815000", "141357.602500", "141358.390000", "141359.180000", "141359.967500", "141400.755000", "141401.542500", "141402.332500", "141403.120000", "141403.907500", "141404.697500", "141405.485000", "141406.272500", "141407.060000", "141407.850000", "141408.637500", "141409.425000", "141410.212500", "141411.002500", "141411.790000", "141412.577500", "141413.365000", "141414.155000", "141414.942500", "141415.730000", "141416.517500", "141417.307500", "141418.095000", "141418.882500", "141419.670000", "141420.460000", "141421.247500", "141422.035000", "141422.825000", "141423.612500", "141424.400000", "141425.187500", "141425.977500", "141426.765000", "141427.552500", "141428.340000", "141429.130000", "141429.917500", "141430.705000", "141431.492500", "141432.282500", "141433.070000", "141433.857500", "141434.645000", "141435.435000", "141436.222500", "141437.010000", "141437.797500", "141438.587500", "141439.375000", "141440.162500", "141440.952500", "141441.740000", "141442.527500", "141443.315000", "141444.105000", "141444.892500", "141445.680000", "141446.467500", "141447.257500", "141448.045000", "141448.832500", "141449.620000", "141450.410000", "141451.197500", "141451.985000", "141452.772500", "141453.562500", "141454.350000", "141455.137500", "141455.925000", "141456.715000", "141457.502500", "141458.290000", "141459.080000", "141459.867500", "141500.655000", "141501.442500", "141502.232500", "141503.020000", "141503.807500", "141504.595000", "141505.385000", "141506.172500", "141506.960000", "141507.747500", "141508.537500", "141509.325000", "141510.112500", "141510.900000", "141511.690000", "141512.477500", "141513.265000", "141514.052500", "141514.842500", "141515.630000", "141516.417500", "141517.207500", "141517.995000", "141518.782500", "141519.570000", "141520.360000", "141521.147500", "141521.935000", "141522.722500", "141523.512500", "141524.300000", "141525.087500", "141525.875000", "141526.665000", "141527.452500", "141528.240000", "141529.027500", "141529.817500", "141530.605000", "141531.392500", "141532.180000", "141532.970000", "141533.757500", "141534.545000", "141535.335000", "141536.122500", "141536.910000", "141537.697500", "141538.487500", "141539.275000", "141540.062500", "141540.850000", "141541.640000", "141542.427500", "141543.215000", "141544.002500", "141544.792500", "141545.580000", "141546.367500", "141547.155000", "141547.945000", "141548.732500", "141549.520000", "141550.307500", "141551.097500", "141551.885000", "141552.672500", "141553.462500", "141554.250000", "141555.037500", "141555.825000", "141556.615000", "141557.402500", "141558.190000", "141558.977500", "141559.767500", "141600.555000", "141601.342500", "141602.130000", "141602.920000", "141603.707500", "141604.495000", "141605.282500", "141606.072500", "141606.860000", "141607.647500", "141608.435000", "141609.225000", "141610.012500", "141610.800000", "141611.590000", "141612.377500", "141613.165000", "141613.952500", "141614.742500", "141615.530000", "141616.317500", "141617.105000", "141617.895000", "141618.682500", "141619.470000", "141620.257500", "141621.047500", "141621.835000", "141622.622500", "141623.410000", "141624.200000", "141624.987500", "141625.775000", "141626.565000", "141627.352500", "141628.140000", "141628.927500", "141629.717500", "141630.505000", "141631.292500", "141632.080000", "141632.870000"],
      "ContentTime": ["140931.656000", "140931.656000", "140931.656000", "140931.656000", "140931.656000", "140931.656000", "140931.671000", "140931.671000", "140931.671000", "140931.671000", "140931.671000", "140931.671000", "140931.687000", "140931.687000", "140931.687000", "140931.687000", "140931.687000", "140931.687000", "140931.687000", "140931.703000", "140931.703000", "140931.703000", "140931.703000", "140931.703000", "140931.703000", "140931.703000", "140931.718000", "140931.718000", "140931.718000", "140931.718000", "140931.718000", "140931.718000", "140931.718000", "140931.734000", "140931.734000", "140931.734000", "140931.734000", "140931.734000", "140931.734000", "140931.750000", "140931.750000", "140931.750000", "140931.750000", "140951.625000", "140951.625000", "140951.625000", "140951.625000", "140951.640000", "140951.640000", "140951.640000", "140951.640000", "140951.640000", "140951.640000", "140951.640000", "140951.656000", "140951.656000", "140951.656000", "140951.656000", "140951.656000", "140951.656000", "140951.671000", "140951.671000", "140951.671000", "140951.671000", "140951.671000", "140951.671000", "140951.671000", "140951.687000", "141011.625000", "141011.625000", "141011.625000", "141011.640000", "141011.640000", "141011.640000", "141011.640000", "141011.640000", "141011.640000", "141011.640000", "141011.656000", "141011.656000", "141011.656000", "141011.656000", "141011.656000", "141011.656000", "141011.656000", "141011.671000", "141011.671000", "141011.671000", "141011.671000", "141011.671000", "141011.671000", "141011.687000", "141011.687000", "141031.625000", "141031.625000", "141031.625000", "141031.625000", "141031.640000", "141031.640000", "141031.640000", "141031.640000", "141031.656000", "141031.656000", "141031.656000", "141031.656000", "141031.656000", "141031.656000", "141031.656000", "141031.671000", "141031.671000", "141031.671000", "141031.671000", "141031.671000", "141031.671000", "141031.687000", "141031.687000", "141031.687000", "141031.687000", "141031.687000", "141051.625000", "141051.625000", "141051.640000", "141051.640000", "141051.640000", "141051.640000", "141051.640000", "141051.640000", "141051.640000", "141051.656000", "141051.656000", "141051.656000", "141051.656000", "141051.671000", "141051.671000", "141051.671000", "141051.671000", "141051.671000", "141051.671000", "141051.671000", "141051.687000", "141051.687000", "141051.687000", "141051.687000", "141051.687000", "141111.640000", "141111.640000", "141111.640000", "141111.640000", "141111.656000", "141111.656000", "141111.656000", "141111.656000", "141111.656000", "141111.656000", "141111.671000", "141111.671000", "141111.671000", "141111.671000", "141111.671000", "141111.671000", "141111.671000", "141111.687000", "141111.687000", "141111.687000", "141111.687000", "141111.687000", "141111.687000", "141111.687000", "141111.703000", "141111.703000", "141131.625000", "141131.625000", "141131.625000", "141131.625000", "141131.640000", "141131.640000", "141131.640000", "141131.640000", "141131.640000", "141131.640000", "141131.656000", "141131.656000", "141131.656000", "141131.656000", "141131.656000", "141131.656000", "141131.671000", "141131.671000", "141131.671000", "141131.671000", "141131.671000", "141131.671000", "141131.671000", "141131.687000", "141131.687000", "141151.625000", "141151.625000", "141151.625000", "141151.625000", "141151.640000", "141151.640000", "141151.640000", "141151.640000", "141151.640000", "141151.640000", "141151.640000", "141151.656000", "141151.656000", "141151.656000", "141151.656000", "141151.656000", "141151.656000", "141151.671000", "141151.671000", "141151.671000", "141151.671000", "141151.687000", "141151.687000", "141151.687000", "141151.687000", "141151.687000", "141211.625000", "141211.625000", "141211.625000", "141211.625000", "141211.640000", "141211.640000", "141211.640000", "141211.640000", "141211.640000", "141211.640000", "141211.640000", "141211.656000", "141211.656000", "141211.656000", "141211.656000", "141211.656000", "141211.656000", "141211.671000", "141211.671000", "141211.671000", "141211.671000", "141211.671000", "141211.671000", "141211.671000", "141211.687000", "141231.625000", "141231.625000", "141231.625000", "141231.625000", "141231.640000", "141231.640000", "141231.640000", "141231.640000", "141231.640000", "141231.640000", "141231.640000", "141231.656000", "141231.656000", "141231.656000", "141231.656000", "141231.656000", "141231.656000", "141231.656000", "141231.671000", "141231.671000", "141231.671000", "141231.671000", "141231.671000", "141231.687000", "141231.687000", "141231.687000", "141251.625000", "141251.625000", "141251.625000", "141251.625000", "141251.640000", "141251.640000", "141251.640000", "141251.640000", "141251.640000", "141251.640000", "141251.640000", "141251.656000", "141251.656000", "141251.656000", "141251.656000", "141251.656000", "141251.656000", "141251.671000", "141251.671000", "141251.671000", "141251.671000", "141251.671000", "141251.687000", "141251.687000", "141251.687000", "141311.625000", "141311.625000", "141311.625000", "141311.625000", "141311.640000", "141311.640000", "141311.640000", "141311.640000", "141311.640000", "141311.656000", "141311.656000", "141311.656000", "141311.656000", "141311.656000", "141311.656000", "141311.656000", "141311.671000", "141311.671000", "141311.671000", "141311.671000", "141311.671000", "141311.687000", "141311.687000", "141311.687000", "141311.687000", "141311.687000", "141331.625000", "141331.625000", "141331.625000", "141331.625000", "141331.640000", "141331.640000", "141331.640000", "141331.640000", "141331.640000", "141331.640000", "141331.640000", "141331.656000", "141331.656000", "141331.656000", "141331.656000", "141331.656000", "141331.656000", "141331.671000", "141331.671000", "141331.671000", "141331.671000", "141331.671000", "141331.671000", "141331.671000", "141331.687000", "141351.625000", "141351.625000", "141351.625000", "141351.625000", "141351.640000", "141351.640000", "141351.640000", "141351.640000", "141351.640000", "141351.640000", "141351.640000", "141351.656000", "141351.656000", "141351.656000", "141351.656000", "141351.656000", "141351.656000", "141351.671000", "141351.671000", "141351.671000", "141351.671000", "141351.671000", "141351.671000", "141351.671000", "141351.687000", "141351.687000", "141411.625000", "141411.625000", "141411.625000", "141411.625000", "141411.640000", "141411.640000", "141411.640000", "141411.640000", "141411.640000", "141411.640000", "141411.656000", "141411.656000", "141411.656000", "141411.656000", "141411.656000", "141411.656000", "141411.656000", "141411.671000", "141411.671000", "141411.671000", "141411.671000", "141411.671000", "141411.671000", "141411.671000", "141411.687000", "141431.625000", "141431.625000", "141431.625000", "141431.625000", "141431.640000", "141431.640000", "141431.640000", "141431.640000", "141431.640000", "141431.640000", "141431.640000", "141431.656000", "141431.656000", "141431.656000", "141431.656000", "141431.656000", "141431.656000", "141431.656000", "141431.671000", "141431.671000", "141431.671000", "141431.671000", "141431.671000", "141431.671000", "141431.671000", "141431.687000", "141451.625000", "141451.625000", "141451.625000", "141451.625000", "141451.640000", "141451.640000", "141451.640000", "141451.640000", "141451.640000", "141451.640000", "141451.640000", "141451.656000", "141451.656000", "141451.656000", "141451.656000", "141451.656000", "141451.656000", "141451.671000", "141451.671000", "141451.671000", "141451.671000", "141451.671000", "141451.687000", "141451.687000", "141451.687000", "141511.625000", "141511.625000", "141511.625000", "141511.625000", "141511.640000", "141511.640000", "141511.640000", "141511.640000", "141511.640000", "141511.640000", "141511.640000", "141511.656000", "141511.656000", "141511.656000", "141511.656000", "141511.656000", "141511.656000", "141511.671000", "141511.671000", "141511.671000", "141511.671000", "141511.671000", "141511.671000", "141511.671000", "141511.687000", "141511.687000", "141531.625000", "141531.625000", "141531.625000", "141531.625000", "141531.640000", "141531.640000", "141531.640000", "141531.640000", "141531.640000", "141531.640000", "141531.640000", "141531.656000", "141531.656000", "141531.656000", "141531.656000", "141531.656000", "141531.671000", "141531.671000", "141531.671000", "141531.671000", "141531.671000", "141531.671000", "141531.671000", "141531.687000", "141531.687000", "141551.625000", "141551.625000", "141551.625000", "141551.625000", "141551.640000", "141551.640000", "141551.640000", "141551.640000", "141551.640000", "141551.640000", "141551.640000", "141551.656000", "141551.656000", "141551.656000", "141551.656000", "141551.656000", "141551.656000", "141551.656000", "141551.671000", "141551.671000", "141551.671000", "141551.671000", "141551.671000", "141551.671000", "141551.687000", "141551.687000", "141611.625000", "141611.625000", "141611.625000", "141611.640000", "141611.640000", "141611.640000", "141611.640000", "141611.656000", "141611.656000", "141611.656000", "141611.656000", "141611.656000", "141611.656000", "141611.671000", "141611.671000", "141611.671000", "141611.671000", "141611.671000", "141611.671000", "141611.671000", "141611.687000", "141611.687000", "141611.687000", "141611.687000", "141611.687000", "141631.625000", "141631.625000", "141631.625000", "141631.625000", "141631.640000", "141631.640000", "141631.640000", "141631.640000", "141631.640000", "141631.640000", "141631.640000", "141631.656000", "141631.656000", "141631.656000", "141631.656000", "141631.656000", "141631.656000", "141631.656000", "141631.671000", "141631.671000", "141631.671000", "141631.671000", "141631.671000", "141631.671000", "141631.687000", "141631.687000", "141634.000000", "141634.000000", "141634.000000"],
