{
  "AcquisitionMatrixPE": 104,
  "AcquisitionNumber": 1,
  "AcquisitionTime": "14:00:14.707500",
  "BandwidthPerPixelPhaseEncode": 13.935,
  "BaseResolution": 104,
  "CoilString": "C:HEA;HEP",
  "ConversionSoftware": "dcm2niix",
  "ConversionSoftwareVersion": "v1.0.20210317",
  "DerivedVendorReportedEchoSpacing": 0.000690017,
  "DeviceSerialNumber": "35450",
  "DwellTime": 2.5e-06,
  "EchoTime": 0.0348,
  "EffectiveEchoSpacing": 0.000690017,
  "FlipAngle": 55,
  "ImageComments": "Unaliased MB8/PE3 (remote)",
  "ImageOrientationPatientDICOM": [1, 0, 0, 0, 1, 0],
  "ImageType": [
    "ORIGINAL",
    "PRIMARY",
    "M",
    "MB",
    "ND",
    "MOSAIC"
],
  "ImagingFrequency": 123.234,
  "InPlanePhaseEncodingDirectionDICOM": "COL",
  "InstitutionAddress": "Univeristy Ave. 197,Newark,North East,US,07102-1814",
  "InstitutionName": "RUBIC",
  "InstitutionalDepartmentName": "Department",
  "MRAcquisitionType": "2D",
  "MagneticFieldStrength": 3,
  "Manufacturer": "Siemens",
  "ManufacturersModelName": "TrioTim",
  "Modality": "MR",
  "MultibandAccelerationFactor": 8,
  "PartialFourier": 0.875,
  "PatientPosition": "HFS",
  "PercentPhaseFOV": 100,
  "PercentSampling": 100,
  "PhaseEncodingDirection": "j-",
  "PhaseEncodingSteps": 91,
  "PhaseResolution": 1,
  "PixelBandwidth": 1923,
  "ProcedureStepDescription": "Cole^Michael",
  "ProtocolName": "cmrr_mbep2d_bold_2mm_MB8_Task_8x",
  "PulseSequenceDetails": "%CustomerSeq%\\cmrr_mbep2d_bold",
  "ReceiveCoilName": "32Ch_Head",
  "ReconMatrixPE": 104,
  "RepetitionTime": 0.785,
  "SAR": 0.15006,
  "ScanOptions": "PFP\\FS",
  "ScanningSequence": "EP",
  "SequenceName": "epfid2d1_104",
  "SequenceVariant": "SK\\SS",
  "SeriesDescription": "cmrr_mbep2d_bold_2mm_MB8_Task_8x",
  "SeriesNumber": 21,
  "ShimSetting": [2155, -377, -7304, 308, -123, 27, 175, 27],
  "SliceThickness": 2,
  "SliceTiming": [0, 0.4375, 0.0875, 0.525, 0.175, 0.6125, 0.2625, 0.7, 0.35, 0, 0.4375, 0.0875, 0.525, 0.175, 0.6125, 0.2625, 0.7, 0.35, 0, 0.4375, 0.0875, 0.525, 0.175, 0.6125, 0.2625, 0.7, 0.35, 0, 0.4375, 0.0875, 0.525, 0.175, 0.6125, 0.2625, 0.7, 0.35, 0, 0.4375, 0.0875, 0.525, 0.175, 0.6125, 0.2625, 0.7, 0.35, 0, 0.4375, 0.0875, 0.525, 0.175, 0.6125, 0.2625, 0.7, 0.35, 0, 0.4375, 0.0875, 0.525, 0.175, 0.6125, 0.2625, 0.7, 0.35, 0, 0.4375, 0.0875, 0.525, 0.175, 0.6125, 0.2625, 0.7, 0.35],
  "SoftwareVersions": "syngo MR B19",
  "SpacingBetweenSlices": 2,
  "StationName": "MRC35450",
  "TaskName": "cpro",
  "TotalReadoutTime": 0.0710717,
  "TxRefAmp": 393.292,
  "dcmmeta_affine": [
    [-2.0, 0.0, 0.0, 104.0],
    [0.0, 2.0, 0.0, -78.44551849365234],
    [0.0, 0.0, 2.0, -93.31477355957031],
    [0.0, 0.0, 0.0, 1.0]
],
  "dcmmeta_reorient_transform": [
    [0.0, -1.0, 0.0, 103.0],
    [1.0, 0.0, 0.0, 0.0],
    [0.0, 0.0, 1.0, 0.0],
    [0.0, 0.0, 0.0, 1.0]
],
  "dcmmeta_shape": [104, 104, 72, 581],
  "dcmmeta_slice_dim": 2,
  "dcmmeta_version": 0.6,
  "global": {
    "const": {
      "AcquisitionMatrix": [104, 0, 0, 104],
      "AngioFlag": "N",
      "BitsAllocated": 16,
      "BitsStored": 12,
      "Columns": 936,
      "EchoNumbers": 1,
      "EchoTime": 34.8,
      "EchoTrainLength": 1,
      "FlipAngle": 55.0,
      "HighBit": 11,
      "ImageOrientationPatient": [1.0, 0.0, 0.0, 0.0, 1.0, 0.0],
      "ImagePositionPatient": [-936.0, -959.554479599, -93.31477355957],
      "ImageType": [
        "ORIGINAL",
        "PRIMARY",
        "M",
        "MB",
        "ND",
        "MOSAIC"
],
      "ImagedNucleus": "1H",
      "ImagingFrequency": 123.23447,
      "InPlanePhaseEncodingDirection": "COL",
      "MRAcquisitionType": "2D",
      "MagneticFieldStrength": 3.0,
      "Manufacturer": "SIEMENS",
      "ManufacturerModelName": "TrioTim",
      "Modality": "MR",
      "NumberOfAverages": 1.0,
      "NumberOfPhaseEncodingSteps": 91,
      "PercentPhaseFieldOfView": 100.0,
      "PercentSampling": 100.0,
      "PerformedProcedureStepStartTime": "121510.312000",
      "PhotometricInterpretation": "MONOCHROME2",
      "PixelBandwidth": 1923.0,
      "PixelRepresentation": 0,
      "PixelSpacing": [2.0, 2.0],
      "ProtocolName": "cmrr_mbep2d_bold_2mm_MB8_Task_8x",
      "RepetitionTime": 785.0,
      "Rows": 936,
      "SAR": 0.15005977563059,
      "SamplesPerPixel": 1,
      "ScanOptions": [
        "PFP",
        "FS"
],
      "ScanningSequence": "EP",
      "SequenceName": "epfid2d1_104",
      "SequenceVariant": [
        "SK",
        "SS"
],
      "SeriesDescription": "cmrr_mbep2d_bold_2mm_MB8_Task_8x",
      "SeriesNumber": 21,
      "SeriesTime": "140037.296000",
      "SliceLocation": -93.31477355957,
      "SliceThickness": 2.0,
      "SmallestImagePixelValue": 0,
      "SoftwareVersions": "syngo MR B19",
      "SpacingBetweenSlices": 2.0000000537281,
      "SpecificCharacterSet": "ISO_IR 100",
      "StudyID": "1",
      "StudyTime": "121510.281000",
      "TransmitCoilName": "Body",
      "VariableFlipAngleFlag": "N",
      "WindowCenterWidthExplanation": "Algo1",
      "dBdt": 0.0},
    "slices": {}
  },
  "time": {
    "samples": {
      "AcquisitionNumber": [1, 2, 3, 4, 5, 6, 7, 8, 9, 10, 11, 12, 13, 14, 15, 16, 17, 18, 19, 20, 21, 22, 23, 24, 25, 26, 27, 28, 29, 30, 31, 32, 33, 34, 35, 36, 37, 38, 39, 40, 41, 42, 43, 44, 45, 46, 47, 48, 49, 50, 51, 52, 53, 54, 55, 56, 57, 58, 59, 60, 61, 62, 63, 64, 65, 66, 67, 68, 69, 70, 71, 72, 73, 74, 75, 76, 77, 78, 79, 80, 81, 82, 83, 84, 85, 86, 87, 88, 89, 90, 91, 92, 93, 94, 95, 96, 97, 98, 99, 100, 101, 102, 103, 104, 105, 106, 107, 108, 109, 110, 111, 112, 113, 114, 115, 116, 117, 118, 119, 120, 121, 122, 123, 124, 125, 126, 127, 128, 129, 130, 131, 132, 133, 134, 135, 136, 137, 138, 139, 140, 141, 142, 143, 144, 145, 146, 147, 148, 149, 150, 151, 152, 153, 154, 155, 156, 157, 158, 159, 160, 161, 162, 163, 164, 165, 166, 167, 168, 169, 170, 171, 172, 173, 174, 175, 176, 177, 178, 179, 180, 181, 182, 183, 184, 185, 186, 187, 188, 189, 190, 191, 192, 193, 194, 195, 196, 197, 198, 199, 200, 201, 202, 203, 204, 205, 206, 207, 208, 209, 210, 211, 212, 213, 214, 215, 216, 217, 218, 219, 220, 221, 222, 223, 224, 225, 226, 227, 228, 229, 230, 231, 232, 233, 234, 235, 236, 237, 238, 239, 240, 241, 242, 243, 244, 245, 246, 247, 248, 249, 250, 251, 252, 253, 254, 255, 256, 257, 258, 259, 260, 261, 262, 263, 264, 265, 266, 267, 268, 269, 270, 271, 272, 273, 274, 275, 276, 277, 278, 279, 280, 281, 282, 283, 284, 285, 286, 287, 288, 289, 290, 291, 292, 293, 294, 295, 296, 297, 298, 299, 300, 301, 302, 303, 304, 305, 306, 307, 308, 309, 310, 311, 312, 313, 314, 315, 316, 317, 318, 319, 320, 321, 322, 323, 324, 325, 326, 327, 328, 329, 330, 331, 332, 333, 334, 335, 336, 337, 338, 339, 340, 341, 342, 343, 344, 345, 346, 347, 348, 349, 350, 351, 352, 353, 354, 355, 356, 357, 358, 359, 360, 361, 362, 363, 364, 365, 366, 367, 368, 369, 370, 371, 372, 373, 374, 375, 376, 377, 378, 379, 380, 381, 382, 383, 384, 385, 386, 387, 388, 389, 390, 391, 392, 393, 394, 395, 396, 397, 398, 399, 400, 401, 402, 403, 404, 405, 406, 407, 408, 409, 410, 411, 412, 413, 414, 415, 416, 417, 418, 419, 420, 421, 422, 423, 424, 425, 426, 427, 428, 429, 430, 431, 432, 433, 434, 435, 436, 437, 438, 439, 440, 441, 442, 443, 444, 445, 446, 447, 448, 449, 450, 451, 452, 453, 454, 455, 456, 457, 458, 459, 460, 461, 462, 463, 464, 465, 466, 467, 468, 469, 470, 471, 472, 473, 474, 475, 476, 477, 478, 479, 480, 481, 482, 483, 484, 485, 486, 487, 488, 489, 490, 491, 492, 493, 494, 495, 496, 497, 498, 499, 500, 501, 502, 503, 504, 505, 506, 507, 508, 509, 510, 511, 512, 513, 514, 515, 516, 517, 518, 519, 520, 521, 522, 523, 524, 525, 526, 527, 528, 529, 530, 531, 532, 533, 534, 535, 536, 537, 538, 539, 540, 541, 542, 543, 544, 545, 546, 547, 548, 549, 550, 551, 552, 553, 554, 555, 556, 557, 558, 559, 560, 561, 562, 563, 564, 565, 566, 567, 568, 569, 570, 571, 572, 573, 574, 575, 576, 577, 578, 579, 580, 581],
      "AcquisitionTime": ["140014.707500", "140015.495000", "140016.285000", "140017.072500", "140017.860000", "140018.647500", "140019.437500", "140020.225000", "140021.012500", "140021.800000", "140022.590000", "140023.377500", "140024.165000", "140024.952500", "140025.742500", "140026.530000", "140027.317500", "140028.105000", "140028.895000", "140029.682500", "140030.470000", "140031.260000", "140032.047500", "140032.835000", "140033.622500", "140034.412500", "140035.200000", "140035.987500", "140036.775000", "140037.565000", "140038.352500", "140039.140000", "140039.927500", "140040.717500", "140041.505000", "140042.292500", "140043.080000", "140043.870000", "140044.657500", "140045.445000", "140046.232500", "140047.022500", "140047.810000", "140048.597500", "140049.387500", "140050.175000", "140050.962500", "140051.750000", "140052.540000", "140053.327500", "140054.115000", "140054.902500", "140055.692500", "140056.480000", "140057.267500", "140058.055000", "140058.845000", "140059.632500", "140100.420000", "140101.207500", "140101.997500", "140102.785000", "140103.572500", "140104.360000", "140105.150000", "140105.937500", "140106.725000", "140107.515000", "140108.302500", "140109.090000", "140109.877500", "140110.667500", "140111.455000", "140112.242500", "140113.030000", "140113.820000", "140114.607500", "140115.395000", "140116.182500", "140116.972500", "140117.760000", "140118.547500", "140119.335000", "140120.125000", "140120.912500", "140121.700000", "140122.487500", "140123.277500", "140124.065000", "140124.852500", "140125.642500", "140126.430000", "140127.217500", "140128.005000", "140128.795000", "140129.582500", "140130.370000", "140131.157500", "140131.947500", "140132.735000", "140133.522500", "140134.310000", "140135.100000", "140135.887500", "140136.675000", "140137.462500", "140138.252500", "140139.040000", "140139.827500", "140140.617500", "140141.405000", "140142.192500", "140142.980000", "140143.770000", "140144.557500", "140145.345000", "140146.132500", "140146.922500", "140147.710000", "140148.497500", "140149.285000", "140150.075000", "140150.862500", "140151.650000", "140152.437500", "140153.227500", "140154.015000", "140154.802500", "140155.590000", "140156.380000", "140157.167500", "140157.955000", "140158.745000", "140159.532500", "140200.320000", "140201.107500", "140201.897500", "140202.685000", "140203.472500", "140204.260000", "140205.050000", "140205.837500", "140206.625000", "140207.412500", "140208.202500", "140208.990000", "140209.777500", "140210.565000", "140211.355000", "140212.142500", "140212.930000", "140213.717500", "140214.507500", "140215.295000", "140216.082500", "140216.872500", "140217.660000", "140218.447500", "140219.235000", "140220.025000", "140220.812500", "140221.600000", "140222.387500", "140223.177500", "140223.965000", "140224.752500", "140225.540000", "140226.330000", "140227.117500", "140227.905000", "140228.692500", "140229.482500", "140230.270000", "140231.057500", "140231.845000", "140232.635000", "140233.422500", "140234.210000", "140235.000000", "140235.787500", "140236.575000", "140237.362500", "140238.152500", "140238.940000", "140239.727500", "140240.515000", "140241.305000", "140242.092500", "140242.880000", "140243.667500", "140244.457500", "140245.245000", "140246.032500", "140246.820000", "140247.610000", "140248.397500", "140249.185000", "140249.972500", "140250.762500", "140251.550000", "140252.337500", "140253.127500", "140253.915000", "140254.702500", "140255.490000", "140256.280000", "140257.067500", "140257.855000", "140258.642500", "140259.432500", "140300.220000", "140301.007500", "140301.795000", "140302.585000", "140303.372500", "140304.160000", "140304.947500", "140305.737500", "140306.525000", "140307.312500", "140308.100000", "140308.890000", "140309.677500", "140310.465000", "140311.255000", "140312.042500", "140312.830000", "140313.617500", "140314.407500", "140315.195000", "140315.982500", "140316.770000", "140317.560000", "140318.347500", "140319.135000", "140319.922500", "140320.712500", "140321.500000", "140322.287500", "140323.075000", "140323.865000", "140324.652500", "140325.440000", "140326.227500", "140327.017500", "140327.805000", "140328.592500", "140329.382500", "140330.170000", "140330.957500", "140331.745000", "140332.535000", "140333.322500", "140334.110000", "140334.897500", "140335.687500", "140336.475000", "140337.262500", "140338.050000", "140338.840000", "140339.627500", "140340.415000", "140341.202500", "140341.992500", "140342.780000", "140343.567500", "140344.355000", "140345.145000", "140345.932500", "140346.720000", "140347.510000", "140348.297500", "140349.085000", "140349.872500", "140350.662500", "140351.450000", "140352.237500", "140353.025000", "140353.815000", "140354.602500", "140355.390000", "140356.177500", "140356.967500", "140357.755000", "140358.542500", "140359.330000", "140400.120000", "140400.907500", "140401.695000", "140402.482500", "140403.272500", "140404.060000", "140404.847500", "140405.637500", "140406.425000", "140407.212500", "140408.000000", "140408.790000", "140409.577500", "140410.365000", "140411.152500", "140411.942500", "140412.730000", "140413.517500", "140414.305000", "140415.095000", "140415.882500", "140416.670000", "140417.457500", "140418.247500", "140419.035000", "140419.822500", "140420.610000", "140421.400000", "140422.187500", "140422.975000", "140423.765000", "140424.552500", "140425.340000", "140426.127500", "140426.917500", "140427.705000", "140428.492500", "140429.280000", "140430.070000", "140430.857500", "140431.645000", "140432.432500", "140433.222500", "140434.010000", "140434.797500", "140435.585000", "140436.375000", "140437.162500", "140437.950000", "140438.737500", "140439.527500", "140440.315000", "140441.102500", "140441.892500", "140442.680000", "140443.467500", "140444.255000", "140445.045000", "140445.832500", "140446.620000", "140447.407500", "140448.197500", "140448.985000", "140449.772500", "140450.560000", "140451.350000", "140452.137500", "140452.925000", "140453.712500", "140454.502500", "140455.290000", "140456.077500", "140456.867500", "140457.655000", "140458.442500", "140459.230000", "140500.020000", "140500.807500", "140501.595000", "140502.382500", "140503.172500", "140503.960000", "140504.747500", "140505.535000", "140506.325000", "140507.112500", "140507.900000", "140508.687500", "140509.477500", "140510.265000", "140511.052500", "140511.840000", "140512.630000", "140513.417500", "140514.205000", "140514.995000", "140515.782500", "140516.570000", "140517.357500", "140518.147500", "140518.935000", "140519.722500", "140520.510000", "140521.300000", "140522.087500", "140522.875000", "140523.662500", "140524.452500", "140525.240000", "140526.027500", "140526.815000", "140527.605000", "140528.392500", "140529.180000", "140529.967500", "140530.757500", "140531.545000", "140532.332500", "140533.122500", "140533.910000", "140534.697500", "140535.485000", "140536.275000", "140537.062500", "140537.850000", "140538.637500", "140539.427500", "140540.215000", "140541.002500", "140541.790000", "140542.580000", "140543.367500", "140544.155000", "140544.942500", "140545.732500", "140546.520000", "140547.307500", "140548.095000", "140548.885000", "140549.672500", "140550.460000", "140551.250000", "140552.037500", "140552.825000", "140553.612500", "140554.402500", "140555.190000", "140555.977500", "140556.765000", "140557.555000", "140558.342500", "140559.130000", "140559.917500", "140600.707500", "140601.495000", "140602.282500", "140603.070000", "140603.860000", "140604.647500", "140605.435000", "140606.222500", "140607.012500", "140607.800000", "140608.587500", "140609.377500", "140610.165000", "140610.952500", "140611.740000", "140612.530000", "140613.317500", "140614.105000", "140614.892500", "140615.682500", "140616.470000", "140617.257500", "140618.045000", "140618.835000", "140619.622500", "140620.410000", "140621.197500", "140621.987500", "140622.775000", "140623.562500", "140624.350000", "140625.140000", "140625.927500", "140626.715000", "140627.505000", "140628.292500", "140629.080000", "140629.867500", "140630.657500", "140631.445000", "140632.232500", "140633.020000", "140633.810000", "140634.597500", "140635.385000", "140636.172500", "140636.962500", "140637.750000", "140638.537500", "140639.325000", "140640.115000", "140640.902500", "140641.690000", "140642.477500", "140643.267500", "140644.055000", "140644.842500", "140645.632500", "140646.420000", "140647.207500", "140647.995000", "140648.785000", "140649.572500", "140650.360000", "140651.147500", "140651.937500", "140652.725000", "140653.512500", "140654.300000", "140655.090000", "140655.877500", "140656.665000", "140657.452500", "140658.242500", "140659.030000", "140659.817500", "140700.605000", "140701.395000", "140702.182500", "140702.970000", "140703.760000", "140704.547500", "140705.335000", "140706.122500", "140706.912500", "140707.700000", "140708.487500", "140709.275000", "140710.065000", "140710.852500", "140711.640000", "140712.427500", "140713.217500", "140714.005000", "140714.792500", "140715.580000", "140716.370000", "140717.157500", "140717.945000", "140718.732500", "140719.522500", "140720.310000", "140721.097500", "140721.887500", "140722.675000", "140723.462500", "140724.250000", "140725.040000", "140725.827500", "140726.615000", "140727.402500", "140728.192500", "140728.980000", "140729.767500", "140730.555000", "140731.345000", "140732.132500", "140732.920000", "140733.707500", "140734.497500", "140735.285000", "140736.072500", "140736.860000", "140737.650000", "140738.437500", "140739.225000", "140740.015000", "140740.802500", "140741.590000", "140742.377500", "140743.167500", "140743.955000", "140744.742500", "140745.530000", "140746.320000", "140747.107500", "140747.895000", "140748.682500", "140749.472500", "140750.260000", "140751.047500", "140751.835000"],
      "ContentTime": ["140037.312000", "140037.312000", "140037.312000", "140037.312000", "140037.312000", "140037.312000", "140037.312000", "140037.328000", "140037.328000", "140037.328000", "140037.328000", "140037.328000", "140037.328000", "140037.328000", "140037.343000", "140037.343000", "140037.343000", "140037.343000", "140037.343000", "140037.343000", "140037.343000", "140037.359000", "140037.359000", "140037.359000", "140037.359000", "140037.359000", "140057.281000", "140057.281000", "140057.281000", "140057.281000", "140057.296000", "140057.296000", "140057.296000", "140057.296000", "140057.296000", "140057.296000", "140057.296000", "140057.312000", "140057.312000", "140057.312000", "140057.312000", "140057.312000", "140057.312000", "140057.328000", "140057.328000", "140057.328000", "140057.328000", "140057.328000", "140057.328000", "140057.328000", "140057.343000", "140117.281000", "140117.281000", "140117.281000", "140117.281000", "140117.296000", "140117.296000", "140117.296000", "140117.296000", "140117.296000", "140117.296000", "140117.296000", "140117.312000", "140117.312000", "140117.312000", "140117.312000", "140117.312000", "140117.312000", "140117.312000", "140117.328000", "140117.328000", "140117.328000", "140117.328000", "140117.328000", "140117.328000", "140117.328000", "140117.343000", "140137.281000", "140137.281000", "140137.281000", "140137.281000", "140137.296000", "140137.296000", "140137.296000", "140137.296000", "140137.296000", "140137.296000", "140137.296000", "140137.312000", "140137.312000", "140137.312000", "140137.312000", "140137.312000", "140137.312000", "140137.312000", "140137.328000", "140137.328000", "140137.328000", "140137.328000", "140137.328000", "140137.328000", "140137.328000", "140157.281000", "140157.281000", "140157.281000", "140157.281000", "140157.296000", "140157.296000", "140157.296000", "140157.296000", "140157.296000", "140157.296000", "140157.296000", "140157.312000", "140157.312000", "140157.312000", "140157.312000", "140157.312000", "140157.312000", "140157.328000", "140157.328000", "140157.328000", "140157.328000", "140157.328000", "140157.328000", "140157.328000", "140157.343000", "140217.281000", "140217.281000", "140217.281000", "140217.281000", "140217.296000", "140217.296000", "140217.296000", "140217.296000", "140217.296000", "140217.296000", "140217.296000", "140217.312000", "140217.312000", "140217.312000", "140217.312000", "140217.312000", "140217.312000", "140217.312000", "140217.328000", "140217.328000", "140217.328000", "140217.328000", "140217.328000", "140217.328000", "140217.328000", "140217.343000", "140237.281000", "140237.281000", "140237.281000", "140237.281000", "140237.296000", "140237.296000", "140237.296000", "140237.296000", "140237.296000", "140237.296000", "140237.296000", "140237.312000", "140237.312000", "140237.312000", "140237.312000", "140237.312000", "140237.312000", "140237.328000", "140237.328000", "140237.328000", "140237.328000", "140237.328000", "140237.328000", "140237.328000", "140237.343000", "140257.281000", "140257.281000", "140257.281000", "140257.281000", "140257.296000", "140257.296000", "140257.296000", "140257.296000", "140257.296000", "140257.296000", "140257.312000", "140257.312000", "140257.312000", "140257.312000", "140257.312000", "140257.312000", "140257.312000", "140257.328000", "140257.328000", "140257.328000", "140257.328000", "140257.328000", "140257.328000", "140257.343000", "140257.343000", "140257.343000", "140317.281000", "140317.281000", "140317.281000", "140317.281000", "140317.296000", "140317.296000", "140317.296000", "140317.296000", "140317.296000", "140317.296000", "140317.296000", "140317.312000", "140317.312000", "140317.312000", "140317.312000", "140317.312000", "140317.312000", "140317.328000", "140317.328000", "140317.328000", "140317.328000", "140317.328000", "140317.328000", "140317.343000", "140317.343000", "140337.281000", "140337.281000", "140337.281000", "140337.281000", "140337.296000", "140337.296000", "140337.296000", "140337.296000", "140337.296000", "140337.296000", "140337.296000", "140337.312000", "140337.312000", "140337.312000", "140337.312000", "140337.312000", "140337.312000", "140337.312000", "140337.328000", "140337.328000", "140337.328000", "140337.328000", "140337.328000", "140337.328000", "140337.343000", "140337.343000", "140357.281000", "140357.281000", "140357.281000", "140357.281000", "140357.296000", "140357.296000", "140357.296000", "140357.296000", "140357.296000", "140357.296000", "140357.296000", "140357.312000", "140357.312000", "140357.312000", "140357.312000", "140357.312000", "140357.312000", "140357.312000", "140357.328000", "140357.328000", "140357.328000", "140357.328000", "140357.328000", "140357.328000", "140357.328000", "140417.281000", "140417.281000", "140417.281000", "140417.281000", "140417.296000", "140417.296000", "140417.296000", "140417.296000", "140417.296000", "140417.312000", "140417.312000", "140417.312000", "140417.312000", "140417.312000", "140417.328000", "140417.328000", "140417.328000", "140417.328000", "140417.328000", "140417.343000", "140417.343000", "140417.343000", "140417.343000", "140417.343000", "140417.359000", "140417.359000", "140437.281000", "140437.281000", "140437.281000", "140437.281000", "140437.296000", "140437.296000", "140437.296000", "140437.296000", "140437.296000", "140437.296000", "140437.296000", "140437.312000", "140437.312000", "140437.312000", "140437.312000", "140437.312000", "140437.312000", "140437.312000", "140437.328000", "140437.328000", "140437.328000", "140437.328000", "140437.328000", "140437.328000", "140437.328000", "140457.281000", "140457.281000", "140457.281000", "140457.281000", "140457.296000", "140457.296000", "140457.296000", "140457.296000", "140457.296000", "140457.296000", "140457.296000", "140457.312000", "140457.312000", "140457.312000", "140457.312000", "140457.312000", "140457.312000", "140457.312000", "140457.328000", "140457.328000", "140457.328000", "140457.328000", "140457.328000", "140457.328000", "140457.328000", "140457.343000", "140517.281000", "140517.281000", "140517.281000", "140517.281000", "140517.296000", "140517.296000", "140517.296000", "140517.296000", "140517.296000", "140517.296000", "140517.296000", "140517.312000", "140517.312000", "140517.312000", "140517.312000", "140517.312000", "140517.312000", "140517.312000", "140517.328000", "140517.328000", "140517.328000", "140517.328000", "140517.328000", "140517.328000", "140517.328000", "140537.281000", "140537.281000", "140537.281000", "140537.281000", "140537.296000", "140537.296000", "140537.296000", "140537.296000", "140537.296000", "140537.312000", "140537.312000", "140537.312000", "140537.312000", "140537.312000", "140537.312000", "140537.328000", "140537.328000", "140537.328000", "140537.328000", "140537.328000", "140537.328000", "140537.328000", "140537.343000", "140537.343000", "140537.343000", "140537.343000", "140557.281000", "140557.281000", "140557.281000", "140557.281000", "140557.296000", "140557.296000", "140557.296000", "140557.296000", "140557.296000", "140557.296000", "140557.312000", "140557.312000", "140557.312000", "140557.312000", "140557.312000", "140557.312000", "140557.312000", "140557.328000", "140557.328000", "140557.328000", "140557.328000", "140557.328000", "140557.328000", "140557.328000", "140557.343000", "140617.281000", "140617.281000", "140617.281000", "140617.281000", "140617.296000", "140617.296000", "140617.296000", "140617.296000", "140617.296000", "140617.296000", "140617.296000", "140617.312000", "140617.312000", "140617.312000", "140617.312000", "140617.312000", "140617.312000", "140617.312000", "140617.328000", "140617.328000", "140617.328000", "140617.328000", "140617.328000", "140617.328000", "140617.328000", "140617.343000", "140637.281000", "140637.281000", "140637.281000", "140637.281000", "140637.296000", "140637.296000", "140637.296000", "140637.296000", "140637.296000", "140637.296000", "140637.296000", "140637.312000", "140637.312000", "140637.312000", "140637.312000", "140637.312000", "140637.312000", "140637.312000", "140637.328000", "140637.328000", "140637.328000", "140637.328000", "140637.328000", "140637.328000", "140637.328000", "140657.281000", "140657.281000", "140657.281000", "140657.281000", "140657.296000", "140657.296000", "140657.296000", "140657.296000", "140657.296000", "140657.296000", "140657.296000", "140657.312000", "140657.312000", "140657.312000", "140657.312000", "140657.312000", "140657.312000", "140657.312000", "140657.328000", "140657.328000", "140657.328000", "140657.328000", "140657.328000", "140657.328000", "140657.328000", "140657.343000", "140717.281000", "140717.281000", "140717.281000", "140717.281000", "140717.296000", "140717.296000", "140717.296000", "140717.296000", "140717.296000", "140717.296000", "140717.296000", "140717.312000", "140717.312000", "140717.312000", "140717.312000", "140717.312000", "140717.312000", "140717.312000", "140717.328000", "140717.328000", "140717.328000", "140717.328000", "140717.328000", "140717.328000", "140717.343000", "140737.281000", "140737.281000", "140737.281000", "140737.281000", "140737.296000", "140737.296000", "140737.296000", "140737.296000", "140737.296000", "140737.296000", "140737.296000", "140737.312000", "140737.312000", "140737.312000", "140737.312000", "140737.312000", "140737.312000", "140737.312000", "140737.328000", "140737.328000", "140737.328000", "140737.328000", "140737.328000", "140737.328000", "140737.343000", "140737.343000", "140752.953000", "140752.953000", "140752.953000", "140752.953000", "140752.953000", "140752.953000", "140752.968000", "140752.968000", "140752.968000", "140752.968000", "140752.968000", "140752.968000", "140752.968000", "140752.984000", "140752.984000", "140752.984000", "140752.984000", "140752.984000", "140752.984000", "140753.000000"],
