{
  "AcquisitionMatrixPE": 104,
  "AcquisitionNumber": 1,
  "AcquisitionTime": "12:14:33.747500",
  "BandwidthPerPixelPhaseEncode": 13.935,
  "BaseResolution": 104,
  "CoilString": "C:HEA;HEP",
  "ConversionSoftware": "dcm2niix",
  "ConversionSoftwareVersion": "v1.0.20210317",
  "DerivedVendorReportedEchoSpacing": 0.000690017,
  "DeviceSerialNumber": "35450",
  "DwellTime": 2.5e-06,
  "EchoTime": 0.0348,
  "EffectiveEchoSpacing": 0.000690017,
  "FlipAngle": 55,
  "ImageComments": "Unaliased MB8/PE3 (remote)",
  "ImageOrientationPatientDICOM": [1, 0, 0, 0, 0.983255, -0.182236],
  "ImageType": [
    "ORIGINAL",
    "PRIMARY",
    "M",
    "MB",
    "ND",
    "MOSAIC"
],
  "ImagingFrequency": 123.234,
  "InPlanePhaseEncodingDirectionDICOM": "COL",
  "InstitutionAddress": "Univeristy Ave. 197,Newark,North East,US,07102-1814",
  "InstitutionName": "RUBIC",
  "InstitutionalDepartmentName": "Department",
  "MRAcquisitionType": "2D",
  "MagneticFieldStrength": 3,
  "Manufacturer": "Siemens",
  "ManufacturersModelName": "TrioTim",
  "Modality": "MR",
  "MultibandAccelerationFactor": 8,
  "PartialFourier": 0.875,
  "PatientPosition": "HFS",
  "PercentPhaseFOV": 100,
  "PercentSampling": 100,
  "PhaseEncodingDirection": "j-",
  "PhaseEncodingSteps": 91,
  "PhaseResolution": 1,
  "PixelBandwidth": 1923,
  "ProcedureStepDescription": "Cole^Michael",
  "ProtocolName": "cmrr_mbep2d_bold_2mm_MB8_Task_8x",
  "PulseSequenceDetails": "%CustomerSeq%\\cmrr_mbep2d_bold",
  "ReceiveCoilName": "32Ch_Head",
  "ReconMatrixPE": 104,
  "RepetitionTime": 0.785,
  "SAR": 0.169299,
  "ScanOptions": "PFP\\FS",
  "ScanningSequence": "EP",
  "SequenceName": "epfid2d1_104",
  "SequenceVariant": "SK\\SS",
  "SeriesDescription": "cmrr_mbep2d_bold_2mm_MB8_Task_8x",
  "SeriesNumber": 21,
  "ShimSetting": [2087, -360, -7222, 247, 122, -683, 130, 24],
  "SliceThickness": 2,
  "SliceTiming": [0, 0.4375, 0.0875, 0.525, 0.175, 0.6125, 0.2625, 0.7, 0.35, 0, 0.4375, 0.0875, 0.525, 0.175, 0.6125, 0.2625, 0.7, 0.35, 0, 0.4375, 0.0875, 0.525, 0.175, 0.6125, 0.2625, 0.7, 0.35, 0, 0.4375, 0.0875, 0.525, 0.175, 0.6125, 0.2625, 0.7, 0.35, 0, 0.4375, 0.0875, 0.525, 0.175, 0.6125, 0.2625, 0.7, 0.35, 0, 0.4375, 0.0875, 0.525, 0.175, 0.6125, 0.2625, 0.7, 0.35, 0, 0.4375, 0.0875, 0.525, 0.175, 0.6125, 0.2625, 0.7, 0.35, 0, 0.4375, 0.0875, 0.525, 0.175, 0.6125, 0.2625, 0.7, 0.35],
  "SoftwareVersions": "syngo MR B19",
  "SpacingBetweenSlices": 2,
  "StationName": "MRC35450",
  "TaskName": "cpro",
  "TotalReadoutTime": 0.0710717,
  "TxRefAmp": 384.64,
  "dcmmeta_affine": [
    [-2.0, 0.0, 0.0, 104.67796325683594],
    [0.0, 1.9665098190307617, -0.36447104811668396, -75.19496154785156],
    [0.0, 0.36447104811668396, 1.9665098190307617, -110.31561279296875],
    [0.0, 0.0, 0.0, 1.0]
],
  "dcmmeta_reorient_transform": [
    [0.0, -1.0, 0.0, 103.0],
    [1.0, 0.0, 0.0, 0.0],
    [0.0, 0.0, 1.0, 0.0],
    [0.0, 0.0, 0.0, 1.0]
],
  "dcmmeta_shape": [104, 104, 72, 581],
  "dcmmeta_slice_dim": 2,
  "dcmmeta_version": 0.6,
  "global": {
    "const": {
      "AcquisitionMatrix": [104, 0, 0, 104],
      "AngioFlag": "N",
      "BitsAllocated": 16,
      "BitsStored": 12,
      "Columns": 936,
      "EchoNumbers": 1,
      "EchoTime": 34.8,
      "EchoTrainLength": 1,
      "FlipAngle": 55.0,
      "HighBit": 11,
      "ImageOrientationPatient": [1.0, 0.0, 0.0, 0.0, 0.98325490764387, -0.182235525061],
      "ImagePositionPatient": [-936.67796611786, -945.42362991636, 78.844858988787],
      "ImageType": [
        "ORIGINAL",
        "PRIMARY",
        "M",
        "MB",
        "ND",
        "MOSAIC"
],
      "ImagedNucleus": "1H",
      "ImagingFrequency": 123.234388,
      "InPlanePhaseEncodingDirection": "COL",
      "MRAcquisitionType": "2D",
      "MagneticFieldStrength": 3.0,
      "Manufacturer": "SIEMENS",
      "ManufacturerModelName": "TrioTim",
      "Modality": "MR",
      "NumberOfAverages": 1.0,
      "NumberOfPhaseEncodingSteps": 91,
      "PercentPhaseFieldOfView": 100.0,
      "PercentSampling": 100.0,
      "PerformedProcedureStepStartTime": "103144.671000",
      "PhotometricInterpretation": "MONOCHROME2",
      "PixelBandwidth": 1923.0,
      "PixelRepresentation": 0,
      "PixelSpacing": [2.0, 2.0],
      "ProtocolName": "cmrr_mbep2d_bold_2mm_MB8_Task_8x",
      "RepetitionTime": 785.0,
      "Rows": 936,
      "SAR": 0.16929927330703,
      "SamplesPerPixel": 1,
      "ScanOptions": [
        "PFP",
        "FS"
],
      "ScanningSequence": "EP",
      "SequenceName": "epfid2d1_104",
      "SequenceVariant": [
        "SK",
        "SS"
],
      "SeriesDescription": "cmrr_mbep2d_bold_2mm_MB8_Task_8x",
      "SeriesNumber": 21,
      "SeriesTime": "121455.031000",
      "SliceLocation": -94.765177059623,
      "SliceThickness": 2.0,
      "SmallestImagePixelValue": 0,
      "SoftwareVersions": "syngo MR B19",
      "SpacingBetweenSlices": 1.9999999912552,
      "SpecificCharacterSet": "ISO_IR 100",
      "StudyID": "1",
      "StudyTime": "103144.593000",
      "TransmitCoilName": "Body",
      "VariableFlipAngleFlag": "N",
      "WindowCenterWidthExplanation": "Algo1",
      "dBdt": 0.0},
    "slices": {}
  },
  "time": {
    "samples": {
      "AcquisitionNumber": [1, 2, 3, 4, 5, 6, 7, 8, 9, 10, 11, 12, 13, 14, 15, 16, 17, 18, 19, 20, 21, 22, 23, 24, 25, 26, 27, 28, 29, 30, 31, 32, 33, 34, 35, 36, 37, 38, 39, 40, 41, 42, 43, 44, 45, 46, 47, 48, 49, 50, 51, 52, 53, 54, 55, 56, 57, 58, 59, 60, 61, 62, 63, 64, 65, 66, 67, 68, 69, 70, 71, 72, 73, 74, 75, 76, 77, 78, 79, 80, 81, 82, 83, 84, 85, 86, 87, 88, 89, 90, 91, 92, 93, 94, 95, 96, 97, 98, 99, 100, 101, 102, 103, 104, 105, 106, 107, 108, 109, 110, 111, 112, 113, 114, 115, 116, 117, 118, 119, 120, 121, 122, 123, 124, 125, 126, 127, 128, 129, 130, 131, 132, 133, 134, 135, 136, 137, 138, 139, 140, 141, 142, 143, 144, 145, 146, 147, 148, 149, 150, 151, 152, 153, 154, 155, 156, 157, 158, 159, 160, 161, 162, 163, 164, 165, 166, 167, 168, 169, 170, 171, 172, 173, 174, 175, 176, 177, 178, 179, 180, 181, 182, 183, 184, 185, 186, 187, 188, 189, 190, 191, 192, 193, 194, 195, 196, 197, 198, 199, 200, 201, 202, 203, 204, 205, 206, 207, 208, 209, 210, 211, 212, 213, 214, 215, 216, 217, 218, 219, 220, 221, 222, 223, 224, 225, 226, 227, 228, 229, 230, 231, 232, 233, 234, 235, 236, 237, 238, 239, 240, 241, 242, 243, 244, 245, 246, 247, 248, 249, 250, 251, 252, 253, 254, 255, 256, 257, 258, 259, 260, 261, 262, 263, 264, 265, 266, 267, 268, 269, 270, 271, 272, 273, 274, 275, 276, 277, 278, 279, 280, 281, 282, 283, 284, 285, 286, 287, 288, 289, 290, 291, 292, 293, 294, 295, 296, 297, 298, 299, 300, 301, 302, 303, 304, 305, 306, 307, 308, 309, 310, 311, 312, 313, 314, 315, 316, 317, 318, 319, 320, 321, 322, 323, 324, 325, 326, 327, 328, 329, 330, 331, 332, 333, 334, 335, 336, 337, 338, 339, 340, 341, 342, 343, 344, 345, 346, 347, 348, 349, 350, 351, 352, 353, 354, 355, 356, 357, 358, 359, 360, 361, 362, 363, 364, 365, 366, 367, 368, 369, 370, 371, 372, 373, 374, 375, 376, 377, 378, 379, 380, 381, 382, 383, 384, 385, 386, 387, 388, 389, 390, 391, 392, 393, 394, 395, 396, 397, 398, 399, 400, 401, 402, 403, 404, 405, 406, 407, 408, 409, 410, 411, 412, 413, 414, 415, 416, 417, 418, 419, 420, 421, 422, 423, 424, 425, 426, 427, 428, 429, 430, 431, 432, 433, 434, 435, 436, 437, 438, 439, 440, 441, 442, 443, 444, 445, 446, 447, 448, 449, 450, 451, 452, 453, 454, 455, 456, 457, 458, 459, 460, 461, 462, 463, 464, 465, 466, 467, 468, 469, 470, 471, 472, 473, 474, 475, 476, 477, 478, 479, 480, 481, 482, 483, 484, 485, 486, 487, 488, 489, 490, 491, 492, 493, 494, 495, 496, 497, 498, 499, 500, 501, 502, 503, 504, 505, 506, 507, 508, 509, 510, 511, 512, 513, 514, 515, 516, 517, 518, 519, 520, 521, 522, 523, 524, 525, 526, 527, 528, 529, 530, 531, 532, 533, 534, 535, 536, 537, 538, 539, 540, 541, 542, 543, 544, 545, 546, 547, 548, 549, 550, 551, 552, 553, 554, 555, 556, 557, 558, 559, 560, 561, 562, 563, 564, 565, 566, 567, 568, 569, 570, 571, 572, 573, 574, 575, 576, 577, 578, 579, 580, 581],
      "AcquisitionTime": ["121433.747500", "121434.535000", "121435.322500", "121436.112500", "121436.900000", "121437.687500", "121438.475000", "121439.265000", "121440.052500", "121440.840000", "121441.630000", "121442.417500", "121443.205000", "121443.992500", "121444.782500", "121445.570000", "121446.357500", "121447.145000", "121447.935000", "121448.722500", "121449.510000", "121450.297500", "121451.087500", "121451.875000", "121452.662500", "121453.450000", "121454.240000", "121455.027500", "121455.815000", "121456.602500", "121457.392500", "121458.180000", "121458.967500", "121459.757500", "121500.545000", "121501.332500", "121502.120000", "121502.910000", "121503.697500", "121504.485000", "121505.272500", "121506.062500", "121506.850000", "121507.637500", "121508.425000", "121509.215000", "121510.002500", "121510.790000", "121511.577500", "121512.367500", "121513.155000", "121513.942500", "121514.730000", "121515.520000", "121516.307500", "121517.095000", "121517.885000", "121518.672500", "121519.460000", "121520.247500", "121521.037500", "121521.825000", "121522.612500", "121523.400000", "121524.190000", "121524.977500", "121525.765000", "121526.552500", "121527.342500", "121528.130000", "121528.917500", "121529.705000", "121530.495000", "121531.282500", "121532.070000", "121532.857500", "121533.647500", "121534.435000", "121535.222500", "121536.012500", "121536.800000", "121537.587500", "121538.375000", "121539.165000", "121539.952500", "121540.740000", "121541.527500", "121542.317500", "121543.105000", "121543.892500", "121544.680000", "121545.470000", "121546.257500", "121547.045000", "121547.832500", "121548.622500", "121549.410000", "121550.197500", "121550.985000", "121551.775000", "121552.562500", "121553.350000", "121554.140000", "121554.927500", "121555.715000", "121556.502500", "121557.292500", "121558.080000", "121558.867500", "121559.655000", "121600.445000", "121601.232500", "121602.020000", "121602.807500", "121603.597500", "121604.385000", "121605.172500", "121605.960000", "121606.750000", "121607.537500", "121608.325000", "121609.112500", "121609.902500", "121610.690000", "121611.477500", "121612.267500", "121613.055000", "121613.842500", "121614.630000", "121615.420000", "121616.207500", "121616.995000", "121617.782500", "121618.572500", "121619.360000", "121620.147500", "121620.935000", "121621.725000", "121622.512500", "121623.300000", "121624.087500", "121624.877500", "121625.665000", "121626.452500", "121627.240000", "121628.030000", "121628.817500", "121629.605000", "121630.395000", "121631.182500", "121631.970000", "121632.757500", "121633.547500", "121634.335000", "121635.122500", "121635.910000", "121636.700000", "121637.487500", "121638.275000", "121639.062500", "121639.852500", "121640.640000", "121641.427500", "121642.215000", "121643.005000", "121643.792500", "121644.580000", "121645.367500", "121646.157500", "121646.945000", "121647.732500", "121648.522500", "121649.310000", "121650.097500", "121650.885000", "121651.675000", "121652.462500", "121653.250000", "121654.037500", "121654.827500", "121655.615000", "121656.402500", "121657.190000", "121657.980000", "121658.767500", "121659.555000", "121700.342500", "121701.132500", "121701.920000", "121702.707500", "121703.495000", "121704.285000", "121705.072500", "121705.860000", "121706.650000", "121707.437500", "121708.225000", "121709.012500", "121709.802500", "121710.590000", "121711.377500", "121712.165000", "121712.955000", "121713.742500", "121714.530000", "121715.317500", "121716.107500", "121716.895000", "121717.682500", "121718.470000", "121719.260000", "121720.047500", "121720.835000", "121721.625000", "121722.412500", "121723.200000", "121723.987500", "121724.777500", "121725.565000", "121726.352500", "121727.140000", "121727.930000", "121728.717500", "121729.505000", "121730.292500", "121731.082500", "121731.870000", "121732.657500", "121733.445000", "121734.235000", "121735.022500", "121735.810000", "121736.597500", "121737.387500", "121738.175000", "121738.962500", "121739.752500", "121740.540000", "121741.327500", "121742.115000", "121742.905000", "121743.692500", "121744.480000", "121745.267500", "121746.057500", "121746.845000", "121747.632500", "121748.420000", "121749.210000", "121749.997500", "121750.785000", "121751.572500", "121752.362500", "121753.150000", "121753.937500", "121754.725000", "121755.515000", "121756.302500", "121757.090000", "121757.880000", "121758.667500", "121759.455000", "121800.242500", "121801.032500", "121801.820000", "121802.607500", "121803.395000", "121804.185000", "121804.972500", "121805.760000", "121806.547500", "121807.337500", "121808.125000", "121808.912500", "121809.700000", "121810.490000", "121811.277500", "121812.065000", "121812.852500", "121813.642500", "121814.430000", "121815.217500", "121816.007500", "121816.795000", "121817.582500", "121818.370000", "121819.160000", "121819.947500", "121820.735000", "121821.522500", "121822.312500", "121823.100000", "121823.887500", "121824.675000", "121825.465000", "121826.252500", "121827.040000", "121827.827500", "121828.617500", "121829.405000", "121830.192500", "121830.980000", "121831.770000", "121832.557500", "121833.345000", "121834.135000", "121834.922500", "121835.710000", "121836.497500", "121837.287500", "121838.075000", "121838.862500", "121839.650000", "121840.440000", "121841.227500", "121842.015000", "121842.802500", "121843.592500", "121844.380000", "121845.167500", "121845.955000", "121846.745000", "121847.532500", "121848.320000", "121849.107500", "121849.897500", "121850.685000", "121851.472500", "121852.262500", "121853.050000", "121853.837500", "121854.625000", "121855.415000", "121856.202500", "121856.990000", "121857.777500", "121858.567500", "121859.355000", "121900.142500", "121900.930000", "121901.720000", "121902.507500", "121903.295000", "121904.082500", "121904.872500", "121905.660000", "121906.447500", "121907.235000", "121908.025000", "121908.812500", "121909.600000", "121910.390000", "121911.177500", "121911.965000", "121912.752500", "121913.542500", "121914.330000", "121915.117500", "121915.905000", "121916.695000", "121917.482500", "121918.270000", "121919.057500", "121919.847500", "121920.635000", "121921.422500", "121922.210000", "121923.000000", "121923.787500", "121924.575000", "121925.362500", "121926.152500", "121926.940000", "121927.727500", "121928.517500", "121929.305000", "121930.092500", "121930.880000", "121931.670000", "121932.457500", "121933.245000", "121934.032500", "121934.822500", "121935.610000", "121936.397500", "121937.185000", "121937.975000", "121938.762500", "121939.550000", "121940.337500", "121941.127500", "121941.915000", "121942.702500", "121943.490000", "121944.280000", "121945.067500", "121945.855000", "121946.645000", "121947.432500", "121948.220000", "121949.007500", "121949.797500", "121950.585000", "121951.372500", "121952.160000", "121952.950000", "121953.737500", "121954.525000", "121955.312500", "121956.102500", "121956.890000", "121957.677500", "121958.465000", "121959.255000", "122000.042500", "122000.830000", "122001.617500", "122002.407500", "122003.195000", "122003.982500", "122004.772500", "122005.560000", "122006.347500", "122007.135000", "122007.925000", "122008.712500", "122009.500000", "122010.287500", "122011.077500", "122011.865000", "122012.652500", "122013.440000", "122014.230000", "122015.017500", "122015.805000", "122016.592500", "122017.382500", "122018.170000", "122018.957500", "122019.745000", "122020.535000", "122021.322500", "122022.110000", "122022.900000", "122023.687500", "122024.475000", "122025.262500", "122026.052500", "122026.840000", "122027.627500", "122028.415000", "122029.205000", "122029.992500", "122030.780000", "122031.567500", "122032.357500", "122033.145000", "122033.932500", "122034.720000", "122035.510000", "122036.297500", "122037.085000", "122037.875000", "122038.662500", "122039.450000", "122040.237500", "122041.027500", "122041.815000", "122042.602500", "122043.390000", "122044.180000", "122044.967500", "122045.755000", "122046.542500", "122047.332500", "122048.120000", "122048.907500", "122049.695000", "122050.485000", "122051.272500", "122052.060000", "122052.847500", "122053.637500", "122054.425000", "122055.212500", "122056.002500", "122056.790000", "122057.577500", "122058.365000", "122059.155000", "122059.942500", "122100.730000", "122101.517500", "122102.307500", "122103.095000", "122103.882500", "122104.670000", "122105.460000", "122106.247500", "122107.035000", "122107.822500", "122108.612500", "122109.400000", "122110.187500", "122110.975000", "122111.765000", "122112.552500", "122113.340000", "122114.130000", "122114.917500", "122115.705000", "122116.492500", "122117.282500", "122118.070000", "122118.857500", "122119.645000", "122120.435000", "122121.222500", "122122.010000", "122122.797500", "122123.587500", "122124.375000", "122125.162500", "122125.950000", "122126.740000", "122127.527500", "122128.315000", "122129.102500", "122129.892500", "122130.680000", "122131.467500", "122132.257500", "122133.045000", "122133.832500", "122134.620000", "122135.410000", "122136.197500", "122136.985000", "122137.772500", "122138.562500", "122139.350000", "122140.137500", "122140.925000", "122141.715000", "122142.502500", "122143.290000", "122144.077500", "122144.867500", "122145.655000", "122146.442500", "122147.230000", "122148.020000", "122148.807500", "122149.595000", "122150.385000", "122151.172500", "122151.960000", "122152.747500", "122153.537500", "122154.325000", "122155.112500", "122155.900000", "122156.690000", "122157.477500", "122158.265000", "122159.052500", "122159.842500", "122200.630000", "122201.417500", "122202.205000", "122202.995000", "122203.782500", "122204.570000", "122205.357500", "122206.147500", "122206.935000", "122207.722500", "122208.512500", "122209.300000", "122210.087500", "122210.875000"],
      "ContentTime": ["121455.031000", "121455.031000", "121455.031000", "121455.031000", "121455.031000", "121455.046000", "121455.046000", "121455.046000", "121455.046000", "121455.046000", "121455.062000", "121455.062000", "121455.062000", "121455.062000", "121455.062000", "121455.062000", "121455.078000", "121455.078000", "121455.078000", "121455.078000", "121455.078000", "121455.078000", "121455.078000", "121455.093000", "121515.000000", "121515.000000", "121515.000000", "121515.015000", "121515.015000", "121515.015000", "121515.015000", "121515.015000", "121515.015000", "121515.015000", "121515.031000", "121515.031000", "121515.031000", "121515.031000", "121515.031000", "121515.031000", "121515.046000", "121515.046000", "121515.046000", "121515.046000", "121515.046000", "121515.046000", "121515.046000", "121515.062000", "121515.062000", "121515.062000", "121535.000000", "121535.000000", "121535.015000", "121535.015000", "121535.015000", "121535.015000", "121535.031000", "121535.031000", "121535.031000", "121535.031000", "121535.031000", "121535.031000", "121535.031000", "121535.046000", "121535.046000", "121535.046000", "121535.046000", "121535.046000", "121535.046000", "121535.046000", "121535.062000", "121535.062000", "121535.062000", "121535.062000", "121535.062000", "121555.000000", "121555.000000", "121555.000000", "121555.015000", "121555.015000", "121555.015000", "121555.015000", "121555.015000", "121555.015000", "121555.015000", "121555.031000", "121555.031000", "121555.031000", "121555.031000", "121555.031000", "121555.046000", "121555.046000", "121555.046000", "121555.046000", "121555.046000", "121555.046000", "121555.046000", "121555.062000", "121555.062000", "121555.062000", "121555.062000", "121615.000000", "121615.000000", "121615.000000", "121615.015000", "121615.015000", "121615.015000", "121615.015000", "121615.015000", "121615.031000", "121615.031000", "121615.031000", "121615.031000", "121615.031000", "121615.031000", "121615.046000", "121615.046000", "121615.046000", "121615.046000", "121615.046000", "121615.062000", "121615.062000", "121615.062000", "121615.062000", "121615.062000", "121615.062000", "121635.000000", "121635.000000", "121635.000000", "121635.015000", "121635.015000", "121635.015000", "121635.015000", "121635.015000", "121635.015000", "121635.015000", "121635.031000", "121635.031000", "121635.031000", "121635.031000", "121635.031000", "121635.031000", "121635.046000", "121635.046000", "121635.046000", "121635.046000", "121635.046000", "121635.046000", "121635.046000", "121635.062000", "121635.062000", "121655.000000", "121655.000000", "121655.000000", "121655.015000", "121655.015000", "121655.015000", "121655.015000", "121655.015000", "121655.015000", "121655.015000", "121655.031000", "121655.031000", "121655.031000", "121655.031000", "121655.031000", "121655.031000", "121655.046000", "121655.046000", "121655.046000", "121655.046000", "121655.046000", "121655.046000", "121655.062000", "121655.062000", "121655.062000", "121655.062000", "121715.000000", "121715.000000", "121715.015000", "121715.015000", "121715.031000", "121715.031000", "121715.031000", "121715.031000", "121715.031000", "121715.031000", "121715.046000", "121715.046000", "121715.046000", "121715.046000", "121715.046000", "121715.046000", "121715.046000", "121715.062000", "121715.062000", "121715.062000", "121715.062000", "121715.062000", "121715.078000", "121715.078000", "121715.078000", "121735.000000", "121735.000000", "121735.000000", "121735.015000", "121735.015000", "121735.015000", "121735.015000", "121735.015000", "121735.015000", "121735.015000", "121735.031000", "121735.031000", "121735.031000", "121735.031000", "121735.031000", "121735.031000", "121735.046000", "121735.046000", "121735.046000", "121735.046000", "121735.046000", "121735.046000", "121735.062000", "121735.062000", "121735.062000", "121735.062000", "121755.000000", "121755.000000", "121755.000000", "121755.015000", "121755.015000", "121755.015000", "121755.015000", "121755.015000", "121755.015000", "121755.031000", "121755.031000", "121755.031000", "121755.031000", "121755.031000", "121755.031000", "121755.031000", "121755.046000", "121755.046000", "121755.046000", "121755.046000", "121755.046000", "121755.062000", "121755.062000", "121755.062000", "121755.062000", "121815.000000", "121815.000000", "121815.000000", "121815.015000", "121815.015000", "121815.015000", "121815.015000", "121815.015000", "121815.015000", "121815.015000", "121815.031000", "121815.031000", "121815.031000", "121815.031000", "121815.031000", "121815.031000", "121815.046000", "121815.046000", "121815.046000", "121815.046000", "121815.046000", "121815.046000", "121815.046000", "121815.062000", "121815.062000", "121815.062000", "121835.000000", "121835.015000", "121835.015000", "121835.015000", "121835.015000", "121835.015000", "121835.015000", "121835.031000", "121835.031000", "121835.031000", "121835.031000", "121835.031000", "121835.031000", "121835.031000", "121835.046000", "121835.046000", "121835.046000", "121835.046000", "121835.046000", "121835.046000", "121835.062000", "121835.062000", "121835.062000", "121835.062000", "121835.078000", "121855.000000", "121855.000000", "121855.000000", "121855.015000", "121855.015000", "121855.015000", "121855.015000", "121855.015000", "121855.015000", "121855.015000", "121855.031000", "121855.031000", "121855.031000", "121855.031000", "121855.031000", "121855.031000", "121855.031000", "121855.046000", "121855.046000", "121855.046000", "121855.046000", "121855.062000", "121855.062000", "121855.062000", "121855.062000", "121855.062000", "121915.000000", "121915.000000", "121915.000000", "121915.015000", "121915.015000", "121915.015000", "121915.015000", "121915.015000", "121915.015000", "121915.031000", "121915.031000", "121915.031000", "121915.031000", "121915.031000", "121915.031000", "121915.031000", "121915.046000", "121915.046000", "121915.046000", "121915.046000", "121915.046000", "121915.046000", "121915.046000", "121915.062000", "121915.062000", "121935.000000", "121935.000000", "121935.000000", "121935.015000", "121935.015000", "121935.015000", "121935.015000", "121935.015000", "121935.015000", "121935.015000", "121935.031000", "121935.031000", "121935.031000", "121935.031000", "121935.031000", "121935.031000", "121935.031000", "121935.046000", "121935.046000", "121935.046000", "121935.046000", "121935.046000", "121935.046000", "121935.046000", "121935.062000", "121935.062000", "121955.000000", "121955.000000", "121955.000000", "121955.015000", "121955.015000", "121955.015000", "121955.015000", "121955.015000", "121955.015000", "121955.015000", "121955.031000", "121955.031000", "121955.031000", "121955.031000", "121955.031000", "121955.031000", "121955.046000", "121955.046000", "121955.046000", "121955.046000", "121955.046000", "121955.046000", "121955.046000", "121955.062000", "121955.062000", "122015.000000", "122015.000000", "122015.000000", "122015.015000", "122015.015000", "122015.015000", "122015.015000", "122015.015000", "122015.015000", "122015.031000", "122015.031000", "122015.031000", "122015.031000", "122015.031000", "122015.031000", "122015.031000", "122015.046000", "122015.046000", "122015.046000", "122015.046000", "122015.046000", "122015.046000", "122015.046000", "122015.062000", "122015.062000", "122015.062000", "122035.000000", "122035.000000", "122035.000000", "122035.015000", "122035.015000", "122035.015000", "122035.015000", "122035.015000", "122035.015000", "122035.031000", "122035.031000", "122035.031000", "122035.031000", "122035.031000", "122035.031000", "122035.031000", "122035.046000", "122035.046000", "122035.046000", "122035.046000", "122035.046000", "122035.046000", "122035.046000", "122035.062000", "122035.062000", "122055.000000", "122055.000000", "122055.000000", "122055.015000", "122055.015000", "122055.015000", "122055.015000", "122055.015000", "122055.015000", "122055.015000", "122055.031000", "122055.031000", "122055.031000", "122055.031000", "122055.031000", "122055.031000", "122055.046000", "122055.046000", "122055.046000", "122055.046000", "122055.046000", "122055.046000", "122055.046000", "122055.062000", "122055.062000", "122055.062000", "122115.000000", "122115.000000", "122115.000000", "122115.015000", "122115.015000", "122115.015000", "122115.015000", "122115.015000", "122115.015000", "122115.015000", "122115.031000", "122115.031000", "122115.031000", "122115.031000", "122115.031000", "122115.031000", "122115.031000", "122115.046000", "122115.046000", "122115.046000", "122115.046000", "122115.046000", "122115.046000", "122115.062000", "122115.062000", "122135.000000", "122135.000000", "122135.000000", "122135.015000", "122135.015000", "122135.015000", "122135.015000", "122135.015000", "122135.015000", "122135.015000", "122135.031000", "122135.031000", "122135.031000", "122135.031000", "122135.046000", "122135.046000", "122135.046000", "122135.046000", "122135.046000", "122135.062000", "122135.062000", "122135.062000", "122135.062000", "122135.062000", "122135.062000", "122135.062000", "122155.000000", "122155.000000", "122155.015000", "122155.015000", "122155.015000", "122155.015000", "122155.015000", "122155.015000", "122155.015000", "122155.031000", "122155.031000", "122155.031000", "122155.031000", "122155.031000", "122155.031000", "122155.031000", "122155.046000", "122155.046000", "122155.046000", "122155.046000", "122155.046000", "122155.046000", "122155.046000", "122155.062000", "122155.062000", "122211.812000", "122211.828000", "122211.828000", "122211.828000", "122211.828000", "122211.828000", "122211.828000", "122211.828000", "122211.843000", "122211.843000", "122211.843000", "122211.843000", "122211.843000", "122211.843000", "122211.843000", "122211.859000", "122211.859000", "122211.859000", "122211.859000", "122211.859000", "122211.859000", "122211.859000"],
      "DataSetTrailingPadding": [
        "\u0000\u0000\u0000\u0000\u0000\u0000\u0000\u0000\u0000\u0000\u0000\u0000\u0000\u0000\u0000\u0000\u0000\u0000\u0000\u0000\u0000\u0000\u0000\u0000\u0000\u0000\u0000\u0000\u0000\u0000\u0000\u0000\u0000\u0000\u0000\u0000\u0000\u0000\u0000\u0000\u0000\u0000\u0000\u0000\u0000\u0000\u0000\u0000\u0000\u0000\u0000\u0000\u0000\u0000\u0000\u0000\u0000\u0000\u0000\u0000\u0000\u0000\u0000\u0000\u0000\u0000\u0000\u0000\u0000\u0000\u0000\u0000\u0000\u0000\u0000\u0000\u0000\u0000\u0000\u0000\u0000\u0000\u0000\u0000\u0000\u0000\u0000\u0000\u0000\u0000\u0000\u0000\u0000\u0000\u0000\u0000\u0000\u0000\u0000\u0000\u0000\u0000\u0000\u0000\u0000\u0000\u0000\u0000\u0000\u0000\u0000\u0000\u0000\u0000\u0000\u0000\u0000\u0000\u0000\u0000\u0000\u0000\u0000\u0000\u0000\u0000\u0000\u0000\u0000\u0000\u0000\u0000\u0000\u0000\u0000\u0000\u0000\u0000\u0000\u0000\u0000\u0000\u0000\u0000\u0000\u0000\u0000\u0000\u0000\u0000\u0000\u0000\u0000\u0000\u0000\u0000\u0000\u0000",
        "\u0000\u0000\u0000\u0000\u0000\u0000\u0000\u0000\u0000\u0000\u0000\u0000\u0000\u0000\u0000\u0000\u0000\u0000\u0000\u0000\u0000\u0000\u0000\u0000\u0000\u0000\u0000\u0000\u0000\u0000\u0000\u0000\u0000\u0000\u0000\u0000\u0000\u0000\u0000\u0000\u0000\u0000\u0000\u0000\u0000\u0000\u0000\u0000\u0000\u0000\u0000\u0000\u0000\u0000\u0000\u0000\u0000\u0000\u0000\u0000\u0000\u0000\u0000\u0000\u0000\u0000\u0000\u0000\u0000\u0000\u0000\u0000\u0000\u0000\u0000\u0000\u0000\u0000\u0000\u0000\u0000\u0000\u0000\u0000\u0000\u0000\u0000\u0000\u0000\u0000\u0000\u0000\u0000\u0000\u0000\u0000\u0000\u0000\u0000\u0000\u0000\u0000\u0000\u0000\u0000\u0000\u0000\u0000\u0000\u0000\u0000\u0000\u0000\u0000\u0000\u0000\u0000\u0000\u0000\u0000\u0000\u0000\u0000\u0000\u0000\u0000\u0000\u0000\u0000\u0000\u0000\u0000\u0000\u0000\u0000\u0000\u0000\u0000\u0000\u0000\u0000\u0000\u0000\u0000\u0000\u0000\u0000\u0000\u0000\u0000\u0000\u0000\u0000\u0000\u0000\u0000\u0000\u0000",
