{
  "AcquisitionMatrixPE": 104,
  "AcquisitionNumber": 1,
  "AcquisitionTime": "16:09:58.740000",
  "BandwidthPerPixelPhaseEncode": 13.935,
  "BaseResolution": 104,
  "CoilString": "C:HEA;HEP",
  "ConversionSoftware": "dcm2niix",
  "ConversionSoftwareVersion": "v1.0.20210317",
  "DerivedVendorReportedEchoSpacing": 0.000690017,
  "DeviceSerialNumber": "35450",
  "DwellTime": 2.5e-06,
  "EchoTime": 0.0348,
  "EffectiveEchoSpacing": 0.000690017,
  "FlipAngle": 55,
  "ImageComments": "Unaliased MB8/PE3 (remote)",
  "ImageOrientationPatientDICOM": [0.999129, 0.00443524, -0.0414816, 5.60459e-08, 0.994332, 0.106316],
  "ImageType": [
    "ORIGINAL",
    "PRIMARY",
    "M",
    "MB",
    "ND",
    "MOSAIC"
],
  "ImagingFrequency": 123.235,
  "InPlanePhaseEncodingDirectionDICOM": "COL",
  "InstitutionAddress": "Univeristy Ave. 197,Newark,North East,US,07102-1814",
  "InstitutionName": "RUBIC",
  "InstitutionalDepartmentName": "Department",
  "MRAcquisitionType": "2D",
  "MagneticFieldStrength": 3,
  "Manufacturer": "Siemens",
  "ManufacturersModelName": "TrioTim",
  "Modality": "MR",
  "MultibandAccelerationFactor": 8,
  "PartialFourier": 0.875,
  "PatientPosition": "HFS",
  "PercentPhaseFOV": 100,
  "PercentSampling": 100,
  "PhaseEncodingDirection": "j-",
  "PhaseEncodingSteps": 91,
  "PhaseResolution": 1,
  "PixelBandwidth": 1923,
  "ProcedureStepDescription": "Cole^Michael",
  "ProtocolName": "cmrr_mbep2d_bold_2mm_MB8_Task_8x",
  "PulseSequenceDetails": "%CustomerSeq%\\cmrr_mbep2d_bold",
  "ReceiveCoilName": "32Ch_Head",
  "ReconMatrixPE": 104,
  "RepetitionTime": 0.785,
  "SAR": 0.104975,
  "ScanOptions": "PFP\\FS",
  "ScanningSequence": "EP",
  "SequenceName": "epfid2d1_104",
  "SequenceVariant": "SK\\SS",
  "SeriesDescription": "cmrr_mbep2d_bold_2mm_MB8_Task_8x",
  "SeriesNumber": 27,
  "ShimSetting": [2099, -444, -7363, 987, -49, -290, -653, -20],
  "SliceThickness": 2,
  "SliceTiming": [0, 0.44, 0.0875, 0.5275, 0.175, 0.615, 0.265, 0.7025, 0.3525, 0, 0.44, 0.0875, 0.5275, 0.175, 0.615, 0.265, 0.7025, 0.3525, 0, 0.44, 0.0875, 0.5275, 0.175, 0.615, 0.265, 0.7025, 0.3525, 0, 0.44, 0.0875, 0.5275, 0.175, 0.615, 0.265, 0.7025, 0.3525, 0, 0.44, 0.0875, 0.5275, 0.175, 0.615, 0.265, 0.7025, 0.3525, 0, 0.44, 0.0875, 0.5275, 0.175, 0.615, 0.265, 0.7025, 0.3525, 0, 0.44, 0.0875, 0.5275, 0.175, 0.615, 0.265, 0.7025, 0.3525, 0, 0.44, 0.0875, 0.5275, 0.175, 0.615, 0.265, 0.7025, 0.3525],
  "SoftwareVersions": "syngo MR B19",
  "SpacingBetweenSlices": 2,
  "StationName": "MRC35450",
  "TaskName": "cpro",
  "TotalReadoutTime": 0.0710717,
  "TxRefAmp": 316.385,
  "dcmmeta_affine": [
    [-1.9982588291168213, 1.1209179717752704e-07, -0.08343607187271118, 106.0776596069336],
    [-0.008870475925505161, 1.9886647462844849, 0.21244683861732483, -88.75502014160156],
    [-0.08296319842338562, -0.212631955742836, 1.9869334697723389, -66.69784545898438],
    [0.0, 0.0, 0.0, 1.0]
],
  "dcmmeta_reorient_transform": [
    [0.0, -1.0, 0.0, 103.0],
    [1.0, 0.0, 0.0, 0.0],
    [0.0, 0.0, 1.0, 0.0],
    [0.0, 0.0, 0.0, 1.0]
],
  "dcmmeta_shape": [104, 104, 72, 581],
  "dcmmeta_slice_dim": 2,
  "dcmmeta_version": 0.6,
  "global": {
    "const": {
      "AcquisitionMatrix": [104, 0, 0, 104],
      "AngioFlag": "N",
      "BitsAllocated": 16,
      "BitsStored": 12,
      "Columns": 936,
      "EchoNumbers": 1,
      "EchoTime": 34.8,
      "EchoTrainLength": 1,
      "FlipAngle": 55.0,
      "HighBit": 11,
      "ImageOrientationPatient": [0.99912942383643, 0.00443523791953, -0.0414815994012, 5.6045897e-08, 0.99433239571134, 0.10631597640499],
      "ImagePositionPatient": [-937.35339771583, -947.05212298316, -142.54113990044],
      "ImageType": [
        "ORIGINAL",
        "PRIMARY",
        "M",
        "MB",
        "ND",
        "MOSAIC"
],
      "ImagedNucleus": "1H",
      "ImagingFrequency": 123.234551,
      "InPlanePhaseEncodingDirection": "COL",
      "MRAcquisitionType": "2D",
      "MagneticFieldStrength": 3.0,
      "Manufacturer": "SIEMENS",
      "ManufacturerModelName": "TrioTim",
      "Modality": "MR",
      "NumberOfAverages": 1.0,
      "NumberOfPhaseEncodingSteps": 91,
      "PercentPhaseFieldOfView": 100.0,
      "PercentSampling": 100.0,
      "PerformedProcedureStepStartTime": "142154.062000",
      "PhotometricInterpretation": "MONOCHROME2",
      "PixelBandwidth": 1923.0,
      "PixelRepresentation": 0,
      "PixelSpacing": [2.0, 2.0],
      "ProtocolName": "cmrr_mbep2d_bold_2mm_MB8_Task_8x",
      "RepetitionTime": 785.0,
      "Rows": 936,
      "SAR": 0.10497467825185,
      "SamplesPerPixel": 1,
      "ScanOptions": [
        "PFP",
        "FS"
],
      "ScanningSequence": "EP",
      "SequenceName": "epfid2d1_104",
      "SequenceVariant": [
        "SK",
        "SS"
],
      "SeriesDescription": "cmrr_mbep2d_bold_2mm_MB8_Task_8x",
      "SeriesNumber": 27,
      "SeriesTime": "161017.078000",
      "SliceLocation": -80.115307248667,
      "SliceThickness": 2.0,
      "SmallestImagePixelValue": 0,
      "SoftwareVersions": "syngo MR B19",
      "SpacingBetweenSlices": 1.9999999719936,
      "SpecificCharacterSet": "ISO_IR 100",
      "StudyID": "1",
      "StudyTime": "142154.031000",
      "TransmitCoilName": "Body",
      "VariableFlipAngleFlag": "N",
      "WindowCenterWidthExplanation": "Algo1",
      "dBdt": 0.0},
    "slices": {}
  },
  "time": {
    "samples": {
      "AcquisitionNumber": [1, 2, 3, 4, 5, 6, 7, 8, 9, 10, 11, 12, 13, 14, 15, 16, 17, 18, 19, 20, 21, 22, 23, 24, 25, 26, 27, 28, 29, 30, 31, 32, 33, 34, 35, 36, 37, 38, 39, 40, 41, 42, 43, 44, 45, 46, 47, 48, 49, 50, 51, 52, 53, 54, 55, 56, 57, 58, 59, 60, 61, 62, 63, 64, 65, 66, 67, 68, 69, 70, 71, 72, 73, 74, 75, 76, 77, 78, 79, 80, 81, 82, 83, 84, 85, 86, 87, 88, 89, 90, 91, 92, 93, 94, 95, 96, 97, 98, 99, 100, 101, 102, 103, 104, 105, 106, 107, 108, 109, 110, 111, 112, 113, 114, 115, 116, 117, 118, 119, 120, 121, 122, 123, 124, 125, 126, 127, 128, 129, 130, 131, 132, 133, 134, 135, 136, 137, 138, 139, 140, 141, 142, 143, 144, 145, 146, 147, 148, 149, 150, 151, 152, 153, 154, 155, 156, 157, 158, 159, 160, 161, 162, 163, 164, 165, 166, 167, 168, 169, 170, 171, 172, 173, 174, 175, 176, 177, 178, 179, 180, 181, 182, 183, 184, 185, 186, 187, 188, 189, 190, 191, 192, 193, 194, 195, 196, 197, 198, 199, 200, 201, 202, 203, 204, 205, 206, 207, 208, 209, 210, 211, 212, 213, 214, 215, 216, 217, 218, 219, 220, 221, 222, 223, 224, 225, 226, 227, 228, 229, 230, 231, 232, 233, 234, 235, 236, 237, 238, 239, 240, 241, 242, 243, 244, 245, 246, 247, 248, 249, 250, 251, 252, 253, 254, 255, 256, 257, 258, 259, 260, 261, 262, 263, 264, 265, 266, 267, 268, 269, 270, 271, 272, 273, 274, 275, 276, 277, 278, 279, 280, 281, 282, 283, 284, 285, 286, 287, 288, 289, 290, 291, 292, 293, 294, 295, 296, 297, 298, 299, 300, 301, 302, 303, 304, 305, 306, 307, 308, 309, 310, 311, 312, 313, 314, 315, 316, 317, 318, 319, 320, 321, 322, 323, 324, 325, 326, 327, 328, 329, 330, 331, 332, 333, 334, 335, 336, 337, 338, 339, 340, 341, 342, 343, 344, 345, 346, 347, 348, 349, 350, 351, 352, 353, 354, 355, 356, 357, 358, 359, 360, 361, 362, 363, 364, 365, 366, 367, 368, 369, 370, 371, 372, 373, 374, 375, 376, 377, 378, 379, 380, 381, 382, 383, 384, 385, 386, 387, 388, 389, 390, 391, 392, 393, 394, 395, 396, 397, 398, 399, 400, 401, 402, 403, 404, 405, 406, 407, 408, 409, 410, 411, 412, 413, 414, 415, 416, 417, 418, 419, 420, 421, 422, 423, 424, 425, 426, 427, 428, 429, 430, 431, 432, 433, 434, 435, 436, 437, 438, 439, 440, 441, 442, 443, 444, 445, 446, 447, 448, 449, 450, 451, 452, 453, 454, 455, 456, 457, 458, 459, 460, 461, 462, 463, 464, 465, 466, 467, 468, 469, 470, 471, 472, 473, 474, 475, 476, 477, 478, 479, 480, 481, 482, 483, 484, 485, 486, 487, 488, 489, 490, 491, 492, 493, 494, 495, 496, 497, 498, 499, 500, 501, 502, 503, 504, 505, 506, 507, 508, 509, 510, 511, 512, 513, 514, 515, 516, 517, 518, 519, 520, 521, 522, 523, 524, 525, 526, 527, 528, 529, 530, 531, 532, 533, 534, 535, 536, 537, 538, 539, 540, 541, 542, 543, 544, 545, 546, 547, 548, 549, 550, 551, 552, 553, 554, 555, 556, 557, 558, 559, 560, 561, 562, 563, 564, 565, 566, 567, 568, 569, 570, 571, 572, 573, 574, 575, 576, 577, 578, 579, 580, 581],
      "AcquisitionTime": ["160958.740000", "160959.530000", "161000.317500", "161001.105000", "161001.895000", "161002.682500", "161003.470000", "161004.257500", "161005.047500", "161005.835000", "161006.622500", "161007.410000", "161008.200000", "161008.987500", "161009.775000", "161010.562500", "161011.352500", "161012.140000", "161012.927500", "161013.715000", "161014.505000", "161015.292500", "161016.080000", "161016.867500", "161017.657500", "161018.445000", "161019.232500", "161020.022500", "161020.810000", "161021.597500", "161022.385000", "161023.175000", "161023.962500", "161024.750000", "161025.537500", "161026.327500", "161027.115000", "161027.902500", "161028.690000", "161029.480000", "161030.267500", "161031.055000", "161031.842500", "161032.632500", "161033.420000", "161034.207500", "161034.995000", "161035.785000", "161036.572500", "161037.360000", "161038.150000", "161038.937500", "161039.725000", "161040.512500", "161041.302500", "161042.090000", "161042.877500", "161043.665000", "161044.455000", "161045.242500", "161046.030000", "161046.817500", "161047.607500", "161048.395000", "161049.182500", "161049.970000", "161050.760000", "161051.547500", "161052.335000", "161053.122500", "161053.912500", "161054.700000", "161055.487500", "161056.277500", "161057.065000", "161057.852500", "161058.640000", "161059.430000", "161100.217500", "161101.005000", "161101.792500", "161102.582500", "161103.370000", "161104.157500", "161104.945000", "161105.735000", "161106.522500", "161107.310000", "161108.097500", "161108.887500", "161109.675000", "161110.462500", "161111.250000", "161112.040000", "161112.827500", "161113.615000", "161114.405000", "161115.192500", "161115.980000", "161116.767500", "161117.557500", "161118.345000", "161119.132500", "161119.920000", "161120.710000", "161121.497500", "161122.285000", "161123.072500", "161123.862500", "161124.650000", "161125.437500", "161126.225000", "161127.015000", "161127.802500", "161128.590000", "161129.377500", "161130.167500", "161130.955000", "161131.742500", "161132.532500", "161133.320000", "161134.107500", "161134.895000", "161135.685000", "161136.472500", "161137.260000", "161138.047500", "161138.837500", "161139.625000", "161140.412500", "161141.200000", "161141.990000", "161142.777500", "161143.565000", "161144.352500", "161145.142500", "161145.930000", "161146.717500", "161147.505000", "161148.295000", "161149.082500", "161149.870000", "161150.660000", "161151.447500", "161152.235000", "161153.022500", "161153.812500", "161154.600000", "161155.387500", "161156.175000", "161156.965000", "161157.752500", "161158.540000", "161159.327500", "161200.117500", "161200.905000", "161201.692500", "161202.480000", "161203.270000", "161204.057500", "161204.845000", "161205.635000", "161206.422500", "161207.210000", "161207.997500", "161208.787500", "161209.575000", "161210.362500", "161211.150000", "161211.940000", "161212.727500", "161213.515000", "161214.302500", "161215.092500", "161215.880000", "161216.667500", "161217.455000", "161218.245000", "161219.032500", "161219.820000", "161220.607500", "161221.397500", "161222.185000", "161222.972500", "161223.762500", "161224.550000", "161225.337500", "161226.125000", "161226.915000", "161227.702500", "161228.490000", "161229.277500", "161230.067500", "161230.855000", "161231.642500", "161232.430000", "161233.220000", "161234.007500", "161234.795000", "161235.582500", "161236.372500", "161237.160000", "161237.947500", "161238.735000", "161239.525000", "161240.312500", "161241.100000", "161241.890000", "161242.677500", "161243.465000", "161244.252500", "161245.042500", "161245.830000", "161246.617500", "161247.405000", "161248.195000", "161248.982500", "161249.770000", "161250.557500", "161251.347500", "161252.135000", "161252.922500", "161253.710000", "161254.500000", "161255.287500", "161256.075000", "161256.862500", "161257.652500", "161258.440000", "161259.227500", "161300.017500", "161300.805000", "161301.592500", "161302.380000", "161303.170000", "161303.957500", "161304.745000", "161305.532500", "161306.322500", "161307.110000", "161307.897500", "161308.685000", "161309.475000", "161310.262500", "161311.050000", "161311.837500", "161312.627500", "161313.415000", "161314.202500", "161314.990000", "161315.780000", "161316.567500", "161317.355000", "161318.145000", "161318.932500", "161319.720000", "161320.507500", "161321.297500", "161322.085000", "161322.872500", "161323.660000", "161324.450000", "161325.237500", "161326.025000", "161326.812500", "161327.602500", "161328.390000", "161329.177500", "161329.965000", "161330.755000", "161331.542500", "161332.330000", "161333.117500", "161333.907500", "161334.695000", "161335.482500", "161336.272500", "161337.060000", "161337.847500", "161338.635000", "161339.425000", "161340.212500", "161341.000000", "161341.787500", "161342.577500", "161343.365000", "161344.152500", "161344.940000", "161345.730000", "161346.517500", "161347.305000", "161348.092500", "161348.882500", "161349.670000", "161350.457500", "161351.245000", "161352.035000", "161352.822500", "161353.610000", "161354.400000", "161355.187500", "161355.975000", "161356.762500", "161357.552500", "161358.340000", "161359.127500", "161359.915000", "161400.705000", "161401.492500", "161402.280000", "161403.067500", "161403.857500", "161404.645000", "161405.432500", "161406.220000", "161407.010000", "161407.797500", "161408.585000", "161409.372500", "161410.162500", "161410.950000", "161411.737500", "161412.527500", "161413.315000", "161414.102500", "161414.890000", "161415.680000", "161416.467500", "161417.255000", "161418.042500", "161418.832500", "161419.620000", "161420.407500", "161421.195000", "161421.985000", "161422.772500", "161423.560000", "161424.347500", "161425.137500", "161425.925000", "161426.712500", "161427.500000", "161428.290000", "161429.077500", "161429.865000", "161430.655000", "161431.442500", "161432.230000", "161433.017500", "161433.807500", "161434.595000", "161435.382500", "161436.170000", "161436.960000", "161437.747500", "161438.535000", "161439.322500", "161440.112500", "161440.900000", "161441.687500", "161442.475000", "161443.265000", "161444.052500", "161444.840000", "161445.627500", "161446.417500", "161447.205000", "161447.992500", "161448.782500", "161449.570000", "161450.357500", "161451.145000", "161451.935000", "161452.722500", "161453.510000", "161454.297500", "161455.087500", "161455.875000", "161456.662500", "161457.450000", "161458.240000", "161459.027500", "161459.815000", "161500.602500", "161501.392500", "161502.180000", "161502.967500", "161503.755000", "161504.545000", "161505.332500", "161506.120000", "161506.910000", "161507.697500", "161508.485000", "161509.272500", "161510.062500", "161510.850000", "161511.637500", "161512.425000", "161513.215000", "161514.002500", "161514.790000", "161515.577500", "161516.367500", "161517.155000", "161517.942500", "161518.730000", "161519.520000", "161520.307500", "161521.095000", "161521.885000", "161522.672500", "161523.460000", "161524.247500", "161525.037500", "161525.825000", "161526.612500", "161527.400000", "161528.190000", "161528.977500", "161529.765000", "161530.552500", "161531.342500", "161532.130000", "161532.917500", "161533.705000", "161534.495000", "161535.282500", "161536.070000", "161536.857500", "161537.647500", "161538.435000", "161539.222500", "161540.012500", "161540.800000", "161541.587500", "161542.375000", "161543.165000", "161543.952500", "161544.740000", "161545.527500", "161546.317500", "161547.105000", "161547.892500", "161548.680000", "161549.470000", "161550.257500", "161551.045000", "161551.832500", "161552.622500", "161553.410000", "161554.197500", "161554.985000", "161555.775000", "161556.562500", "161557.350000", "161558.140000", "161558.927500", "161559.715000", "161600.502500", "161601.292500", "161602.080000", "161602.867500", "161603.655000", "161604.445000", "161605.232500", "161606.020000", "161606.807500", "161607.597500", "161608.385000", "161609.172500", "161609.960000", "161610.750000", "161611.537500", "161612.325000", "161613.112500", "161613.902500", "161614.690000", "161615.477500", "161616.267500", "161617.055000", "161617.842500", "161618.630000", "161619.420000", "161620.207500", "161620.995000", "161621.782500", "161622.572500", "161623.360000", "161624.147500", "161624.935000", "161625.725000", "161626.512500", "161627.300000", "161628.087500", "161628.877500", "161629.665000", "161630.452500", "161631.240000", "161632.030000", "161632.817500", "161633.605000", "161634.395000", "161635.182500", "161635.970000", "161636.757500", "161637.547500", "161638.335000", "161639.122500", "161639.910000", "161640.700000", "161641.487500", "161642.275000", "161643.062500", "161643.852500", "161644.640000", "161645.427500", "161646.215000", "161647.005000", "161647.792500", "161648.580000", "161649.367500", "161650.157500", "161650.945000", "161651.732500", "161652.522500", "161653.310000", "161654.097500", "161654.885000", "161655.675000", "161656.462500", "161657.250000", "161658.037500", "161658.827500", "161659.615000", "161700.402500", "161701.190000", "161701.980000", "161702.767500", "161703.555000", "161704.342500", "161705.132500", "161705.920000", "161706.707500", "161707.495000", "161708.285000", "161709.072500", "161709.860000", "161710.650000", "161711.437500", "161712.225000", "161713.012500", "161713.802500", "161714.590000", "161715.377500", "161716.165000", "161716.955000", "161717.742500", "161718.530000", "161719.317500", "161720.107500", "161720.895000", "161721.682500", "161722.470000", "161723.260000", "161724.047500", "161724.835000", "161725.622500", "161726.412500", "161727.200000", "161727.987500", "161728.777500", "161729.565000", "161730.352500", "161731.140000", "161731.930000", "161732.717500", "161733.505000", "161734.292500", "161735.082500", "161735.870000"],
      "ContentTime": ["161017.078000", "161017.078000", "161017.093000", "161017.093000", "161017.093000", "161017.093000", "161017.093000", "161017.093000", "161017.093000", "161017.093000", "161017.109000", "161017.109000", "161017.109000", "161017.109000", "161017.109000", "161017.109000", "161017.109000", "161017.125000", "161017.125000", "161017.125000", "161017.125000", "161037.046000", "161037.046000", "161037.046000", "161037.046000", "161037.062000", "161037.062000", "161037.062000", "161037.062000", "161037.062000", "161037.062000", "161037.062000", "161037.062000", "161037.078000", "161037.078000", "161037.078000", "161037.078000", "161037.078000", "161037.078000", "161037.078000", "161037.078000", "161037.093000", "161037.093000", "161037.093000", "161037.093000", "161037.093000", "161037.109000", "161057.046000", "161057.046000", "161057.046000", "161057.046000", "161057.062000", "161057.062000", "161057.062000", "161057.062000", "161057.062000", "161057.062000", "161057.062000", "161057.062000", "161057.078000", "161057.078000", "161057.078000", "161057.078000", "161057.078000", "161057.078000", "161057.078000", "161057.093000", "161057.093000", "161057.093000", "161057.093000", "161057.093000", "161057.093000", "161117.046000", "161117.046000", "161117.046000", "161117.046000", "161117.062000", "161117.062000", "161117.062000", "161117.062000", "161117.062000", "161117.062000", "161117.062000", "161117.078000", "161117.078000", "161117.078000", "161117.078000", "161117.078000", "161117.078000", "161117.078000", "161117.078000", "161117.093000", "161117.093000", "161117.093000", "161117.093000", "161117.093000", "161117.093000", "161117.093000", "161137.046000", "161137.046000", "161137.046000", "161137.046000", "161137.062000", "161137.062000", "161137.062000", "161137.062000", "161137.062000", "161137.078000", "161137.078000", "161137.078000", "161137.078000", "161137.078000", "161137.078000", "161137.078000", "161137.078000", "161137.093000", "161137.093000", "161137.093000", "161137.093000", "161137.093000", "161137.093000", "161137.093000", "161137.109000", "161157.046000", "161157.046000", "161157.046000", "161157.046000", "161157.062000", "161157.062000", "161157.062000", "161157.062000", "161157.062000", "161157.078000", "161157.078000", "161157.078000", "161157.078000", "161157.078000", "161157.078000", "161157.078000", "161157.078000", "161157.093000", "161157.093000", "161157.093000", "161157.093000", "161157.093000", "161157.109000", "161157.109000", "161157.109000", "161157.109000", "161217.046000", "161217.046000", "161217.046000", "161217.046000", "161217.062000", "161217.062000", "161217.062000", "161217.062000", "161217.062000", "161217.062000", "161217.062000", "161217.062000", "161217.078000", "161217.078000", "161217.078000", "161217.078000", "161217.078000", "161217.078000", "161217.078000", "161217.093000", "161217.093000", "161217.093000", "161217.093000", "161217.093000", "161217.093000", "161237.046000", "161237.046000", "161237.046000", "161237.046000", "161237.062000", "161237.062000", "161237.062000", "161237.062000", "161237.062000", "161237.062000", "161237.062000", "161237.062000", "161237.078000", "161237.078000", "161237.078000", "161237.078000", "161237.078000", "161237.078000", "161237.093000", "161237.093000", "161237.093000", "161237.093000", "161237.093000", "161237.093000", "161237.093000", "161257.046000", "161257.046000", "161257.046000", "161257.046000", "161257.062000", "161257.062000", "161257.062000", "161257.062000", "161257.062000", "161257.062000", "161257.062000", "161257.078000", "161257.078000", "161257.078000", "161257.078000", "161257.078000", "161257.078000", "161257.078000", "161257.078000", "161257.093000", "161257.093000", "161257.093000", "161257.093000", "161257.093000", "161257.093000", "161257.093000", "161317.046000", "161317.046000", "161317.046000", "161317.046000", "161317.062000", "161317.062000", "161317.062000", "161317.062000", "161317.062000", "161317.062000", "161317.078000", "161317.078000", "161317.078000", "161317.078000", "161317.078000", "161317.078000", "161317.078000", "161317.093000", "161317.093000", "161317.093000", "161317.093000", "161317.093000", "161317.093000", "161317.093000", "161317.109000", "161337.046000", "161337.046000", "161337.046000", "161337.046000", "161337.062000", "161337.062000", "161337.062000", "161337.062000", "161337.062000", "161337.062000", "161337.062000", "161337.062000", "161337.078000", "161337.078000", "161337.078000", "161337.078000", "161337.078000", "161337.078000", "161337.078000", "161337.093000", "161337.093000", "161337.093000", "161337.093000", "161337.093000", "161337.093000", "161337.093000", "161357.046000", "161357.046000", "161357.046000", "161357.046000", "161357.062000", "161357.062000", "161357.062000", "161357.062000", "161357.062000", "161357.062000", "161357.062000", "161357.078000", "161357.078000", "161357.078000", "161357.078000", "161357.078000", "161357.093000", "161357.093000", "161357.093000", "161357.093000", "161357.109000", "161357.109000", "161357.109000", "161357.109000", "161357.109000", "161417.046000", "161417.046000", "161417.046000", "161417.046000", "161417.062000", "161417.062000", "161417.062000", "161417.062000", "161417.062000", "161417.062000", "161417.062000", "161417.062000", "161417.078000", "161417.078000", "161417.078000", "161417.078000", "161417.078000", "161417.078000", "161417.078000", "161417.093000", "161417.093000", "161417.093000", "161417.093000", "161417.093000", "161417.093000", "161417.093000", "161437.046000", "161437.046000", "161437.046000", "161437.046000", "161437.062000", "161437.062000", "161437.062000", "161437.062000", "161437.062000", "161437.062000", "161437.062000", "161437.062000", "161437.078000", "161437.078000", "161437.078000", "161437.078000", "161437.078000", "161437.078000", "161437.093000", "161437.093000", "161437.093000", "161437.093000", "161437.093000", "161437.093000", "161437.093000", "161457.046000", "161457.046000", "161457.046000", "161457.062000", "161457.062000", "161457.062000", "161457.062000", "161457.062000", "161457.062000", "161457.062000", "161457.078000", "161457.078000", "161457.078000", "161457.078000", "161457.078000", "161457.078000", "161457.093000", "161457.093000", "161457.093000", "161457.093000", "161457.093000", "161457.093000", "161457.093000", "161457.109000", "161457.109000", "161457.109000", "161517.046000", "161517.046000", "161517.046000", "161517.046000", "161517.062000", "161517.062000", "161517.062000", "161517.062000", "161517.062000", "161517.062000", "161517.078000", "161517.078000", "161517.078000", "161517.078000", "161517.078000", "161517.078000", "161517.078000", "161517.093000", "161517.093000", "161517.093000", "161517.093000", "161517.093000", "161517.093000", "161517.093000", "161517.093000", "161537.046000", "161537.046000", "161537.046000", "161537.046000", "161537.062000", "161537.062000", "161537.062000", "161537.062000", "161537.062000", "161537.062000", "161537.062000", "161537.062000", "161537.078000", "161537.078000", "161537.078000", "161537.078000", "161537.078000", "161537.078000", "161537.078000", "161537.093000", "161537.093000", "161537.093000", "161537.093000", "161537.093000", "161537.093000", "161537.093000", "161557.046000", "161557.046000", "161557.046000", "161557.046000", "161557.062000", "161557.062000", "161557.062000", "161557.062000", "161557.062000", "161557.062000", "161557.062000", "161557.062000", "161557.078000", "161557.078000", "161557.078000", "161557.078000", "161557.078000", "161557.078000", "161557.078000", "161557.093000", "161557.093000", "161557.093000", "161557.093000", "161557.093000", "161557.093000", "161617.046000", "161617.046000", "161617.046000", "161617.046000", "161617.062000", "161617.062000", "161617.062000", "161617.062000", "161617.062000", "161617.062000", "161617.062000", "161617.078000", "161617.078000", "161617.078000", "161617.078000", "161617.078000", "161617.078000", "161617.078000", "161617.093000", "161617.093000", "161617.093000", "161617.093000", "161617.093000", "161617.093000", "161617.093000", "161617.093000", "161637.046000", "161637.046000", "161637.046000", "161637.046000", "161637.062000", "161637.062000", "161637.062000", "161637.062000", "161637.062000", "161637.062000", "161637.062000", "161637.062000", "161637.078000", "161637.078000", "161637.078000", "161637.078000", "161637.078000", "161637.078000", "161637.078000", "161637.093000", "161637.093000", "161637.093000", "161637.093000", "161637.093000", "161637.093000", "161657.046000", "161657.046000", "161657.046000", "161657.046000", "161657.062000", "161657.062000", "161657.062000", "161657.062000", "161657.062000", "161657.062000", "161657.062000", "161657.062000", "161657.078000", "161657.078000", "161657.078000", "161657.078000", "161657.078000", "161657.078000", "161657.078000", "161657.093000", "161657.093000", "161657.093000", "161657.093000", "161657.093000", "161657.093000", "161657.093000", "161717.046000", "161717.046000", "161717.046000", "161717.046000", "161717.062000", "161717.062000", "161717.062000", "161717.062000", "161717.062000", "161717.062000", "161717.062000", "161717.062000", "161717.078000", "161717.078000", "161717.078000", "161717.078000", "161717.078000", "161717.078000", "161717.078000", "161717.093000", "161717.093000", "161717.093000", "161717.093000", "161717.093000", "161717.093000", "161736.171000", "161736.171000", "161736.171000", "161736.187000", "161736.187000", "161736.187000", "161736.187000", "161736.187000", "161736.187000", "161736.187000", "161736.203000", "161736.203000", "161736.203000", "161736.203000", "161736.203000", "161736.203000", "161736.203000", "161736.203000", "161736.218000", "161736.218000", "161736.218000", "161736.218000", "161736.218000", "161736.218000", "161736.218000"],
