{
  "AcquisitionMatrixPE": 104,
  "AcquisitionNumber": 1,
  "AcquisitionTime": "14:50:41.692500",
  "BandwidthPerPixelPhaseEncode": 13.935,
  "BaseResolution": 104,
  "CoilString": "C:HEA;HEP",
  "ConversionSoftware": "dcm2niix",
  "ConversionSoftwareVersion": "v1.0.20210317",
  "DerivedVendorReportedEchoSpacing": 0.000690017,
  "DeviceSerialNumber": "35450",
  "DwellTime": 2.5e-06,
  "EchoTime": 0.0348,
  "EffectiveEchoSpacing": 0.000690017,
  "FlipAngle": 55,
  "ImageComments": "Unaliased MB8/PE3 (remote)",
  "ImageOrientationPatientDICOM": [0.999129, 0.00443524, -0.0414816, 5.60459e-08, 0.994332, 0.106316],
  "ImageType": [
    "ORIGINAL",
    "PRIMARY",
    "M",
    "MB",
    "ND",
    "MOSAIC"
],
  "ImagingFrequency": 123.235,
  "InPlanePhaseEncodingDirectionDICOM": "COL",
  "InstitutionAddress": "Univeristy Ave. 197,Newark,North East,US,07102-1814",
  "InstitutionName": "RUBIC",
  "InstitutionalDepartmentName": "Department",
  "MRAcquisitionType": "2D",
  "MagneticFieldStrength": 3,
  "Manufacturer": "Siemens",
  "ManufacturersModelName": "TrioTim",
  "Modality": "MR",
  "MultibandAccelerationFactor": 8,
  "PartialFourier": 0.875,
  "PatientPosition": "HFS",
  "PercentPhaseFOV": 100,
  "PercentSampling": 100,
  "PhaseEncodingDirection": "j-",
  "PhaseEncodingSteps": 91,
  "PhaseResolution": 1,
  "PixelBandwidth": 1923,
  "ProcedureStepDescription": "Cole^Michael",
  "ProtocolName": "cmrr_mbep2d_bold_2mm_MB8_Rest",
  "PulseSequenceDetails": "%CustomerSeq%\\cmrr_mbep2d_bold",
  "ReceiveCoilName": "32Ch_Head",
  "ReconMatrixPE": 104,
  "RepetitionTime": 0.785,
  "SAR": 0.119367,
  "ScanOptions": "PFP\\FS",
  "ScanningSequence": "EP",
  "SequenceName": "epfid2d1_104",
  "SequenceVariant": "SK\\SS",
  "SeriesDescription": "cmrr_mbep2d_bold_2mm_MB8_Rest",
  "SeriesNumber": 9,
  "ShimSetting": [2099, -444, -7363, 987, -49, -290, -653, -20],
  "SliceThickness": 2,
  "SliceTiming": [0, 0.4375, 0.0875, 0.525, 0.175, 0.6125, 0.2625, 0.7, 0.35, 0, 0.4375, 0.0875, 0.525, 0.175, 0.6125, 0.2625, 0.7, 0.35, 0, 0.4375, 0.0875, 0.525, 0.175, 0.6125, 0.2625, 0.7, 0.35, 0, 0.4375, 0.0875, 0.525, 0.175, 0.6125, 0.2625, 0.7, 0.35, 0, 0.4375, 0.0875, 0.525, 0.175, 0.6125, 0.2625, 0.7, 0.35, 0, 0.4375, 0.0875, 0.525, 0.175, 0.6125, 0.2625, 0.7, 0.35, 0, 0.4375, 0.0875, 0.525, 0.175, 0.6125, 0.2625, 0.7, 0.35, 0, 0.4375, 0.0875, 0.525, 0.175, 0.6125, 0.2625, 0.7, 0.35],
  "SoftwareVersions": "syngo MR B19",
  "SpacingBetweenSlices": 2,
  "StationName": "MRC35450",
  "TaskName": "rest",
  "TotalReadoutTime": 0.0710717,
  "TxRefAmp": 316.385,
  "dcmmeta_affine": [
    [-1.9982588291168213, 1.1209179717752704e-07, -0.08343607187271118, 106.0776596069336],
    [-0.008870475925505161, 1.9886647462844849, 0.21244683861732483, -88.75502014160156],
    [-0.08296319842338562, -0.212631955742836, 1.9869334697723389, -66.69784545898438],
    [0.0, 0.0, 0.0, 1.0]
],
  "dcmmeta_reorient_transform": [
    [0.0, -1.0, 0.0, 103.0],
    [1.0, 0.0, 0.0, 0.0],
    [0.0, 0.0, 1.0, 0.0],
    [0.0, 0.0, 0.0, 1.0]
],
  "dcmmeta_shape": [104, 104, 72, 1070],
  "dcmmeta_slice_dim": 2,
  "dcmmeta_version": 0.6,
  "global": {
    "const": {
      "AcquisitionMatrix": [104, 0, 0, 104],
      "AngioFlag": "N",
      "BitsAllocated": 16,
      "BitsStored": 12,
      "Columns": 936,
      "EchoNumbers": 1,
      "EchoTime": 34.8,
      "EchoTrainLength": 1,
      "FlipAngle": 55.0,
      "HighBit": 11,
      "ImageOrientationPatient": [0.99912942383643, 0.00443523791953, -0.0414815994012, 5.6045897e-08, 0.99433239571134, 0.10631597640499],
      "ImagePositionPatient": [-937.35339771583, -947.05212298316, -142.54113990044],
      "ImageType": [
        "ORIGINAL",
        "PRIMARY",
        "M",
        "MB",
        "ND",
        "MOSAIC"
],
      "ImagedNucleus": "1H",
      "ImagingFrequency": 123.234502,
      "InPlanePhaseEncodingDirection": "COL",
      "MRAcquisitionType": "2D",
      "MagneticFieldStrength": 3.0,
      "Manufacturer": "SIEMENS",
      "ManufacturerModelName": "TrioTim",
      "Modality": "MR",
      "NumberOfAverages": 1.0,
      "NumberOfPhaseEncodingSteps": 91,
      "PercentPhaseFieldOfView": 100.0,
      "PercentSampling": 100.0,
      "PerformedProcedureStepStartTime": "142154.062000",
      "PhotometricInterpretation": "MONOCHROME2",
      "PixelBandwidth": 1923.0,
      "PixelRepresentation": 0,
      "PixelSpacing": [2.0, 2.0],
      "ProtocolName": "cmrr_mbep2d_bold_2mm_MB8_Rest",
      "RepetitionTime": 785.0,
      "Rows": 936,
      "SAR": 0.11936681158874,
      "SamplesPerPixel": 1,
      "ScanOptions": [
        "PFP",
        "FS"
],
      "ScanningSequence": "EP",
      "SequenceName": "epfid2d1_104",
      "SequenceVariant": [
        "SK",
        "SS"
],
      "SeriesDescription": "cmrr_mbep2d_bold_2mm_MB8_Rest",
      "SeriesNumber": 9,
      "SeriesTime": "145117.078000",
      "SliceLocation": -80.115307248667,
      "SliceThickness": 2.0,
      "SmallestImagePixelValue": 0,
      "SoftwareVersions": "syngo MR B19",
      "SpacingBetweenSlices": 1.9999999719936,
      "SpecificCharacterSet": "ISO_IR 100",
      "StudyID": "1",
      "StudyTime": "142154.031000",
      "TransmitCoilName": "Body",
      "VariableFlipAngleFlag": "N",
      "WindowCenterWidthExplanation": "Algo1",
      "dBdt": 0.0},
    "slices": {}
  },
  "time": {
    "samples": {
      "AcquisitionNumber": [1, 2, 3, 4, 5, 6, 7, 8, 9, 10, 11, 12, 13, 14, 15, 16, 17, 18, 19, 20, 21, 22, 23, 24, 25, 26, 27, 28, 29, 30, 31, 32, 33, 34, 35, 36, 37, 38, 39, 40, 41, 42, 43, 44, 45, 46, 47, 48, 49, 50, 51, 52, 53, 54, 55, 56, 57, 58, 59, 60, 61, 62, 63, 64, 65, 66, 67, 68, 69, 70, 71, 72, 73, 74, 75, 76, 77, 78, 79, 80, 81, 82, 83, 84, 85, 86, 87, 88, 89, 90, 91, 92, 93, 94, 95, 96, 97, 98, 99, 100, 101, 102, 103, 104, 105, 106, 107, 108, 109, 110, 111, 112, 113, 114, 115, 116, 117, 118, 119, 120, 121, 122, 123, 124, 125, 126, 127, 128, 129, 130, 131, 132, 133, 134, 135, 136, 137, 138, 139, 140, 141, 142, 143, 144, 145, 146, 147, 148, 149, 150, 151, 152, 153, 154, 155, 156, 157, 158, 159, 160, 161, 162, 163, 164, 165, 166, 167, 168, 169, 170, 171, 172, 173, 174, 175, 176, 177, 178, 179, 180, 181, 182, 183, 184, 185, 186, 187, 188, 189, 190, 191, 192, 193, 194, 195, 196, 197, 198, 199, 200, 201, 202, 203, 204, 205, 206, 207, 208, 209, 210, 211, 212, 213, 214, 215, 216, 217, 218, 219, 220, 221, 222, 223, 224, 225, 226, 227, 228, 229, 230, 231, 232, 233, 234, 235, 236, 237, 238, 239, 240, 241, 242, 243, 244, 245, 246, 247, 248, 249, 250, 251, 252, 253, 254, 255, 256, 257, 258, 259, 260, 261, 262, 263, 264, 265, 266, 267, 268, 269, 270, 271, 272, 273, 274, 275, 276, 277, 278, 279, 280, 281, 282, 283, 284, 285, 286, 287, 288, 289, 290, 291, 292, 293, 294, 295, 296, 297, 298, 299, 300, 301, 302, 303, 304, 305, 306, 307, 308, 309, 310, 311, 312, 313, 314, 315, 316, 317, 318, 319, 320, 321, 322, 323, 324, 325, 326, 327, 328, 329, 330, 331, 332, 333, 334, 335, 336, 337, 338, 339, 340, 341, 342, 343, 344, 345, 346, 347, 348, 349, 350, 351, 352, 353, 354, 355, 356, 357, 358, 359, 360, 361, 362, 363, 364, 365, 366, 367, 368, 369, 370, 371, 372, 373, 374, 375, 376, 377, 378, 379, 380, 381, 382, 383, 384, 385, 386, 387, 388, 389, 390, 391, 392, 393, 394, 395, 396, 397, 398, 399, 400, 401, 402, 403, 404, 405, 406, 407, 408, 409, 410, 411, 412, 413, 414, 415, 416, 417, 418, 419, 420, 421, 422, 423, 424, 425, 426, 427, 428, 429, 430, 431, 432, 433, 434, 435, 436, 437, 438, 439, 440, 441, 442, 443, 444, 445, 446, 447, 448, 449, 450, 451, 452, 453, 454, 455, 456, 457, 458, 459, 460, 461, 462, 463, 464, 465, 466, 467, 468, 469, 470, 471, 472, 473, 474, 475, 476, 477, 478, 479, 480, 481, 482, 483, 484, 485, 486, 487, 488, 489, 490, 491, 492, 493, 494, 495, 496, 497, 498, 499, 500, 501, 502, 503, 504, 505, 506, 507, 508, 509, 510, 511, 512, 513, 514, 515, 516, 517, 518, 519, 520, 521, 522, 523, 524, 525, 526, 527, 528, 529, 530, 531, 532, 533, 534, 535, 536, 537, 538, 539, 540, 541, 542, 543, 544, 545, 546, 547, 548, 549, 550, 551, 552, 553, 554, 555, 556, 557, 558, 559, 560, 561, 562, 563, 564, 565, 566, 567, 568, 569, 570, 571, 572, 573, 574, 575, 576, 577, 578, 579, 580, 581, 582, 583, 584, 585, 586, 587, 588, 589, 590, 591, 592, 593, 594, 595, 596, 597, 598, 599, 600, 601, 602, 603, 604, 605, 606, 607, 608, 609, 610, 611, 612, 613, 614, 615, 616, 617, 618, 619, 620, 621, 622, 623, 624, 625, 626, 627, 628, 629, 630, 631, 632, 633, 634, 635, 636, 637, 638, 639, 640, 641, 642, 643, 644, 645, 646, 647, 648, 649, 650, 651, 652, 653, 654, 655, 656, 657, 658, 659, 660, 661, 662, 663, 664, 665, 666, 667, 668, 669, 670, 671, 672, 673, 674, 675, 676, 677, 678, 679, 680, 681, 682, 683, 684, 685, 686, 687, 688, 689, 690, 691, 692, 693, 694, 695, 696, 697, 698, 699, 700, 701, 702, 703, 704, 705, 706, 707, 708, 709, 710, 711, 712, 713, 714, 715, 716, 717, 718, 719, 720, 721, 722, 723, 724, 725, 726, 727, 728, 729, 730, 731, 732, 733, 734, 735, 736, 737, 738, 739, 740, 741, 742, 743, 744, 745, 746, 747, 748, 749, 750, 751, 752, 753, 754, 755, 756, 757, 758, 759, 760, 761, 762, 763, 764, 765, 766, 767, 768, 769, 770, 771, 772, 773, 774, 775, 776, 777, 778, 779, 780, 781, 782, 783, 784, 785, 786, 787, 788, 789, 790, 791, 792, 793, 794, 795, 796, 797, 798, 799, 800, 801, 802, 803, 804, 805, 806, 807, 808, 809, 810, 811, 812, 813, 814, 815, 816, 817, 818, 819, 820, 821, 822, 823, 824, 825, 826, 827, 828, 829, 830, 831, 832, 833, 834, 835, 836, 837, 838, 839, 840, 841, 842, 843, 844, 845, 846, 847, 848, 849, 850, 851, 852, 853, 854, 855, 856, 857, 858, 859, 860, 861, 862, 863, 864, 865, 866, 867, 868, 869, 870, 871, 872, 873, 874, 875, 876, 877, 878, 879, 880, 881, 882, 883, 884, 885, 886, 887, 888, 889, 890, 891, 892, 893, 894, 895, 896, 897, 898, 899, 900, 901, 902, 903, 904, 905, 906, 907, 908, 909, 910, 911, 912, 913, 914, 915, 916, 917, 918, 919, 920, 921, 922, 923, 924, 925, 926, 927, 928, 929, 930, 931, 932, 933, 934, 935, 936, 937, 938, 939, 940, 941, 942, 943, 944, 945, 946, 947, 948, 949, 950, 951, 952, 953, 954, 955, 956, 957, 958, 959, 960, 961, 962, 963, 964, 965, 966, 967, 968, 969, 970, 971, 972, 973, 974, 975, 976, 977, 978, 979, 980, 981, 982, 983, 984, 985, 986, 987, 988, 989, 990, 991, 992, 993, 994, 995, 996, 997, 998, 999, 1000, 1001, 1002, 1003, 1004, 1005, 1006, 1007, 1008, 1009, 1010, 1011, 1012, 1013, 1014, 1015, 1016, 1017, 1018, 1019, 1020, 1021, 1022, 1023, 1024, 1025, 1026, 1027, 1028, 1029, 1030, 1031, 1032, 1033, 1034, 1035, 1036, 1037, 1038, 1039, 1040, 1041, 1042, 1043, 1044, 1045, 1046, 1047, 1048, 1049, 1050, 1051, 1052, 1053, 1054, 1055, 1056, 1057, 1058, 1059, 1060, 1061, 1062, 1063, 1064, 1065, 1066, 1067, 1068, 1069, 1070],
      "AcquisitionTime": ["145041.692500", "145042.480000", "145043.267500", "145044.057500", "145044.845000", "145045.632500", "145046.420000", "145047.210000", "145047.997500", "145048.785000", "145049.572500", "145050.362500", "145051.150000", "145051.937500", "145052.727500", "145053.515000", "145054.302500", "145055.090000", "145055.880000", "145056.667500", "145057.455000", "145058.242500", "145059.032500", "145059.820000", "145100.607500", "145101.395000", "145102.185000", "145102.972500", "145103.760000", "145104.547500", "145105.337500", "145106.125000", "145106.912500", "145107.700000", "145108.490000", "145109.277500", "145110.065000", "145110.855000", "145111.642500", "145112.430000", "145113.217500", "145114.007500", "145114.795000", "145115.582500", "145116.370000", "145117.160000", "145117.947500", "145118.735000", "145119.522500", "145120.312500", "145121.100000", "145121.887500", "145122.675000", "145123.465000", "145124.252500", "145125.040000", "145125.827500", "145126.617500", "145127.405000", "145128.192500", "145128.982500", "145129.770000", "145130.557500", "145131.345000", "145132.135000", "145132.922500", "145133.710000", "145134.497500", "145135.287500", "145136.075000", "145136.862500", "145137.650000", "145138.440000", "145139.227500", "145140.015000", "145140.802500", "145141.592500", "145142.380000", "145143.167500", "145143.955000", "145144.745000", "145145.532500", "145146.320000", "145147.110000", "145147.897500", "145148.685000", "145149.472500", "145150.262500", "145151.050000", "145151.837500", "145152.625000", "145153.415000", "145154.202500", "145154.990000", "145155.777500", "145156.567500", "145157.355000", "145158.142500", "145158.930000", "145159.720000", "145200.507500", "145201.295000", "145202.085000", "145202.872500", "145203.660000", "145204.447500", "145205.237500", "145206.025000", "145206.812500", "145207.600000", "145208.390000", "145209.177500", "145209.965000", "145210.752500", "145211.542500", "145212.330000", "145213.117500", "145213.905000", "145214.695000", "145215.482500", "145216.270000", "145217.057500", "145217.847500", "145218.635000", "145219.422500", "145220.212500", "145221.000000", "145221.787500", "145222.575000", "145223.365000", "145224.152500", "145224.940000", "145225.727500", "145226.517500", "145227.305000", "145228.092500", "145228.880000", "145229.670000", "145230.457500", "145231.245000", "145232.032500", "145232.822500", "145233.610000", "145234.397500", "145235.185000", "145235.975000", "145236.762500", "145237.550000", "145238.340000", "145239.127500", "145239.915000", "145240.702500", "145241.492500", "145242.280000", "145243.067500", "145243.855000", "145244.645000", "145245.432500", "145246.220000", "145247.007500", "145247.797500", "145248.585000", "145249.372500", "145250.160000", "145250.950000", "145251.737500", "145252.525000", "145253.312500", "145254.102500", "145254.890000", "145255.677500", "145256.467500", "145257.255000", "145258.042500", "145258.830000", "145259.620000", "145300.407500", "145301.195000", "145301.982500", "145302.772500", "145303.560000", "145304.347500", "145305.135000", "145305.925000", "145306.712500", "145307.500000", "145308.287500", "145309.077500", "145309.865000", "145310.652500", "145311.440000", "145312.230000", "145313.017500", "145313.805000", "145314.595000", "145315.382500", "145316.170000", "145316.957500", "145317.747500", "145318.535000", "145319.322500", "145320.110000", "145320.900000", "145321.687500", "145322.475000", "145323.262500", "145324.052500", "145324.840000", "145325.627500", "145326.415000", "145327.205000", "145327.992500", "145328.780000", "145329.567500", "145330.357500", "145331.145000", "145331.932500", "145332.722500", "145333.510000", "145334.297500", "145335.085000", "145335.875000", "145336.662500", "145337.450000", "145338.237500", "145339.027500", "145339.815000", "145340.602500", "145341.390000", "145342.180000", "145342.967500", "145343.755000", "145344.542500", "145345.332500", "145346.120000", "145346.907500", "145347.695000", "145348.485000", "145349.272500", "145350.060000", "145350.850000", "145351.637500", "145352.425000", "145353.212500", "145354.002500", "145354.790000", "145355.577500", "145356.365000", "145357.155000", "145357.942500", "145358.730000", "145359.517500", "145400.307500", "145401.095000", "145401.882500", "145402.670000", "145403.460000", "145404.247500", "145405.035000", "145405.822500", "145406.612500", "145407.400000", "145408.187500", "145408.977500", "145409.765000", "145410.552500", "145411.340000", "145412.130000", "145412.917500", "145413.705000", "145414.492500", "145415.282500", "145416.070000", "145416.857500", "145417.645000", "145418.435000", "145419.222500", "145420.010000", "145420.797500", "145421.587500", "145422.375000", "145423.162500", "145423.950000", "145424.740000", "145425.527500", "145426.315000", "145427.105000", "145427.892500", "145428.680000", "145429.467500", "145430.257500", "145431.045000", "145431.832500", "145432.620000", "145433.410000", "145434.197500", "145434.985000", "145435.772500", "145436.562500", "145437.350000", "145438.137500", "145438.925000", "145439.715000", "145440.502500", "145441.290000", "145442.077500", "145442.867500", "145443.655000", "145444.442500", "145445.232500", "145446.020000", "145446.807500", "145447.595000", "145448.385000", "145449.172500", "145449.960000", "145450.747500", "145451.537500", "145452.325000", "145453.112500", "145453.900000", "145454.690000", "145455.477500", "145456.265000", "145457.052500", "145457.842500", "145458.630000", "145459.417500", "145500.205000", "145500.995000", "145501.782500", "145502.570000", "145503.360000", "145504.147500", "145504.935000", "145505.722500", "145506.512500", "145507.300000", "145508.087500", "145508.875000", "145509.665000", "145510.452500", "145511.240000", "145512.027500", "145512.817500", "145513.605000", "145514.392500", "145515.180000", "145515.970000", "145516.757500", "145517.545000", "145518.335000", "145519.122500", "145519.910000", "145520.697500", "145521.487500", "145522.275000", "145523.062500", "145523.850000", "145524.640000", "145525.427500", "145526.215000", "145527.002500", "145527.792500", "145528.580000", "145529.367500", "145530.155000", "145530.945000", "145531.732500", "145532.520000", "145533.307500", "145534.097500", "145534.885000", "145535.672500", "145536.462500", "145537.250000", "145538.037500", "145538.825000", "145539.615000", "145540.402500", "145541.190000", "145541.977500", "145542.767500", "145543.555000", "145544.342500", "145545.130000", "145545.920000", "145546.707500", "145547.495000", "145548.282500", "145549.072500", "145549.860000", "145550.647500", "145551.435000", "145552.225000", "145553.012500", "145553.800000", "145554.590000", "145555.377500", "145556.165000", "145556.952500", "145557.742500", "145558.530000", "145559.317500", "145600.105000", "145600.895000", "145601.682500", "145602.470000", "145603.257500", "145604.047500", "145604.835000", "145605.622500", "145606.410000", "145607.200000", "145607.987500", "145608.775000", "145609.562500", "145610.352500", "145611.140000", "145611.927500", "145612.717500", "145613.505000", "145614.292500", "145615.080000", "145615.870000", "145616.657500", "145617.445000", "145618.232500", "145619.022500", "145619.810000", "145620.597500", "145621.385000", "145622.175000", "145622.962500", "145623.750000", "145624.537500", "145625.327500", "145626.115000", "145626.902500", "145627.690000", "145628.480000", "145629.267500", "145630.055000", "145630.845000", "145631.632500", "145632.420000", "145633.207500", "145633.997500", "145634.785000", "145635.572500", "145636.360000", "145637.150000", "145637.937500", "145638.725000", "145639.512500", "145640.302500", "145641.090000", "145641.877500", "145642.665000", "145643.455000", "145644.242500", "145645.030000", "145645.817500", "145646.607500", "145647.395000", "145648.182500", "145648.972500", "145649.760000", "145650.547500", "145651.335000", "145652.125000", "145652.912500", "145653.700000", "145654.487500", "145655.277500", "145656.065000", "145656.852500", "145657.640000", "145658.430000", "145659.217500", "145700.005000", "145700.792500", "145701.582500", "145702.370000", "145703.157500", "145703.945000", "145704.735000", "145705.522500", "145706.310000", "145707.100000", "145707.887500", "145708.675000", "145709.462500", "145710.252500", "145711.040000", "145711.827500", "145712.615000", "145713.405000", "145714.192500", "145714.980000", "145715.767500", "145716.557500", "145717.345000", "145718.132500", "145718.920000", "145719.710000", "145720.497500", "145721.285000", "145722.072500", "145722.862500", "145723.650000", "145724.437500", "145725.227500", "145726.015000", "145726.802500", "145727.590000", "145728.380000", "145729.167500", "145729.955000", "145730.742500", "145731.532500", "145732.320000", "145733.107500", "145733.895000", "145734.685000", "145735.472500", "145736.260000", "145737.047500", "145737.837500", "145738.625000", "145739.412500", "145740.200000", "145740.990000", "145741.777500", "145742.565000", "145743.355000", "145744.142500", "145744.930000", "145745.717500", "145746.507500", "145747.295000", "145748.082500", "145748.870000", "145749.660000", "145750.447500", "145751.235000", "145752.022500", "145752.812500", "145753.600000", "145754.387500", "145755.175000", "145755.965000", "145756.752500", "145757.540000", "145758.327500", "145759.117500", "145759.905000", "145800.692500", "145801.482500", "145802.270000", "145803.057500", "145803.845000", "145804.635000", "145805.422500", "145806.210000", "145806.997500", "145807.787500", "145808.575000", "145809.362500", "145810.150000", "145810.940000", "145811.727500", "145812.515000", "145813.302500", "145814.092500", "145814.880000", "145815.667500", "145816.455000", "145817.245000", "145818.032500", "145818.820000", "145819.610000", "145820.397500", "145821.185000", "145821.972500", "145822.762500", "145823.550000", "145824.337500", "145825.125000", "145825.915000", "145826.702500", "145827.490000", "145828.277500", "145829.067500", "145829.855000", "145830.642500", "145831.430000", "145832.220000", "145833.007500", "145833.795000", "145834.585000", "145835.372500", "145836.160000", "145836.947500", "145837.737500", "145838.525000", "145839.312500", "145840.100000", "145840.890000", "145841.677500", "145842.465000", "145843.252500", "145844.042500", "145844.830000", "145845.617500", "145846.405000", "145847.195000", "145847.982500", "145848.770000", "145849.557500", "145850.347500", "145851.135000", "145851.922500", "145852.712500", "145853.500000", "145854.287500", "145855.075000", "145855.865000", "145856.652500", "145857.440000", "145858.227500", "145859.017500", "145859.805000", "145900.592500", "145901.380000", "145902.170000", "145902.957500", "145903.745000", "145904.532500", "145905.322500", "145906.110000", "145906.897500", "145907.685000", "145908.475000", "145909.262500", "145910.050000", "145910.840000", "145911.627500", "145912.415000", "145913.202500", "145913.992500", "145914.780000", "145915.567500", "145916.355000", "145917.145000", "145917.932500", "145918.720000", "145919.507500", "145920.297500", "145921.085000", "145921.872500", "145922.660000", "145923.450000", "145924.237500", "145925.025000", "145925.812500", "145926.602500", "145927.390000", "145928.177500", "145928.967500", "145929.755000", "145930.542500", "145931.330000", "145932.120000", "145932.907500", "145933.695000", "145934.482500", "145935.272500", "145936.060000", "145936.847500", "145937.635000", "145938.425000", "145939.212500", "145940.000000", "145940.787500", "145941.577500", "145942.365000", "145943.152500", "145943.940000", "145944.730000", "145945.517500", "145946.305000", "145947.095000", "145947.882500", "145948.670000", "145949.457500", "145950.247500", "145951.035000", "145951.822500", "145952.610000", "145953.400000", "145954.187500", "145954.975000", "145955.762500", "145956.552500", "145957.340000", "145958.127500", "145958.915000", "145959.705000", "150000.492500", "150001.280000", "150002.067500", "150002.857500", "150003.645000", "150004.432500", "150005.222500", "150006.010000", "150006.797500", "150007.585000", "150008.375000", "150009.162500", "150009.950000", "150010.737500", "150011.527500", "150012.315000", "150013.102500", "150013.890000", "150014.680000", "150015.467500", "150016.255000", "150017.042500", "150017.832500", "150018.620000", "150019.407500", "150020.195000", "150020.985000", "150021.772500", "150022.560000", "150023.350000", "150024.137500", "150024.925000", "150025.712500", "150026.502500", "150027.290000", "150028.077500", "150028.865000", "150029.655000", "150030.442500", "150031.230000", "150032.017500", "150032.807500", "150033.595000", "150034.382500", "150035.170000", "150035.960000", "150036.747500", "150037.535000", "150038.322500", "150039.112500", "150039.900000", "150040.687500", "150041.477500", "150042.265000", "150043.052500", "150043.840000", "150044.630000", "150045.417500", "150046.205000", "150046.992500", "150047.782500", "150048.570000", "150049.357500", "150050.145000", "150050.935000", "150051.722500", "150052.510000", "150053.297500", "150054.087500", "150054.875000", "150055.662500", "150056.450000", "150057.240000", "150058.027500", "150058.815000", "150059.605000", "150100.392500", "150101.180000", "150101.967500", "150102.757500", "150103.545000", "150104.332500", "150105.120000", "150105.910000", "150106.697500", "150107.485000", "150108.272500", "150109.062500", "150109.850000", "150110.637500", "150111.425000", "150112.215000", "150113.002500", "150113.790000", "150114.577500", "150115.367500", "150116.155000", "150116.942500", "150117.732500", "150118.520000", "150119.307500", "150120.095000", "150120.885000", "150121.672500", "150122.460000", "150123.247500", "150124.037500", "150124.825000", "150125.612500", "150126.400000", "150127.190000", "150127.977500", "150128.765000", "150129.552500", "150130.342500", "150131.130000", "150131.917500", "150132.705000", "150133.495000", "150134.282500", "150135.070000", "150135.860000", "150136.647500", "150137.435000", "150138.222500", "150139.012500", "150139.800000", "150140.587500", "150141.375000", "150142.165000", "150142.952500", "150143.740000", "150144.527500", "150145.317500", "150146.105000", "150146.892500", "150147.680000", "150148.470000", "150149.257500", "150150.045000", "150150.835000", "150151.622500", "150152.410000", "150153.197500", "150153.987500", "150154.775000", "150155.562500", "150156.350000", "150157.140000", "150157.927500", "150158.715000", "150159.502500", "150200.292500", "150201.080000", "150201.867500", "150202.655000", "150203.445000", "150204.232500", "150205.020000", "150205.807500", "150206.597500", "150207.385000", "150208.172500", "150208.962500", "150209.750000", "150210.537500", "150211.325000", "150212.115000", "150212.902500", "150213.690000", "150214.477500", "150215.267500", "150216.055000", "150216.842500", "150217.630000", "150218.420000", "150219.207500", "150219.995000", "150220.782500", "150221.572500", "150222.360000", "150223.147500", "150223.935000", "150224.725000", "150225.512500", "150226.300000", "150227.090000", "150227.877500", "150228.665000", "150229.452500", "150230.242500", "150231.030000", "150231.817500", "150232.605000", "150233.395000", "150234.182500", "150234.970000", "150235.757500", "150236.547500", "150237.335000", "150238.122500", "150238.910000", "150239.700000", "150240.487500", "150241.275000", "150242.062500", "150242.852500", "150243.640000", "150244.427500", "150245.217500", "150246.005000", "150246.792500", "150247.580000", "150248.370000", "150249.157500", "150249.945000", "150250.732500", "150251.522500", "150252.310000", "150253.097500", "150253.885000", "150254.675000", "150255.462500", "150256.250000", "150257.037500", "150257.827500", "150258.615000", "150259.402500", "150300.190000", "150300.980000", "150301.767500", "150302.555000", "150303.345000", "150304.132500", "150304.920000", "150305.707500", "150306.497500", "150307.285000", "150308.072500", "150308.860000", "150309.650000", "150310.437500", "150311.225000", "150312.012500", "150312.802500", "150313.590000", "150314.377500", "150315.165000", "150315.955000", "150316.742500", "150317.530000", "150318.317500", "150319.107500", "150319.895000", "150320.682500", "150321.472500", "150322.260000", "150323.047500", "150323.835000", "150324.625000", "150325.412500", "150326.200000", "150326.987500", "150327.777500", "150328.565000", "150329.352500", "150330.140000", "150330.930000", "150331.717500", "150332.505000", "150333.292500", "150334.082500", "150334.870000", "150335.657500", "150336.445000", "150337.235000", "150338.022500", "150338.810000", "150339.600000", "150340.387500", "150341.175000", "150341.962500", "150342.752500", "150343.540000", "150344.327500", "150345.115000", "150345.905000", "150346.692500", "150347.480000", "150348.267500", "150349.057500", "150349.845000", "150350.632500", "150351.420000", "150352.210000", "150352.997500", "150353.785000", "150354.572500", "150355.362500", "150356.150000", "150356.937500", "150357.727500", "150358.515000", "150359.302500", "150400.090000", "150400.880000", "150401.667500", "150402.455000", "150403.242500", "150404.032500", "150404.820000", "150405.607500", "150406.395000", "150407.185000", "150407.972500", "150408.760000", "150409.547500", "150410.337500", "150411.125000", "150411.912500", "150412.700000", "150413.490000", "150414.277500", "150415.065000", "150415.855000", "150416.642500", "150417.430000", "150418.217500", "150419.007500", "150419.795000", "150420.582500", "150421.370000", "150422.160000", "150422.947500", "150423.735000", "150424.522500", "150425.312500", "150426.100000", "150426.887500", "150427.675000", "150428.465000", "150429.252500", "150430.040000", "150430.827500", "150431.617500", "150432.405000", "150433.192500", "150433.982500", "150434.770000", "150435.557500", "150436.345000", "150437.135000", "150437.922500", "150438.710000", "150439.497500", "150440.287500", "150441.075000", "150441.862500", "150442.650000", "150443.440000", "150444.227500"],
