{
  "AcquisitionMatrixPE": 104,
  "AcquisitionNumber": 1,
  "AcquisitionTime": "15:13:17.585000",
  "BandwidthPerPixelPhaseEncode": 13.935,
  "BaseResolution": 104,
  "CoilString": "C:HEA;HEP",
  "ConversionSoftware": "dcm2niix",
  "ConversionSoftwareVersion": "v1.0.20210317",
  "DerivedVendorReportedEchoSpacing": 0.000690017,
  "DeviceSerialNumber": "35450",
  "DwellTime": 2.5e-06,
  "EchoTime": 0.0348,
  "EffectiveEchoSpacing": 0.000690017,
  "FlipAngle": 55,
  "ImageComments": "Unaliased MB8/PE3 (remote)",
  "ImageOrientationPatientDICOM": [0.999129, 0.00443524, -0.0414816, 5.60459e-08, 0.994332, 0.106316],
  "ImageType": [
    "ORIGINAL",
    "PRIMARY",
    "M",
    "MB",
    "ND",
    "MOSAIC"
],
  "ImagingFrequency": 123.235,
  "InPlanePhaseEncodingDirectionDICOM": "COL",
  "InstitutionAddress": "Univeristy Ave. 197,Newark,North East,US,07102-1814",
  "InstitutionName": "RUBIC",
  "InstitutionalDepartmentName": "Department",
  "MRAcquisitionType": "2D",
  "MagneticFieldStrength": 3,
  "Manufacturer": "Siemens",
  "ManufacturersModelName": "TrioTim",
  "Modality": "MR",
  "MultibandAccelerationFactor": 8,
  "PartialFourier": 0.875,
  "PatientPosition": "HFS",
  "PercentPhaseFOV": 100,
  "PercentSampling": 100,
  "PhaseEncodingDirection": "j-",
  "PhaseEncodingSteps": 91,
  "PhaseResolution": 1,
  "PixelBandwidth": 1923,
  "ProcedureStepDescription": "Cole^Michael",
  "ProtocolName": "cmrr_mbep2d_bold_2mm_MB8_Task_8x",
  "PulseSequenceDetails": "%CustomerSeq%\\cmrr_mbep2d_bold",
  "ReceiveCoilName": "32Ch_Head",
  "ReconMatrixPE": 104,
  "RepetitionTime": 0.785,
  "SAR": 0.12053,
  "ScanOptions": "PFP\\FS",
  "ScanningSequence": "EP",
  "SequenceName": "epfid2d1_104",
  "SequenceVariant": "SK\\SS",
  "SeriesDescription": "cmrr_mbep2d_bold_2mm_MB8_Task_8x",
  "SeriesNumber": 13,
  "ShimSetting": [2099, -444, -7363, 987, -49, -290, -653, -20],
  "SliceThickness": 2,
  "SliceTiming": [0, 0.4375, 0.0875, 0.525, 0.175, 0.6125, 0.2625, 0.7, 0.35, 0, 0.4375, 0.0875, 0.525, 0.175, 0.6125, 0.2625, 0.7, 0.35, 0, 0.4375, 0.0875, 0.525, 0.175, 0.6125, 0.2625, 0.7, 0.35, 0, 0.4375, 0.0875, 0.525, 0.175, 0.6125, 0.2625, 0.7, 0.35, 0, 0.4375, 0.0875, 0.525, 0.175, 0.6125, 0.2625, 0.7, 0.35, 0, 0.4375, 0.0875, 0.525, 0.175, 0.6125, 0.2625, 0.7, 0.35, 0, 0.4375, 0.0875, 0.525, 0.175, 0.6125, 0.2625, 0.7, 0.35, 0, 0.4375, 0.0875, 0.525, 0.175, 0.6125, 0.2625, 0.7, 0.35],
  "SoftwareVersions": "syngo MR B19",
  "SpacingBetweenSlices": 2,
  "StationName": "MRC35450",
  "TaskName": "cpro",
  "TotalReadoutTime": 0.0710717,
  "TxRefAmp": 316.385,
  "dcmmeta_affine": [
    [-1.9982588291168213, 1.1209179717752704e-07, -0.08343607187271118, 106.0776596069336],
    [-0.008870475925505161, 1.9886647462844849, 0.21244683861732483, -88.75502014160156],
    [-0.08296319842338562, -0.212631955742836, 1.9869334697723389, -66.69784545898438],
    [0.0, 0.0, 0.0, 1.0]
],
  "dcmmeta_reorient_transform": [
    [0.0, -1.0, 0.0, 103.0],
    [1.0, 0.0, 0.0, 0.0],
    [0.0, 0.0, 1.0, 0.0],
    [0.0, 0.0, 0.0, 1.0]
],
  "dcmmeta_shape": [104, 104, 72, 581],
  "dcmmeta_slice_dim": 2,
  "dcmmeta_version": 0.6,
  "global": {
    "const": {
      "AcquisitionMatrix": [104, 0, 0, 104],
      "AngioFlag": "N",
      "BitsAllocated": 16,
      "BitsStored": 12,
      "Columns": 936,
      "EchoNumbers": 1,
      "EchoTime": 34.8,
      "EchoTrainLength": 1,
      "FlipAngle": 55.0,
      "HighBit": 11,
      "ImageOrientationPatient": [0.99912942383643, 0.00443523791953, -0.0414815994012, 5.6045897e-08, 0.99433239571134, 0.10631597640499],
      "ImagePositionPatient": [-937.35339771583, -947.05212298316, -142.54113990044],
      "ImageType": [
        "ORIGINAL",
        "PRIMARY",
        "M",
        "MB",
        "ND",
        "MOSAIC"
],
      "ImagedNucleus": "1H",
      "ImagingFrequency": 123.234551,
      "InPlanePhaseEncodingDirection": "COL",
      "MRAcquisitionType": "2D",
      "MagneticFieldStrength": 3.0,
      "Manufacturer": "SIEMENS",
      "ManufacturerModelName": "TrioTim",
      "Modality": "MR",
      "NumberOfAverages": 1.0,
      "NumberOfPhaseEncodingSteps": 91,
      "PercentPhaseFieldOfView": 100.0,
      "PercentSampling": 100.0,
      "PerformedProcedureStepStartTime": "142154.062000",
      "PhotometricInterpretation": "MONOCHROME2",
      "PixelBandwidth": 1923.0,
      "PixelRepresentation": 0,
      "PixelSpacing": [2.0, 2.0],
      "ProtocolName": "cmrr_mbep2d_bold_2mm_MB8_Task_8x",
      "RepetitionTime": 785.0,
      "Rows": 936,
      "SAR": 0.12052993711477,
      "SamplesPerPixel": 1,
      "ScanOptions": [
        "PFP",
        "FS"
],
      "ScanningSequence": "EP",
      "SequenceName": "epfid2d1_104",
      "SequenceVariant": [
        "SK",
        "SS"
],
      "SeriesDescription": "cmrr_mbep2d_bold_2mm_MB8_Task_8x",
      "SeriesNumber": 13,
      "SeriesTime": "151334.828000",
      "SliceLocation": -80.115307248667,
      "SliceThickness": 2.0,
      "SmallestImagePixelValue": 0,
      "SoftwareVersions": "syngo MR B19",
      "SpacingBetweenSlices": 1.9999999719936,
      "SpecificCharacterSet": "ISO_IR 100",
      "StudyID": "1",
      "StudyTime": "142154.031000",
      "TransmitCoilName": "Body",
      "VariableFlipAngleFlag": "N",
      "WindowCenterWidthExplanation": "Algo1",
      "dBdt": 0.0},
    "slices": {}
  },
  "time": {
    "samples": {
      "AcquisitionNumber": [1, 2, 3, 4, 5, 6, 7, 8, 9, 10, 11, 12, 13, 14, 15, 16, 17, 18, 19, 20, 21, 22, 23, 24, 25, 26, 27, 28, 29, 30, 31, 32, 33, 34, 35, 36, 37, 38, 39, 40, 41, 42, 43, 44, 45, 46, 47, 48, 49, 50, 51, 52, 53, 54, 55, 56, 57, 58, 59, 60, 61, 62, 63, 64, 65, 66, 67, 68, 69, 70, 71, 72, 73, 74, 75, 76, 77, 78, 79, 80, 81, 82, 83, 84, 85, 86, 87, 88, 89, 90, 91, 92, 93, 94, 95, 96, 97, 98, 99, 100, 101, 102, 103, 104, 105, 106, 107, 108, 109, 110, 111, 112, 113, 114, 115, 116, 117, 118, 119, 120, 121, 122, 123, 124, 125, 126, 127, 128, 129, 130, 131, 132, 133, 134, 135, 136, 137, 138, 139, 140, 141, 142, 143, 144, 145, 146, 147, 148, 149, 150, 151, 152, 153, 154, 155, 156, 157, 158, 159, 160, 161, 162, 163, 164, 165, 166, 167, 168, 169, 170, 171, 172, 173, 174, 175, 176, 177, 178, 179, 180, 181, 182, 183, 184, 185, 186, 187, 188, 189, 190, 191, 192, 193, 194, 195, 196, 197, 198, 199, 200, 201, 202, 203, 204, 205, 206, 207, 208, 209, 210, 211, 212, 213, 214, 215, 216, 217, 218, 219, 220, 221, 222, 223, 224, 225, 226, 227, 228, 229, 230, 231, 232, 233, 234, 235, 236, 237, 238, 239, 240, 241, 242, 243, 244, 245, 246, 247, 248, 249, 250, 251, 252, 253, 254, 255, 256, 257, 258, 259, 260, 261, 262, 263, 264, 265, 266, 267, 268, 269, 270, 271, 272, 273, 274, 275, 276, 277, 278, 279, 280, 281, 282, 283, 284, 285, 286, 287, 288, 289, 290, 291, 292, 293, 294, 295, 296, 297, 298, 299, 300, 301, 302, 303, 304, 305, 306, 307, 308, 309, 310, 311, 312, 313, 314, 315, 316, 317, 318, 319, 320, 321, 322, 323, 324, 325, 326, 327, 328, 329, 330, 331, 332, 333, 334, 335, 336, 337, 338, 339, 340, 341, 342, 343, 344, 345, 346, 347, 348, 349, 350, 351, 352, 353, 354, 355, 356, 357, 358, 359, 360, 361, 362, 363, 364, 365, 366, 367, 368, 369, 370, 371, 372, 373, 374, 375, 376, 377, 378, 379, 380, 381, 382, 383, 384, 385, 386, 387, 388, 389, 390, 391, 392, 393, 394, 395, 396, 397, 398, 399, 400, 401, 402, 403, 404, 405, 406, 407, 408, 409, 410, 411, 412, 413, 414, 415, 416, 417, 418, 419, 420, 421, 422, 423, 424, 425, 426, 427, 428, 429, 430, 431, 432, 433, 434, 435, 436, 437, 438, 439, 440, 441, 442, 443, 444, 445, 446, 447, 448, 449, 450, 451, 452, 453, 454, 455, 456, 457, 458, 459, 460, 461, 462, 463, 464, 465, 466, 467, 468, 469, 470, 471, 472, 473, 474, 475, 476, 477, 478, 479, 480, 481, 482, 483, 484, 485, 486, 487, 488, 489, 490, 491, 492, 493, 494, 495, 496, 497, 498, 499, 500, 501, 502, 503, 504, 505, 506, 507, 508, 509, 510, 511, 512, 513, 514, 515, 516, 517, 518, 519, 520, 521, 522, 523, 524, 525, 526, 527, 528, 529, 530, 531, 532, 533, 534, 535, 536, 537, 538, 539, 540, 541, 542, 543, 544, 545, 546, 547, 548, 549, 550, 551, 552, 553, 554, 555, 556, 557, 558, 559, 560, 561, 562, 563, 564, 565, 566, 567, 568, 569, 570, 571, 572, 573, 574, 575, 576, 577, 578, 579, 580, 581],
      "AcquisitionTime": ["151317.585000", "151318.372500", "151319.160000", "151319.947500", "151320.737500", "151321.525000", "151322.312500", "151323.100000", "151323.890000", "151324.677500", "151325.465000", "151326.252500", "151327.042500", "151327.830000", "151328.617500", "151329.407500", "151330.195000", "151330.982500", "151331.770000", "151332.560000", "151333.347500", "151334.135000", "151334.922500", "151335.712500", "151336.500000", "151337.287500", "151338.075000", "151338.865000", "151339.652500", "151340.440000", "151341.227500", "151342.017500", "151342.805000", "151343.592500", "151344.380000", "151345.170000", "151345.957500", "151346.745000", "151347.535000", "151348.322500", "151349.110000", "151349.897500", "151350.687500", "151351.475000", "151352.262500", "151353.050000", "151353.840000", "151354.627500", "151355.415000", "151356.202500", "151356.992500", "151357.780000", "151358.567500", "151359.355000", "151400.145000", "151400.932500", "151401.720000", "151402.507500", "151403.297500", "151404.085000", "151404.872500", "151405.662500", "151406.450000", "151407.237500", "151408.025000", "151408.815000", "151409.602500", "151410.390000", "151411.177500", "151411.967500", "151412.755000", "151413.542500", "151414.330000", "151415.120000", "151415.907500", "151416.695000", "151417.482500", "151418.272500", "151419.060000", "151419.847500", "151420.637500", "151421.425000", "151422.212500", "151423.000000", "151423.790000", "151424.577500", "151425.365000", "151426.152500", "151426.942500", "151427.730000", "151428.517500", "151429.305000", "151430.095000", "151430.882500", "151431.670000", "151432.457500", "151433.247500", "151434.035000", "151434.822500", "151435.610000", "151436.400000", "151437.187500", "151437.975000", "151438.765000", "151439.552500", "151440.340000", "151441.127500", "151441.917500", "151442.705000", "151443.492500", "151444.280000", "151445.070000", "151445.857500", "151446.645000", "151447.432500", "151448.222500", "151449.010000", "151449.797500", "151450.585000", "151451.375000", "151452.162500", "151452.950000", "151453.737500", "151454.527500", "151455.315000", "151456.102500", "151456.892500", "151457.680000", "151458.467500", "151459.255000", "151500.045000", "151500.832500", "151501.620000", "151502.407500", "151503.197500", "151503.985000", "151504.772500", "151505.560000", "151506.350000", "151507.137500", "151507.925000", "151508.712500", "151509.502500", "151510.290000", "151511.077500", "151511.865000", "151512.655000", "151513.442500", "151514.230000", "151515.020000", "151515.807500", "151516.595000", "151517.382500", "151518.172500", "151518.960000", "151519.747500", "151520.535000", "151521.325000", "151522.112500", "151522.900000", "151523.687500", "151524.477500", "151525.265000", "151526.052500", "151526.840000", "151527.630000", "151528.417500", "151529.205000", "151529.992500", "151530.782500", "151531.570000", "151532.357500", "151533.147500", "151533.935000", "151534.722500", "151535.510000", "151536.300000", "151537.087500", "151537.875000", "151538.662500", "151539.452500", "151540.240000", "151541.027500", "151541.815000", "151542.605000", "151543.392500", "151544.180000", "151544.967500", "151545.757500", "151546.545000", "151547.332500", "151548.120000", "151548.910000", "151549.697500", "151550.485000", "151551.275000", "151552.062500", "151552.850000", "151553.637500", "151554.427500", "151555.215000", "151556.002500", "151556.790000", "151557.580000", "151558.367500", "151559.155000", "151559.942500", "151600.732500", "151601.520000", "151602.307500", "151603.095000", "151603.885000", "151604.672500", "151605.460000", "151606.247500", "151607.037500", "151607.825000", "151608.612500", "151609.402500", "151610.190000", "151610.977500", "151611.765000", "151612.555000", "151613.342500", "151614.130000", "151614.917500", "151615.707500", "151616.495000", "151617.282500", "151618.070000", "151618.860000", "151619.647500", "151620.435000", "151621.222500", "151622.012500", "151622.800000", "151623.587500", "151624.375000", "151625.165000", "151625.952500", "151626.740000", "151627.530000", "151628.317500", "151629.105000", "151629.892500", "151630.682500", "151631.470000", "151632.257500", "151633.045000", "151633.835000", "151634.622500", "151635.410000", "151636.197500", "151636.987500", "151637.775000", "151638.562500", "151639.350000", "151640.140000", "151640.927500", "151641.715000", "151642.502500", "151643.292500", "151644.080000", "151644.867500", "151645.657500", "151646.445000", "151647.232500", "151648.020000", "151648.810000", "151649.597500", "151650.385000", "151651.172500", "151651.962500", "151652.750000", "151653.537500", "151654.325000", "151655.115000", "151655.902500", "151656.690000", "151657.477500", "151658.267500", "151659.055000", "151659.842500", "151700.630000", "151701.420000", "151702.207500", "151702.995000", "151703.785000", "151704.572500", "151705.360000", "151706.147500", "151706.937500", "151707.725000", "151708.512500", "151709.300000", "151710.090000", "151710.877500", "151711.665000", "151712.452500", "151713.242500", "151714.030000", "151714.817500", "151715.605000", "151716.395000", "151717.182500", "151717.970000", "151718.757500", "151719.547500", "151720.335000", "151721.122500", "151721.912500", "151722.700000", "151723.487500", "151724.275000", "151725.065000", "151725.852500", "151726.640000", "151727.427500", "151728.217500", "151729.005000", "151729.792500", "151730.580000", "151731.370000", "151732.157500", "151732.945000", "151733.732500", "151734.522500", "151735.310000", "151736.097500", "151736.887500", "151737.675000", "151738.462500", "151739.250000", "151740.040000", "151740.827500", "151741.615000", "151742.402500", "151743.192500", "151743.980000", "151744.767500", "151745.555000", "151746.345000", "151747.132500", "151747.920000", "151748.707500", "151749.497500", "151750.285000", "151751.072500", "151751.860000", "151752.650000", "151753.437500", "151754.225000", "151755.015000", "151755.802500", "151756.590000", "151757.377500", "151758.167500", "151758.955000", "151759.742500", "151800.530000", "151801.320000", "151802.107500", "151802.895000", "151803.682500", "151804.472500", "151805.260000", "151806.047500", "151806.835000", "151807.625000", "151808.412500", "151809.200000", "151809.987500", "151810.777500", "151811.565000", "151812.352500", "151813.142500", "151813.930000", "151814.717500", "151815.505000", "151816.295000", "151817.082500", "151817.870000", "151818.657500", "151819.447500", "151820.235000", "151821.022500", "151821.810000", "151822.600000", "151823.387500", "151824.175000", "151824.962500", "151825.752500", "151826.540000", "151827.327500", "151828.115000", "151828.905000", "151829.692500", "151830.480000", "151831.270000", "151832.057500", "151832.845000", "151833.632500", "151834.422500", "151835.210000", "151835.997500", "151836.785000", "151837.575000", "151838.362500", "151839.150000", "151839.937500", "151840.727500", "151841.515000", "151842.302500", "151843.090000", "151843.880000", "151844.667500", "151845.455000", "151846.242500", "151847.032500", "151847.820000", "151848.607500", "151849.397500", "151850.185000", "151850.972500", "151851.760000", "151852.550000", "151853.337500", "151854.125000", "151854.912500", "151855.702500", "151856.490000", "151857.277500", "151858.065000", "151858.855000", "151859.642500", "151900.430000", "151901.217500", "151902.007500", "151902.795000", "151903.582500", "151904.370000", "151905.160000", "151905.947500", "151906.735000", "151907.525000", "151908.312500", "151909.100000", "151909.887500", "151910.677500", "151911.465000", "151912.252500", "151913.040000", "151913.830000", "151914.617500", "151915.405000", "151916.192500", "151916.982500", "151917.770000", "151918.557500", "151919.345000", "151920.135000", "151920.922500", "151921.710000", "151922.497500", "151923.287500", "151924.075000", "151924.862500", "151925.652500", "151926.440000", "151927.227500", "151928.015000", "151928.805000", "151929.592500", "151930.380000", "151931.167500", "151931.957500", "151932.745000", "151933.532500", "151934.320000", "151935.110000", "151935.897500", "151936.685000", "151937.472500", "151938.262500", "151939.050000", "151939.837500", "151940.625000", "151941.415000", "151942.202500", "151942.990000", "151943.780000", "151944.567500", "151945.355000", "151946.142500", "151946.932500", "151947.720000", "151948.507500", "151949.295000", "151950.085000", "151950.872500", "151951.660000", "151952.447500", "151953.237500", "151954.025000", "151954.812500", "151955.600000", "151956.390000", "151957.177500", "151957.965000", "151958.752500", "151959.542500", "152000.330000", "152001.117500", "152001.907500", "152002.695000", "152003.482500", "152004.270000", "152005.060000", "152005.847500", "152006.635000", "152007.422500", "152008.212500", "152009.000000", "152009.787500", "152010.575000", "152011.365000", "152012.152500", "152012.940000", "152013.727500", "152014.517500", "152015.305000", "152016.092500", "152016.880000", "152017.670000", "152018.457500", "152019.245000", "152020.035000", "152020.822500", "152021.610000", "152022.397500", "152023.187500", "152023.975000", "152024.762500", "152025.550000", "152026.340000", "152027.127500", "152027.915000", "152028.702500", "152029.492500", "152030.280000", "152031.067500", "152031.855000", "152032.645000", "152033.432500", "152034.220000", "152035.007500", "152035.797500", "152036.585000", "152037.372500", "152038.162500", "152038.950000", "152039.737500", "152040.525000", "152041.315000", "152042.102500", "152042.890000", "152043.677500", "152044.467500", "152045.255000", "152046.042500", "152046.830000", "152047.620000", "152048.407500", "152049.195000", "152049.982500", "152050.772500", "152051.560000", "152052.347500", "152053.137500", "152053.925000", "152054.712500"],
      "ContentTime": ["151334.828000", "151334.828000", "151334.843000", "151334.843000", "151334.843000", "151334.843000", "151334.843000", "151334.859000", "151334.859000", "151334.859000", "151334.859000", "151334.859000", "151334.859000", "151334.859000", "151334.875000", "151334.875000", "151334.875000", "151334.875000", "151334.875000", "151334.875000", "151354.812000", "151354.812000", "151354.812000", "151354.812000", "151354.828000", "151354.828000", "151354.828000", "151354.828000", "151354.828000", "151354.828000", "151354.828000", "151354.828000", "151354.843000", "151354.843000", "151354.843000", "151354.843000", "151354.843000", "151354.843000", "151354.843000", "151354.859000", "151354.859000", "151354.859000", "151354.859000", "151354.859000", "151354.859000", "151354.875000", "151414.812000", "151414.812000", "151414.812000", "151414.812000", "151414.828000", "151414.828000", "151414.828000", "151414.828000", "151414.828000", "151414.828000", "151414.828000", "151414.843000", "151414.843000", "151414.843000", "151414.843000", "151414.843000", "151414.843000", "151414.843000", "151414.843000", "151414.859000", "151414.859000", "151414.859000", "151414.859000", "151414.859000", "151414.875000", "151434.812000", "151434.812000", "151434.812000", "151434.812000", "151434.828000", "151434.828000", "151434.828000", "151434.828000", "151434.828000", "151434.828000", "151434.828000", "151434.828000", "151434.843000", "151434.843000", "151434.843000", "151434.843000", "151434.843000", "151434.843000", "151434.843000", "151434.859000", "151434.859000", "151434.859000", "151434.859000", "151434.859000", "151434.859000", "151434.875000", "151454.812000", "151454.812000", "151454.812000", "151454.812000", "151454.828000", "151454.828000", "151454.828000", "151454.828000", "151454.828000", "151454.828000", "151454.828000", "151454.843000", "151454.843000", "151454.843000", "151454.843000", "151454.843000", "151454.843000", "151454.843000", "151454.843000", "151454.859000", "151454.859000", "151454.859000", "151454.859000", "151454.859000", "151454.859000", "151514.812000", "151514.812000", "151514.812000", "151514.812000", "151514.828000", "151514.828000", "151514.828000", "151514.828000", "151514.828000", "151514.828000", "151514.828000", "151514.828000", "151514.843000", "151514.843000", "151514.843000", "151514.843000", "151514.843000", "151514.843000", "151514.843000", "151514.859000", "151514.859000", "151514.859000", "151514.859000", "151514.859000", "151514.859000", "151514.875000", "151534.812000", "151534.812000", "151534.812000", "151534.812000", "151534.828000", "151534.828000", "151534.828000", "151534.828000", "151534.828000", "151534.828000", "151534.828000", "151534.843000", "151534.843000", "151534.843000", "151534.843000", "151534.843000", "151534.843000", "151534.843000", "151534.859000", "151534.859000", "151534.859000", "151534.859000", "151534.859000", "151534.859000", "151534.859000", "151554.812000", "151554.812000", "151554.812000", "151554.812000", "151554.828000", "151554.828000", "151554.828000", "151554.828000", "151554.828000", "151554.828000", "151554.828000", "151554.843000", "151554.843000", "151554.843000", "151554.843000", "151554.843000", "151554.843000", "151554.843000", "151554.843000", "151554.859000", "151554.859000", "151554.859000", "151554.859000", "151554.859000", "151554.875000", "151554.875000", "151614.812000", "151614.812000", "151614.812000", "151614.812000", "151614.828000", "151614.828000", "151614.828000", "151614.828000", "151614.828000", "151614.828000", "151614.828000", "151614.828000", "151614.843000", "151614.843000", "151614.843000", "151614.843000", "151614.843000", "151614.859000", "151614.859000", "151614.859000", "151614.859000", "151614.859000", "151614.859000", "151614.859000", "151614.875000", "151634.812000", "151634.812000", "151634.812000", "151634.812000", "151634.828000", "151634.828000", "151634.828000", "151634.828000", "151634.828000", "151634.828000", "151634.828000", "151634.843000", "151634.843000", "151634.843000", "151634.843000", "151634.843000", "151634.843000", "151634.843000", "151634.843000", "151634.859000", "151634.859000", "151634.859000", "151634.859000", "151634.859000", "151634.859000", "151634.859000", "151654.812000", "151654.812000", "151654.812000", "151654.812000", "151654.828000", "151654.828000", "151654.828000", "151654.828000", "151654.828000", "151654.828000", "151654.828000", "151654.843000", "151654.843000", "151654.843000", "151654.843000", "151654.843000", "151654.843000", "151654.843000", "151654.843000", "151654.859000", "151654.859000", "151654.859000", "151654.859000", "151654.859000", "151654.859000", "151714.812000", "151714.812000", "151714.812000", "151714.812000", "151714.828000", "151714.828000", "151714.828000", "151714.828000", "151714.828000", "151714.828000", "151714.828000", "151714.843000", "151714.843000", "151714.843000", "151714.843000", "151714.843000", "151714.843000", "151714.843000", "151714.843000", "151714.859000", "151714.859000", "151714.859000", "151714.859000", "151714.859000", "151714.859000", "151734.812000", "151734.812000", "151734.812000", "151734.812000", "151734.828000", "151734.828000", "151734.828000", "151734.828000", "151734.828000", "151734.828000", "151734.828000", "151734.843000", "151734.843000", "151734.843000", "151734.843000", "151734.843000", "151734.843000", "151734.843000", "151734.859000", "151734.859000", "151734.859000", "151734.859000", "151734.859000", "151734.859000", "151734.875000", "151734.875000", "151754.812000", "151754.812000", "151754.812000", "151754.812000", "151754.828000", "151754.828000", "151754.828000", "151754.828000", "151754.843000", "151754.843000", "151754.843000", "151754.843000", "151754.843000", "151754.843000", "151754.843000", "151754.843000", "151754.859000", "151754.859000", "151754.859000", "151754.859000", "151754.859000", "151754.859000", "151754.859000", "151754.875000", "151754.875000", "151814.812000", "151814.812000", "151814.812000", "151814.812000", "151814.828000", "151814.828000", "151814.828000", "151814.828000", "151814.828000", "151814.843000", "151814.843000", "151814.843000", "151814.843000", "151814.843000", "151814.843000", "151814.843000", "151814.843000", "151814.859000", "151814.859000", "151814.859000", "151814.859000", "151814.859000", "151814.859000", "151814.859000", "151814.875000", "151814.875000", "151834.812000", "151834.812000", "151834.812000", "151834.828000", "151834.828000", "151834.828000", "151834.828000", "151834.828000", "151834.843000", "151834.843000", "151834.843000", "151834.843000", "151834.843000", "151834.843000", "151834.843000", "151834.859000", "151834.859000", "151834.859000", "151834.859000", "151834.859000", "151834.859000", "151834.859000", "151834.875000", "151834.875000", "151834.875000", "151854.812000", "151854.812000", "151854.812000", "151854.812000", "151854.828000", "151854.828000", "151854.828000", "151854.828000", "151854.828000", "151854.828000", "151854.828000", "151854.843000", "151854.843000", "151854.843000", "151854.843000", "151854.843000", "151854.843000", "151854.843000", "151854.843000", "151854.859000", "151854.859000", "151854.859000", "151854.859000", "151854.859000", "151854.859000", "151854.859000", "151914.812000", "151914.812000", "151914.812000", "151914.812000", "151914.828000", "151914.828000", "151914.828000", "151914.828000", "151914.828000", "151914.828000", "151914.828000", "151914.828000", "151914.843000", "151914.843000", "151914.843000", "151914.843000", "151914.843000", "151914.843000", "151914.843000", "151914.859000", "151914.859000", "151914.859000", "151914.859000", "151914.859000", "151914.875000", "151934.812000", "151934.812000", "151934.812000", "151934.812000", "151934.828000", "151934.828000", "151934.828000", "151934.828000", "151934.828000", "151934.828000", "151934.843000", "151934.843000", "151934.843000", "151934.843000", "151934.843000", "151934.843000", "151934.843000", "151934.859000", "151934.859000", "151934.859000", "151934.859000", "151934.859000", "151934.859000", "151934.859000", "151934.875000", "151934.875000", "151954.812000", "151954.812000", "151954.812000", "151954.812000", "151954.828000", "151954.828000", "151954.828000", "151954.828000", "151954.828000", "151954.828000", "151954.828000", "151954.843000", "151954.843000", "151954.843000", "151954.843000", "151954.843000", "151954.843000", "151954.843000", "151954.843000", "151954.859000", "151954.859000", "151954.859000", "151954.859000", "151954.859000", "151954.859000", "152014.812000", "152014.812000", "152014.812000", "152014.812000", "152014.828000", "152014.828000", "152014.828000", "152014.828000", "152014.828000", "152014.828000", "152014.828000", "152014.843000", "152014.843000", "152014.843000", "152014.843000", "152014.843000", "152014.843000", "152014.843000", "152014.843000", "152014.859000", "152014.859000", "152014.859000", "152014.859000", "152014.859000", "152014.859000", "152014.859000", "152034.812000", "152034.812000", "152034.812000", "152034.812000", "152034.828000", "152034.828000", "152034.828000", "152034.828000", "152034.828000", "152034.828000", "152034.828000", "152034.843000", "152034.843000", "152034.843000", "152034.843000", "152034.843000", "152034.843000", "152034.843000", "152034.859000", "152034.859000", "152034.859000", "152034.859000", "152034.859000", "152034.859000", "152034.859000", "152054.687000", "152054.687000", "152054.687000", "152054.687000", "152054.687000", "152054.687000", "152054.687000", "152054.703000", "152054.703000", "152054.703000", "152054.703000", "152054.718000", "152054.718000", "152054.718000", "152054.718000", "152054.734000", "152054.734000", "152054.734000", "152054.734000", "152054.734000", "152054.750000", "152054.750000", "152054.750000", "152054.750000", "152054.750000", "152054.750000"],
