{
  "AcquisitionMatrixPE": 104,
  "AcquisitionNumber": 1,
  "AcquisitionTime": "15:37:38.725000",
  "BandwidthPerPixelPhaseEncode": 13.935,
  "BaseResolution": 104,
  "CoilString": "C:HEA;HEP",
  "ConversionSoftware": "dcm2niix",
  "ConversionSoftwareVersion": "v1.0.20210317",
  "DerivedVendorReportedEchoSpacing": 0.000690017,
  "DeviceSerialNumber": "35450",
  "DwellTime": 2.5e-06,
  "EchoTime": 0.0348,
  "EffectiveEchoSpacing": 0.000690017,
  "FlipAngle": 55,
  "ImageComments": "Unaliased MB8/PE3 (remote)",
  "ImageOrientationPatientDICOM": [0.999129, 0.00443524, -0.0414816, 5.60459e-08, 0.994332, 0.106316],
  "ImageType": [
    "ORIGINAL",
    "PRIMARY",
    "M",
    "MB",
    "ND",
    "MOSAIC"
],
  "ImagingFrequency": 123.235,
  "InPlanePhaseEncodingDirectionDICOM": "COL",
  "InstitutionAddress": "Univeristy Ave. 197,Newark,North East,US,07102-1814",
  "InstitutionName": "RUBIC",
  "InstitutionalDepartmentName": "Department",
  "MRAcquisitionType": "2D",
  "MagneticFieldStrength": 3,
  "Manufacturer": "Siemens",
  "ManufacturersModelName": "TrioTim",
  "Modality": "MR",
  "MultibandAccelerationFactor": 8,
  "PartialFourier": 0.875,
  "PatientPosition": "HFS",
  "PercentPhaseFOV": 100,
  "PercentSampling": 100,
  "PhaseEncodingDirection": "j-",
  "PhaseEncodingSteps": 91,
  "PhaseResolution": 1,
  "PixelBandwidth": 1923,
  "ProcedureStepDescription": "Cole^Michael",
  "ProtocolName": "cmrr_mbep2d_bold_2mm_MB8_Task_8x",
  "PulseSequenceDetails": "%CustomerSeq%\\cmrr_mbep2d_bold",
  "ReceiveCoilName": "32Ch_Head",
  "ReconMatrixPE": 104,
  "RepetitionTime": 0.785,
  "SAR": 0.104975,
  "ScanOptions": "PFP\\FS",
  "ScanningSequence": "EP",
  "SequenceName": "epfid2d1_104",
  "SequenceVariant": "SK\\SS",
  "SeriesDescription": "cmrr_mbep2d_bold_2mm_MB8_Task_8x",
  "SeriesNumber": 19,
  "ShimSetting": [2099, -444, -7363, 987, -49, -290, -653, -20],
  "SliceThickness": 2,
  "SliceTiming": [0, 0.4375, 0.0875, 0.525, 0.175, 0.6125, 0.2625, 0.7, 0.35, 0, 0.4375, 0.0875, 0.525, 0.175, 0.6125, 0.2625, 0.7, 0.35, 0, 0.4375, 0.0875, 0.525, 0.175, 0.6125, 0.2625, 0.7, 0.35, 0, 0.4375, 0.0875, 0.525, 0.175, 0.6125, 0.2625, 0.7, 0.35, 0, 0.4375, 0.0875, 0.525, 0.175, 0.6125, 0.2625, 0.7, 0.35, 0, 0.4375, 0.0875, 0.525, 0.175, 0.6125, 0.2625, 0.7, 0.35, 0, 0.4375, 0.0875, 0.525, 0.175, 0.6125, 0.2625, 0.7, 0.35, 0, 0.4375, 0.0875, 0.525, 0.175, 0.6125, 0.2625, 0.7, 0.35],
  "SoftwareVersions": "syngo MR B19",
  "SpacingBetweenSlices": 2,
  "StationName": "MRC35450",
  "TaskName": "cpro",
  "TotalReadoutTime": 0.0710717,
  "TxRefAmp": 316.385,
  "dcmmeta_affine": [
    [-1.9982588291168213, 1.1209179717752704e-07, -0.08343607187271118, 106.0776596069336],
    [-0.008870475925505161, 1.9886647462844849, 0.21244683861732483, -88.75502014160156],
    [-0.08296319842338562, -0.212631955742836, 1.9869334697723389, -66.69784545898438],
    [0.0, 0.0, 0.0, 1.0]
],
  "dcmmeta_reorient_transform": [
    [0.0, -1.0, 0.0, 103.0],
    [1.0, 0.0, 0.0, 0.0],
    [0.0, 0.0, 1.0, 0.0],
    [0.0, 0.0, 0.0, 1.0]
],
  "dcmmeta_shape": [104, 104, 72, 581],
  "dcmmeta_slice_dim": 2,
  "dcmmeta_version": 0.6,
  "global": {
    "const": {
      "AcquisitionMatrix": [104, 0, 0, 104],
      "AngioFlag": "N",
      "BitsAllocated": 16,
      "BitsStored": 12,
      "Columns": 936,
      "EchoNumbers": 1,
      "EchoTime": 34.8,
      "EchoTrainLength": 1,
      "FlipAngle": 55.0,
      "HighBit": 11,
      "ImageOrientationPatient": [0.99912942383643, 0.00443523791953, -0.0414815994012, 5.6045897e-08, 0.99433239571134, 0.10631597640499],
      "ImagePositionPatient": [-937.35339771583, -947.05212298316, -142.54113990044],
      "ImageType": [
        "ORIGINAL",
        "PRIMARY",
        "M",
        "MB",
        "ND",
        "MOSAIC"
],
      "ImagedNucleus": "1H",
      "ImagingFrequency": 123.234551,
      "InPlanePhaseEncodingDirection": "COL",
      "MRAcquisitionType": "2D",
      "MagneticFieldStrength": 3.0,
      "Manufacturer": "SIEMENS",
      "ManufacturerModelName": "TrioTim",
      "Modality": "MR",
      "NumberOfAverages": 1.0,
      "NumberOfPhaseEncodingSteps": 91,
      "PercentPhaseFieldOfView": 100.0,
      "PercentSampling": 100.0,
      "PerformedProcedureStepStartTime": "142154.062000",
      "PhotometricInterpretation": "MONOCHROME2",
      "PixelBandwidth": 1923.0,
      "PixelRepresentation": 0,
      "PixelSpacing": [2.0, 2.0],
      "ProtocolName": "cmrr_mbep2d_bold_2mm_MB8_Task_8x",
      "RepetitionTime": 785.0,
      "Rows": 936,
      "SAR": 0.10497467825185,
      "SamplesPerPixel": 1,
      "ScanOptions": [
        "PFP",
        "FS"
],
      "ScanningSequence": "EP",
      "SequenceName": "epfid2d1_104",
      "SequenceVariant": [
        "SK",
        "SS"
],
      "SeriesDescription": "cmrr_mbep2d_bold_2mm_MB8_Task_8x",
      "SeriesNumber": 19,
      "SeriesTime": "153814.843000",
      "SliceLocation": -80.115307248667,
      "SliceThickness": 2.0,
      "SmallestImagePixelValue": 0,
      "SoftwareVersions": "syngo MR B19",
      "SpacingBetweenSlices": 1.9999999719936,
      "SpecificCharacterSet": "ISO_IR 100",
      "StudyID": "1",
      "StudyTime": "142154.031000",
      "TransmitCoilName": "Body",
      "VariableFlipAngleFlag": "N",
      "WindowCenterWidthExplanation": "Algo1",
      "dBdt": 0.0},
    "slices": {}
  },
  "time": {
    "samples": {
      "AcquisitionNumber": [1, 2, 3, 4, 5, 6, 7, 8, 9, 10, 11, 12, 13, 14, 15, 16, 17, 18, 19, 20, 21, 22, 23, 24, 25, 26, 27, 28, 29, 30, 31, 32, 33, 34, 35, 36, 37, 38, 39, 40, 41, 42, 43, 44, 45, 46, 47, 48, 49, 50, 51, 52, 53, 54, 55, 56, 57, 58, 59, 60, 61, 62, 63, 64, 65, 66, 67, 68, 69, 70, 71, 72, 73, 74, 75, 76, 77, 78, 79, 80, 81, 82, 83, 84, 85, 86, 87, 88, 89, 90, 91, 92, 93, 94, 95, 96, 97, 98, 99, 100, 101, 102, 103, 104, 105, 106, 107, 108, 109, 110, 111, 112, 113, 114, 115, 116, 117, 118, 119, 120, 121, 122, 123, 124, 125, 126, 127, 128, 129, 130, 131, 132, 133, 134, 135, 136, 137, 138, 139, 140, 141, 142, 143, 144, 145, 146, 147, 148, 149, 150, 151, 152, 153, 154, 155, 156, 157, 158, 159, 160, 161, 162, 163, 164, 165, 166, 167, 168, 169, 170, 171, 172, 173, 174, 175, 176, 177, 178, 179, 180, 181, 182, 183, 184, 185, 186, 187, 188, 189, 190, 191, 192, 193, 194, 195, 196, 197, 198, 199, 200, 201, 202, 203, 204, 205, 206, 207, 208, 209, 210, 211, 212, 213, 214, 215, 216, 217, 218, 219, 220, 221, 222, 223, 224, 225, 226, 227, 228, 229, 230, 231, 232, 233, 234, 235, 236, 237, 238, 239, 240, 241, 242, 243, 244, 245, 246, 247, 248, 249, 250, 251, 252, 253, 254, 255, 256, 257, 258, 259, 260, 261, 262, 263, 264, 265, 266, 267, 268, 269, 270, 271, 272, 273, 274, 275, 276, 277, 278, 279, 280, 281, 282, 283, 284, 285, 286, 287, 288, 289, 290, 291, 292, 293, 294, 295, 296, 297, 298, 299, 300, 301, 302, 303, 304, 305, 306, 307, 308, 309, 310, 311, 312, 313, 314, 315, 316, 317, 318, 319, 320, 321, 322, 323, 324, 325, 326, 327, 328, 329, 330, 331, 332, 333, 334, 335, 336, 337, 338, 339, 340, 341, 342, 343, 344, 345, 346, 347, 348, 349, 350, 351, 352, 353, 354, 355, 356, 357, 358, 359, 360, 361, 362, 363, 364, 365, 366, 367, 368, 369, 370, 371, 372, 373, 374, 375, 376, 377, 378, 379, 380, 381, 382, 383, 384, 385, 386, 387, 388, 389, 390, 391, 392, 393, 394, 395, 396, 397, 398, 399, 400, 401, 402, 403, 404, 405, 406, 407, 408, 409, 410, 411, 412, 413, 414, 415, 416, 417, 418, 419, 420, 421, 422, 423, 424, 425, 426, 427, 428, 429, 430, 431, 432, 433, 434, 435, 436, 437, 438, 439, 440, 441, 442, 443, 444, 445, 446, 447, 448, 449, 450, 451, 452, 453, 454, 455, 456, 457, 458, 459, 460, 461, 462, 463, 464, 465, 466, 467, 468, 469, 470, 471, 472, 473, 474, 475, 476, 477, 478, 479, 480, 481, 482, 483, 484, 485, 486, 487, 488, 489, 490, 491, 492, 493, 494, 495, 496, 497, 498, 499, 500, 501, 502, 503, 504, 505, 506, 507, 508, 509, 510, 511, 512, 513, 514, 515, 516, 517, 518, 519, 520, 521, 522, 523, 524, 525, 526, 527, 528, 529, 530, 531, 532, 533, 534, 535, 536, 537, 538, 539, 540, 541, 542, 543, 544, 545, 546, 547, 548, 549, 550, 551, 552, 553, 554, 555, 556, 557, 558, 559, 560, 561, 562, 563, 564, 565, 566, 567, 568, 569, 570, 571, 572, 573, 574, 575, 576, 577, 578, 579, 580, 581],
      "AcquisitionTime": ["153738.725000", "153739.512500", "153740.300000", "153741.090000", "153741.877500", "153742.665000", "153743.452500", "153744.242500", "153745.030000", "153745.817500", "153746.607500", "153747.395000", "153748.182500", "153748.970000", "153749.760000", "153750.547500", "153751.335000", "153752.122500", "153752.912500", "153753.700000", "153754.487500", "153755.275000", "153756.065000", "153756.852500", "153757.640000", "153758.427500", "153759.217500", "153800.005000", "153800.792500", "153801.580000", "153802.370000", "153803.157500", "153803.945000", "153804.735000", "153805.522500", "153806.310000", "153807.097500", "153807.887500", "153808.675000", "153809.462500", "153810.250000", "153811.040000", "153811.827500", "153812.615000", "153813.402500", "153814.192500", "153814.980000", "153815.767500", "153816.555000", "153817.345000", "153818.132500", "153818.920000", "153819.707500", "153820.497500", "153821.285000", "153822.072500", "153822.862500", "153823.650000", "153824.437500", "153825.225000", "153826.015000", "153826.802500", "153827.590000", "153828.377500", "153829.167500", "153829.955000", "153830.742500", "153831.530000", "153832.320000", "153833.107500", "153833.895000", "153834.682500", "153835.472500", "153836.260000", "153837.047500", "153837.835000", "153838.625000", "153839.412500", "153840.200000", "153840.990000", "153841.777500", "153842.565000", "153843.352500", "153844.142500", "153844.930000", "153845.717500", "153846.505000", "153847.295000", "153848.082500", "153848.870000", "153849.657500", "153850.447500", "153851.235000", "153852.022500", "153852.810000", "153853.600000", "153854.387500", "153855.175000", "153855.962500", "153856.752500", "153857.540000", "153858.327500", "153859.117500", "153859.905000", "153900.692500", "153901.480000", "153902.270000", "153903.057500", "153903.845000", "153904.632500", "153905.422500", "153906.210000", "153906.997500", "153907.785000", "153908.575000", "153909.362500", "153910.150000", "153910.937500", "153911.727500", "153912.515000", "153913.302500", "153914.090000", "153914.880000", "153915.667500", "153916.455000", "153917.245000", "153918.032500", "153918.820000", "153919.607500", "153920.397500", "153921.185000", "153921.972500", "153922.760000", "153923.550000", "153924.337500", "153925.125000", "153925.912500", "153926.702500", "153927.490000", "153928.277500", "153929.065000", "153929.855000", "153930.642500", "153931.430000", "153932.217500", "153933.007500", "153933.795000", "153934.582500", "153935.372500", "153936.160000", "153936.947500", "153937.735000", "153938.525000", "153939.312500", "153940.100000", "153940.887500", "153941.677500", "153942.465000", "153943.252500", "153944.040000", "153944.830000", "153945.617500", "153946.405000", "153947.192500", "153947.982500", "153948.770000", "153949.557500", "153950.345000", "153951.135000", "153951.922500", "153952.710000", "153953.500000", "153954.287500", "153955.075000", "153955.862500", "153956.652500", "153957.440000", "153958.227500", "153959.015000", "153959.805000", "154000.592500", "154001.380000", "154002.167500", "154002.957500", "154003.745000", "154004.532500", "154005.320000", "154006.110000", "154006.897500", "154007.685000", "154008.472500", "154009.262500", "154010.050000", "154010.837500", "154011.627500", "154012.415000", "154013.202500", "154013.990000", "154014.780000", "154015.567500", "154016.355000", "154017.142500", "154017.932500", "154018.720000", "154019.507500", "154020.295000", "154021.085000", "154021.872500", "154022.660000", "154023.447500", "154024.237500", "154025.025000", "154025.812500", "154026.602500", "154027.390000", "154028.177500", "154028.965000", "154029.755000", "154030.542500", "154031.330000", "154032.117500", "154032.907500", "154033.695000", "154034.482500", "154035.270000", "154036.060000", "154036.847500", "154037.635000", "154038.422500", "154039.212500", "154040.000000", "154040.787500", "154041.575000", "154042.365000", "154043.152500", "154043.940000", "154044.730000", "154045.517500", "154046.305000", "154047.092500", "154047.882500", "154048.670000", "154049.457500", "154050.245000", "154051.035000", "154051.822500", "154052.610000", "154053.397500", "154054.187500", "154054.975000", "154055.762500", "154056.550000", "154057.340000", "154058.127500", "154058.915000", "154059.702500", "154100.492500", "154101.280000", "154102.067500", "154102.857500", "154103.645000", "154104.432500", "154105.220000", "154106.010000", "154106.797500", "154107.585000", "154108.372500", "154109.162500", "154109.950000", "154110.737500", "154111.525000", "154112.315000", "154113.102500", "154113.890000", "154114.677500", "154115.467500", "154116.255000", "154117.042500", "154117.830000", "154118.620000", "154119.407500", "154120.195000", "154120.985000", "154121.772500", "154122.560000", "154123.347500", "154124.137500", "154124.925000", "154125.712500", "154126.500000", "154127.290000", "154128.077500", "154128.865000", "154129.652500", "154130.442500", "154131.230000", "154132.017500", "154132.805000", "154133.595000", "154134.382500", "154135.170000", "154135.957500", "154136.747500", "154137.535000", "154138.322500", "154139.112500", "154139.900000", "154140.687500", "154141.475000", "154142.265000", "154143.052500", "154143.840000", "154144.627500", "154145.417500", "154146.205000", "154146.992500", "154147.780000", "154148.570000", "154149.357500", "154150.145000", "154150.932500", "154151.722500", "154152.510000", "154153.297500", "154154.085000", "154154.875000", "154155.662500", "154156.450000", "154157.240000", "154158.027500", "154158.815000", "154159.602500", "154200.392500", "154201.180000", "154201.967500", "154202.755000", "154203.545000", "154204.332500", "154205.120000", "154205.907500", "154206.697500", "154207.485000", "154208.272500", "154209.060000", "154209.850000", "154210.637500", "154211.425000", "154212.212500", "154213.002500", "154213.790000", "154214.577500", "154215.367500", "154216.155000", "154216.942500", "154217.730000", "154218.520000", "154219.307500", "154220.095000", "154220.882500", "154221.672500", "154222.460000", "154223.247500", "154224.035000", "154224.825000", "154225.612500", "154226.400000", "154227.187500", "154227.977500", "154228.765000", "154229.552500", "154230.340000", "154231.130000", "154231.917500", "154232.705000", "154233.495000", "154234.282500", "154235.070000", "154235.857500", "154236.647500", "154237.435000", "154238.222500", "154239.010000", "154239.800000", "154240.587500", "154241.375000", "154242.162500", "154242.952500", "154243.740000", "154244.527500", "154245.315000", "154246.105000", "154246.892500", "154247.680000", "154248.467500", "154249.257500", "154250.045000", "154250.832500", "154251.622500", "154252.410000", "154253.197500", "154253.985000", "154254.775000", "154255.562500", "154256.350000", "154257.137500", "154257.927500", "154258.715000", "154259.502500", "154300.290000", "154301.080000", "154301.867500", "154302.655000", "154303.442500", "154304.232500", "154305.020000", "154305.807500", "154306.595000", "154307.385000", "154308.172500", "154308.960000", "154309.750000", "154310.537500", "154311.325000", "154312.112500", "154312.902500", "154313.690000", "154314.477500", "154315.265000", "154316.055000", "154316.842500", "154317.630000", "154318.417500", "154319.207500", "154319.995000", "154320.782500", "154321.570000", "154322.360000", "154323.147500", "154323.935000", "154324.722500", "154325.512500", "154326.300000", "154327.087500", "154327.877500", "154328.665000", "154329.452500", "154330.240000", "154331.030000", "154331.817500", "154332.605000", "154333.392500", "154334.182500", "154334.970000", "154335.757500", "154336.545000", "154337.335000", "154338.122500", "154338.910000", "154339.697500", "154340.487500", "154341.275000", "154342.062500", "154342.852500", "154343.640000", "154344.427500", "154345.215000", "154346.005000", "154346.792500", "154347.580000", "154348.367500", "154349.157500", "154349.945000", "154350.732500", "154351.520000", "154352.310000", "154353.097500", "154353.885000", "154354.672500", "154355.462500", "154356.250000", "154357.037500", "154357.825000", "154358.615000", "154359.402500", "154400.190000", "154400.980000", "154401.767500", "154402.555000", "154403.342500", "154404.132500", "154404.920000", "154405.707500", "154406.495000", "154407.285000", "154408.072500", "154408.860000", "154409.647500", "154410.437500", "154411.225000", "154412.012500", "154412.800000", "154413.590000", "154414.377500", "154415.165000", "154415.952500", "154416.742500", "154417.530000", "154418.317500", "154419.107500", "154419.895000", "154420.682500", "154421.470000", "154422.260000", "154423.047500", "154423.835000", "154424.622500", "154425.412500", "154426.200000", "154426.987500", "154427.775000", "154428.565000", "154429.352500", "154430.140000", "154430.927500", "154431.717500", "154432.505000", "154433.292500", "154434.080000", "154434.870000", "154435.657500", "154436.445000", "154437.235000", "154438.022500", "154438.810000", "154439.597500", "154440.387500", "154441.175000", "154441.962500", "154442.750000", "154443.540000", "154444.327500", "154445.115000", "154445.902500", "154446.692500", "154447.480000", "154448.267500", "154449.055000", "154449.845000", "154450.632500", "154451.420000", "154452.207500", "154452.997500", "154453.785000", "154454.572500", "154455.362500", "154456.150000", "154456.937500", "154457.725000", "154458.515000", "154459.302500", "154500.090000", "154500.877500", "154501.667500", "154502.455000", "154503.242500", "154504.030000", "154504.820000", "154505.607500", "154506.395000", "154507.182500", "154507.972500", "154508.760000", "154509.547500", "154510.335000", "154511.125000", "154511.912500", "154512.700000", "154513.490000", "154514.277500", "154515.065000", "154515.852500"],
      "ContentTime": ["153814.843000", "153814.843000", "153814.843000", "153814.859000", "153814.859000", "153814.859000", "153814.859000", "153814.859000", "153814.859000", "153814.859000", "153814.859000", "153814.875000", "153814.875000", "153814.875000", "153814.875000", "153814.875000", "153814.875000", "153814.875000", "153814.890000", "153814.890000", "153814.890000", "153814.890000", "153814.890000", "153814.890000", "153814.890000", "153814.890000", "153814.906000", "153814.906000", "153814.906000", "153814.906000", "153814.906000", "153814.906000", "153814.906000", "153814.921000", "153814.921000", "153814.921000", "153814.921000", "153814.921000", "153814.921000", "153814.921000", "153814.937000", "153814.937000", "153814.937000", "153814.937000", "153834.812000", "153834.812000", "153834.812000", "153834.812000", "153834.828000", "153834.828000", "153834.828000", "153834.828000", "153834.828000", "153834.828000", "153834.828000", "153834.843000", "153834.843000", "153834.843000", "153834.843000", "153834.843000", "153834.843000", "153834.843000", "153834.843000", "153834.859000", "153834.859000", "153834.859000", "153834.859000", "153834.859000", "153834.859000", "153834.859000", "153854.812000", "153854.812000", "153854.812000", "153854.812000", "153854.828000", "153854.828000", "153854.828000", "153854.828000", "153854.828000", "153854.828000", "153854.828000", "153854.828000", "153854.843000", "153854.843000", "153854.843000", "153854.843000", "153854.843000", "153854.843000", "153854.843000", "153854.859000", "153854.859000", "153854.859000", "153854.859000", "153854.859000", "153854.859000", "153914.812000", "153914.812000", "153914.812000", "153914.812000", "153914.828000", "153914.828000", "153914.828000", "153914.828000", "153914.828000", "153914.828000", "153914.828000", "153914.843000", "153914.843000", "153914.843000", "153914.843000", "153914.843000", "153914.843000", "153914.843000", "153914.859000", "153914.859000", "153914.859000", "153914.859000", "153914.859000", "153914.859000", "153914.859000", "153914.859000", "153934.812000", "153934.812000", "153934.812000", "153934.812000", "153934.828000", "153934.828000", "153934.828000", "153934.828000", "153934.828000", "153934.828000", "153934.828000", "153934.843000", "153934.843000", "153934.843000", "153934.843000", "153934.843000", "153934.843000", "153934.843000", "153934.843000", "153934.859000", "153934.859000", "153934.859000", "153934.859000", "153934.859000", "153934.859000", "153954.812000", "153954.812000", "153954.812000", "153954.812000", "153954.828000", "153954.828000", "153954.828000", "153954.828000", "153954.828000", "153954.828000", "153954.828000", "153954.843000", "153954.843000", "153954.843000", "153954.843000", "153954.843000", "153954.843000", "153954.843000", "153954.843000", "153954.859000", "153954.859000", "153954.859000", "153954.859000", "153954.859000", "153954.859000", "153954.859000", "154014.812000", "154014.812000", "154014.812000", "154014.812000", "154014.828000", "154014.828000", "154014.828000", "154014.828000", "154014.828000", "154014.828000", "154014.828000", "154014.843000", "154014.843000", "154014.843000", "154014.843000", "154014.843000", "154014.859000", "154014.859000", "154014.859000", "154014.859000", "154014.859000", "154014.875000", "154014.875000", "154014.875000", "154014.875000", "154034.812000", "154034.812000", "154034.812000", "154034.812000", "154034.828000", "154034.828000", "154034.828000", "154034.828000", "154034.828000", "154034.828000", "154034.828000", "154034.828000", "154034.843000", "154034.843000", "154034.843000", "154034.843000", "154034.843000", "154034.843000", "154034.843000", "154034.859000", "154034.859000", "154034.859000", "154034.859000", "154034.859000", "154034.859000", "154034.859000", "154054.812000", "154054.812000", "154054.812000", "154054.812000", "154054.828000", "154054.828000", "154054.828000", "154054.828000", "154054.828000", "154054.828000", "154054.828000", "154054.828000", "154054.843000", "154054.843000", "154054.843000", "154054.843000", "154054.843000", "154054.843000", "154054.843000", "154054.859000", "154054.859000", "154054.859000", "154054.859000", "154054.859000", "154054.859000", "154114.812000", "154114.812000", "154114.812000", "154114.812000", "154114.828000", "154114.828000", "154114.828000", "154114.828000", "154114.828000", "154114.843000", "154114.843000", "154114.843000", "154114.843000", "154114.843000", "154114.843000", "154114.843000", "154114.843000", "154114.859000", "154114.859000", "154114.859000", "154114.859000", "154114.859000", "154114.859000", "154114.859000", "154114.875000", "154114.875000", "154134.812000", "154134.812000", "154134.812000", "154134.812000", "154134.828000", "154134.828000", "154134.828000", "154134.828000", "154134.828000", "154134.843000", "154134.843000", "154134.843000", "154134.843000", "154134.843000", "154134.859000", "154134.859000", "154134.859000", "154134.875000", "154134.875000", "154134.875000", "154134.875000", "154134.875000", "154134.875000", "154134.875000", "154134.890000", "154154.812000", "154154.812000", "154154.828000", "154154.828000", "154154.828000", "154154.828000", "154154.828000", "154154.828000", "154154.828000", "154154.828000", "154154.843000", "154154.843000", "154154.843000", "154154.843000", "154154.843000", "154154.843000", "154154.843000", "154154.859000", "154154.859000", "154154.859000", "154154.859000", "154154.859000", "154154.859000", "154154.859000", "154154.875000", "154214.812000", "154214.812000", "154214.812000", "154214.812000", "154214.828000", "154214.828000", "154214.828000", "154214.828000", "154214.828000", "154214.828000", "154214.828000", "154214.843000", "154214.843000", "154214.843000", "154214.843000", "154214.843000", "154214.843000", "154214.843000", "154214.859000", "154214.859000", "154214.859000", "154214.859000", "154214.859000", "154214.875000", "154214.875000", "154214.875000", "154234.812000", "154234.812000", "154234.812000", "154234.828000", "154234.828000", "154234.828000", "154234.828000", "154234.828000", "154234.828000", "154234.843000", "154234.843000", "154234.843000", "154234.843000", "154234.859000", "154234.859000", "154234.859000", "154234.859000", "154234.875000", "154234.875000", "154234.875000", "154234.890000", "154234.890000", "154234.890000", "154234.906000", "154234.906000", "154254.812000", "154254.812000", "154254.812000", "154254.812000", "154254.828000", "154254.828000", "154254.828000", "154254.828000", "154254.828000", "154254.828000", "154254.828000", "154254.843000", "154254.843000", "154254.843000", "154254.843000", "154254.843000", "154254.843000", "154254.843000", "154254.843000", "154254.859000", "154254.859000", "154254.859000", "154254.859000", "154254.859000", "154254.859000", "154254.859000", "154314.812000", "154314.812000", "154314.812000", "154314.812000", "154314.828000", "154314.828000", "154314.828000", "154314.828000", "154314.828000", "154314.828000", "154314.828000", "154314.843000", "154314.843000", "154314.843000", "154314.843000", "154314.843000", "154314.843000", "154314.843000", "154314.859000", "154314.859000", "154314.859000", "154314.859000", "154314.859000", "154314.875000", "154314.875000", "154334.812000", "154334.812000", "154334.812000", "154334.812000", "154334.828000", "154334.828000", "154334.828000", "154334.828000", "154334.828000", "154334.828000", "154334.828000", "154334.843000", "154334.843000", "154334.843000", "154334.843000", "154334.843000", "154334.843000", "154334.843000", "154334.843000", "154334.859000", "154334.859000", "154334.859000", "154334.859000", "154334.859000", "154334.859000", "154334.859000", "154354.812000", "154354.812000", "154354.812000", "154354.812000", "154354.828000", "154354.828000", "154354.828000", "154354.828000", "154354.828000", "154354.828000", "154354.828000", "154354.843000", "154354.843000", "154354.843000", "154354.843000", "154354.859000", "154354.859000", "154354.859000", "154354.859000", "154354.859000", "154354.859000", "154354.859000", "154354.875000", "154354.875000", "154354.875000", "154414.812000", "154414.812000", "154414.812000", "154414.812000", "154414.828000", "154414.828000", "154414.828000", "154414.828000", "154414.828000", "154414.828000", "154414.828000", "154414.843000", "154414.843000", "154414.843000", "154414.843000", "154414.843000", "154414.843000", "154414.843000", "154414.859000", "154414.859000", "154414.859000", "154414.859000", "154414.859000", "154414.859000", "154414.859000", "154414.875000", "154434.812000", "154434.812000", "154434.812000", "154434.828000", "154434.828000", "154434.828000", "154434.828000", "154434.828000", "154434.843000", "154434.843000", "154434.843000", "154434.843000", "154434.843000", "154434.843000", "154434.843000", "154434.859000", "154434.859000", "154434.859000", "154434.859000", "154434.859000", "154434.859000", "154434.859000", "154434.859000", "154434.875000", "154434.875000", "154454.812000", "154454.812000", "154454.812000", "154454.812000", "154454.828000", "154454.828000", "154454.828000", "154454.828000", "154454.828000", "154454.828000", "154454.828000", "154454.843000", "154454.843000", "154454.843000", "154454.843000", "154454.843000", "154454.843000", "154454.843000", "154454.843000", "154454.859000", "154454.859000", "154454.859000", "154454.859000", "154454.875000", "154454.875000", "154454.875000", "154514.812000", "154514.812000", "154514.812000", "154514.812000", "154514.828000", "154514.828000", "154514.828000", "154514.828000", "154514.828000", "154514.828000", "154514.828000", "154514.843000", "154514.843000", "154514.843000", "154514.843000", "154514.843000", "154514.843000", "154514.843000", "154514.843000", "154514.859000", "154514.859000", "154514.859000", "154514.859000", "154514.859000", "154514.859000", "154515.859000", "154515.859000"],
