{
  "AcquisitionMatrixPE": 104,
  "AcquisitionNumber": 1,
  "AcquisitionTime": "15:29:34.690000",
  "BandwidthPerPixelPhaseEncode": 13.935,
  "BaseResolution": 104,
  "CoilString": "C:HEA;HEP",
  "ConversionSoftware": "dcm2niix",
  "ConversionSoftwareVersion": "v1.0.20210317",
  "DerivedVendorReportedEchoSpacing": 0.000690017,
  "DeviceSerialNumber": "35450",
  "DwellTime": 2.5e-06,
  "EchoTime": 0.0348,
  "EffectiveEchoSpacing": 0.000690017,
  "FlipAngle": 55,
  "ImageComments": "Unaliased MB8/PE3 (remote)",
  "ImageOrientationPatientDICOM": [0.999129, 0.00443524, -0.0414816, 5.60459e-08, 0.994332, 0.106316],
  "ImageType": [
    "ORIGINAL",
    "PRIMARY",
    "M",
    "MB",
    "ND",
    "MOSAIC"
],
  "ImagingFrequency": 123.235,
  "InPlanePhaseEncodingDirectionDICOM": "COL",
  "InstitutionAddress": "Univeristy Ave. 197,Newark,North East,US,07102-1814",
  "InstitutionName": "RUBIC",
  "InstitutionalDepartmentName": "Department",
  "MRAcquisitionType": "2D",
  "MagneticFieldStrength": 3,
  "Manufacturer": "Siemens",
  "ManufacturersModelName": "TrioTim",
  "Modality": "MR",
  "MultibandAccelerationFactor": 8,
  "PartialFourier": 0.875,
  "PatientPosition": "HFS",
  "PercentPhaseFOV": 100,
  "PercentSampling": 100,
  "PhaseEncodingDirection": "j-",
  "PhaseEncodingSteps": 91,
  "PhaseResolution": 1,
  "PixelBandwidth": 1923,
  "ProcedureStepDescription": "Cole^Michael",
  "ProtocolName": "cmrr_mbep2d_bold_2mm_MB8_Task_8x",
  "PulseSequenceDetails": "%CustomerSeq%\\cmrr_mbep2d_bold",
  "ReceiveCoilName": "32Ch_Head",
  "ReconMatrixPE": 104,
  "RepetitionTime": 0.785,
  "SAR": 0.104975,
  "ScanOptions": "PFP\\FS",
  "ScanningSequence": "EP",
  "SequenceName": "epfid2d1_104",
  "SequenceVariant": "SK\\SS",
  "SeriesDescription": "cmrr_mbep2d_bold_2mm_MB8_Task_8x",
  "SeriesNumber": 17,
  "ShimSetting": [2099, -444, -7363, 987, -49, -290, -653, -20],
  "SliceThickness": 2,
  "SliceTiming": [0, 0.4375, 0.0875, 0.525, 0.175, 0.6125, 0.2625, 0.7, 0.35, 0, 0.4375, 0.0875, 0.525, 0.175, 0.6125, 0.2625, 0.7, 0.35, 0, 0.4375, 0.0875, 0.525, 0.175, 0.6125, 0.2625, 0.7, 0.35, 0, 0.4375, 0.0875, 0.525, 0.175, 0.6125, 0.2625, 0.7, 0.35, 0, 0.4375, 0.0875, 0.525, 0.175, 0.6125, 0.2625, 0.7, 0.35, 0, 0.4375, 0.0875, 0.525, 0.175, 0.6125, 0.2625, 0.7, 0.35, 0, 0.4375, 0.0875, 0.525, 0.175, 0.6125, 0.2625, 0.7, 0.35, 0, 0.4375, 0.0875, 0.525, 0.175, 0.6125, 0.2625, 0.7, 0.35],
  "SoftwareVersions": "syngo MR B19",
  "SpacingBetweenSlices": 2,
  "StationName": "MRC35450",
  "TaskName": "cpro",
  "TotalReadoutTime": 0.0710717,
  "TxRefAmp": 316.385,
  "dcmmeta_affine": [
    [-1.9982588291168213, 1.1209179717752704e-07, -0.08343607187271118, 106.0776596069336],
    [-0.008870475925505161, 1.9886647462844849, 0.21244683861732483, -88.75502014160156],
    [-0.08296319842338562, -0.212631955742836, 1.9869334697723389, -66.69784545898438],
    [0.0, 0.0, 0.0, 1.0]
],
  "dcmmeta_reorient_transform": [
    [0.0, -1.0, 0.0, 103.0],
    [1.0, 0.0, 0.0, 0.0],
    [0.0, 0.0, 1.0, 0.0],
    [0.0, 0.0, 0.0, 1.0]
],
  "dcmmeta_shape": [104, 104, 72, 581],
  "dcmmeta_slice_dim": 2,
  "dcmmeta_version": 0.6,
  "global": {
    "const": {
      "AcquisitionMatrix": [104, 0, 0, 104],
      "AngioFlag": "N",
      "BitsAllocated": 16,
      "BitsStored": 12,
      "Columns": 936,
      "EchoNumbers": 1,
      "EchoTime": 34.8,
      "EchoTrainLength": 1,
      "FlipAngle": 55.0,
      "HighBit": 11,
      "ImageOrientationPatient": [0.99912942383643, 0.00443523791953, -0.0414815994012, 5.6045897e-08, 0.99433239571134, 0.10631597640499],
      "ImagePositionPatient": [-937.35339771583, -947.05212298316, -142.54113990044],
      "ImageType": [
        "ORIGINAL",
        "PRIMARY",
        "M",
        "MB",
        "ND",
        "MOSAIC"
],
      "ImagedNucleus": "1H",
      "ImagingFrequency": 123.234551,
      "InPlanePhaseEncodingDirection": "COL",
      "MRAcquisitionType": "2D",
      "MagneticFieldStrength": 3.0,
      "Manufacturer": "SIEMENS",
      "ManufacturerModelName": "TrioTim",
      "Modality": "MR",
      "NumberOfAverages": 1.0,
      "NumberOfPhaseEncodingSteps": 91,
      "PercentPhaseFieldOfView": 100.0,
      "PercentSampling": 100.0,
      "PerformedProcedureStepStartTime": "142154.062000",
      "PhotometricInterpretation": "MONOCHROME2",
      "PixelBandwidth": 1923.0,
      "PixelRepresentation": 0,
      "PixelSpacing": [2.0, 2.0],
      "ProtocolName": "cmrr_mbep2d_bold_2mm_MB8_Task_8x",
      "RepetitionTime": 785.0,
      "Rows": 936,
      "SAR": 0.10497467825185,
      "SamplesPerPixel": 1,
      "ScanOptions": [
        "PFP",
        "FS"
],
      "ScanningSequence": "EP",
      "SequenceName": "epfid2d1_104",
      "SequenceVariant": [
        "SK",
        "SS"
],
      "SeriesDescription": "cmrr_mbep2d_bold_2mm_MB8_Task_8x",
      "SeriesNumber": 17,
      "SeriesTime": "153008.625000",
      "SliceLocation": -80.115307248667,
      "SliceThickness": 2.0,
      "SmallestImagePixelValue": 0,
      "SoftwareVersions": "syngo MR B19",
      "SpacingBetweenSlices": 1.9999999719936,
      "SpecificCharacterSet": "ISO_IR 100",
      "StudyID": "1",
      "StudyTime": "142154.031000",
      "TransmitCoilName": "Body",
      "VariableFlipAngleFlag": "N",
      "WindowCenterWidthExplanation": "Algo1",
      "dBdt": 0.0},
    "slices": {}
  },
  "time": {
    "samples": {
      "AcquisitionNumber": [1, 2, 3, 4, 5, 6, 7, 8, 9, 10, 11, 12, 13, 14, 15, 16, 17, 18, 19, 20, 21, 22, 23, 24, 25, 26, 27, 28, 29, 30, 31, 32, 33, 34, 35, 36, 37, 38, 39, 40, 41, 42, 43, 44, 45, 46, 47, 48, 49, 50, 51, 52, 53, 54, 55, 56, 57, 58, 59, 60, 61, 62, 63, 64, 65, 66, 67, 68, 69, 70, 71, 72, 73, 74, 75, 76, 77, 78, 79, 80, 81, 82, 83, 84, 85, 86, 87, 88, 89, 90, 91, 92, 93, 94, 95, 96, 97, 98, 99, 100, 101, 102, 103, 104, 105, 106, 107, 108, 109, 110, 111, 112, 113, 114, 115, 116, 117, 118, 119, 120, 121, 122, 123, 124, 125, 126, 127, 128, 129, 130, 131, 132, 133, 134, 135, 136, 137, 138, 139, 140, 141, 142, 143, 144, 145, 146, 147, 148, 149, 150, 151, 152, 153, 154, 155, 156, 157, 158, 159, 160, 161, 162, 163, 164, 165, 166, 167, 168, 169, 170, 171, 172, 173, 174, 175, 176, 177, 178, 179, 180, 181, 182, 183, 184, 185, 186, 187, 188, 189, 190, 191, 192, 193, 194, 195, 196, 197, 198, 199, 200, 201, 202, 203, 204, 205, 206, 207, 208, 209, 210, 211, 212, 213, 214, 215, 216, 217, 218, 219, 220, 221, 222, 223, 224, 225, 226, 227, 228, 229, 230, 231, 232, 233, 234, 235, 236, 237, 238, 239, 240, 241, 242, 243, 244, 245, 246, 247, 248, 249, 250, 251, 252, 253, 254, 255, 256, 257, 258, 259, 260, 261, 262, 263, 264, 265, 266, 267, 268, 269, 270, 271, 272, 273, 274, 275, 276, 277, 278, 279, 280, 281, 282, 283, 284, 285, 286, 287, 288, 289, 290, 291, 292, 293, 294, 295, 296, 297, 298, 299, 300, 301, 302, 303, 304, 305, 306, 307, 308, 309, 310, 311, 312, 313, 314, 315, 316, 317, 318, 319, 320, 321, 322, 323, 324, 325, 326, 327, 328, 329, 330, 331, 332, 333, 334, 335, 336, 337, 338, 339, 340, 341, 342, 343, 344, 345, 346, 347, 348, 349, 350, 351, 352, 353, 354, 355, 356, 357, 358, 359, 360, 361, 362, 363, 364, 365, 366, 367, 368, 369, 370, 371, 372, 373, 374, 375, 376, 377, 378, 379, 380, 381, 382, 383, 384, 385, 386, 387, 388, 389, 390, 391, 392, 393, 394, 395, 396, 397, 398, 399, 400, 401, 402, 403, 404, 405, 406, 407, 408, 409, 410, 411, 412, 413, 414, 415, 416, 417, 418, 419, 420, 421, 422, 423, 424, 425, 426, 427, 428, 429, 430, 431, 432, 433, 434, 435, 436, 437, 438, 439, 440, 441, 442, 443, 444, 445, 446, 447, 448, 449, 450, 451, 452, 453, 454, 455, 456, 457, 458, 459, 460, 461, 462, 463, 464, 465, 466, 467, 468, 469, 470, 471, 472, 473, 474, 475, 476, 477, 478, 479, 480, 481, 482, 483, 484, 485, 486, 487, 488, 489, 490, 491, 492, 493, 494, 495, 496, 497, 498, 499, 500, 501, 502, 503, 504, 505, 506, 507, 508, 509, 510, 511, 512, 513, 514, 515, 516, 517, 518, 519, 520, 521, 522, 523, 524, 525, 526, 527, 528, 529, 530, 531, 532, 533, 534, 535, 536, 537, 538, 539, 540, 541, 542, 543, 544, 545, 546, 547, 548, 549, 550, 551, 552, 553, 554, 555, 556, 557, 558, 559, 560, 561, 562, 563, 564, 565, 566, 567, 568, 569, 570, 571, 572, 573, 574, 575, 576, 577, 578, 579, 580, 581],
      "AcquisitionTime": ["152934.690000", "152935.477500", "152936.265000", "152937.055000", "152937.842500", "152938.630000", "152939.417500", "152940.207500", "152940.995000", "152941.782500", "152942.570000", "152943.360000", "152944.147500", "152944.935000", "152945.722500", "152946.512500", "152947.300000", "152948.087500", "152948.877500", "152949.665000", "152950.452500", "152951.240000", "152952.030000", "152952.817500", "152953.605000", "152954.392500", "152955.182500", "152955.970000", "152956.757500", "152957.545000", "152958.335000", "152959.122500", "152959.910000", "153000.697500", "153001.487500", "153002.275000", "153003.062500", "153003.850000", "153004.640000", "153005.427500", "153006.215000", "153007.005000", "153007.792500", "153008.580000", "153009.367500", "153010.157500", "153010.945000", "153011.732500", "153012.520000", "153013.310000", "153014.097500", "153014.885000", "153015.672500", "153016.462500", "153017.250000", "153018.037500", "153018.825000", "153019.615000", "153020.402500", "153021.190000", "153021.977500", "153022.767500", "153023.555000", "153024.342500", "153025.132500", "153025.920000", "153026.707500", "153027.495000", "153028.285000", "153029.072500", "153029.860000", "153030.647500", "153031.437500", "153032.225000", "153033.012500", "153033.800000", "153034.590000", "153035.377500", "153036.165000", "153036.952500", "153037.742500", "153038.530000", "153039.317500", "153040.105000", "153040.895000", "153041.682500", "153042.470000", "153043.260000", "153044.047500", "153044.835000", "153045.622500", "153046.412500", "153047.200000", "153047.987500", "153048.775000", "153049.565000", "153050.352500", "153051.140000", "153051.927500", "153052.717500", "153053.505000", "153054.292500", "153055.080000", "153055.870000", "153056.657500", "153057.445000", "153058.232500", "153059.022500", "153059.810000", "153100.597500", "153101.387500", "153102.175000", "153102.962500", "153103.750000", "153104.540000", "153105.327500", "153106.115000", "153106.902500", "153107.692500", "153108.480000", "153109.267500", "153110.055000", "153110.845000", "153111.632500", "153112.420000", "153113.207500", "153113.997500", "153114.785000", "153115.572500", "153116.360000", "153117.150000", "153117.937500", "153118.725000", "153119.515000", "153120.302500", "153121.090000", "153121.877500", "153122.667500", "153123.455000", "153124.242500", "153125.030000", "153125.820000", "153126.607500", "153127.395000", "153128.182500", "153128.972500", "153129.760000", "153130.547500", "153131.335000", "153132.125000", "153132.912500", "153133.700000", "153134.487500", "153135.277500", "153136.065000", "153136.852500", "153137.642500", "153138.430000", "153139.217500", "153140.005000", "153140.795000", "153141.582500", "153142.370000", "153143.157500", "153143.947500", "153144.735000", "153145.522500", "153146.310000", "153147.100000", "153147.887500", "153148.675000", "153149.462500", "153150.252500", "153151.040000", "153151.827500", "153152.615000", "153153.405000", "153154.192500", "153154.980000", "153155.770000", "153156.557500", "153157.345000", "153158.132500", "153158.922500", "153159.710000", "153200.497500", "153201.285000", "153202.075000", "153202.862500", "153203.650000", "153204.437500", "153205.227500", "153206.015000", "153206.802500", "153207.590000", "153208.380000", "153209.167500", "153209.955000", "153210.745000", "153211.532500", "153212.320000", "153213.107500", "153213.897500", "153214.685000", "153215.472500", "153216.260000", "153217.050000", "153217.837500", "153218.625000", "153219.412500", "153220.202500", "153220.990000", "153221.777500", "153222.565000", "153223.355000", "153224.142500", "153224.930000", "153225.717500", "153226.507500", "153227.295000", "153228.082500", "153228.872500", "153229.660000", "153230.447500", "153231.235000", "153232.025000", "153232.812500", "153233.600000", "153234.387500", "153235.177500", "153235.965000", "153236.752500", "153237.540000", "153238.330000", "153239.117500", "153239.905000", "153240.692500", "153241.482500", "153242.270000", "153243.057500", "153243.845000", "153244.635000", "153245.422500", "153246.210000", "153247.000000", "153247.787500", "153248.575000", "153249.362500", "153250.152500", "153250.940000", "153251.727500", "153252.515000", "153253.305000", "153254.092500", "153254.880000", "153255.667500", "153256.457500", "153257.245000", "153258.032500", "153258.820000", "153259.610000", "153300.397500", "153301.185000", "153301.972500", "153302.762500", "153303.550000", "153304.337500", "153305.127500", "153305.915000", "153306.702500", "153307.490000", "153308.280000", "153309.067500", "153309.855000", "153310.642500", "153311.432500", "153312.220000", "153313.007500", "153313.795000", "153314.585000", "153315.372500", "153316.160000", "153316.947500", "153317.737500", "153318.525000", "153319.312500", "153320.100000", "153320.890000", "153321.677500", "153322.465000", "153323.255000", "153324.042500", "153324.830000", "153325.617500", "153326.407500", "153327.195000", "153327.982500", "153328.770000", "153329.560000", "153330.347500", "153331.135000", "153331.922500", "153332.712500", "153333.500000", "153334.287500", "153335.075000", "153335.865000", "153336.652500", "153337.440000", "153338.227500", "153339.017500", "153339.805000", "153340.592500", "153341.382500", "153342.170000", "153342.957500", "153343.745000", "153344.535000", "153345.322500", "153346.110000", "153346.897500", "153347.687500", "153348.475000", "153349.262500", "153350.050000", "153350.840000", "153351.627500", "153352.415000", "153353.202500", "153353.992500", "153354.780000", "153355.567500", "153356.355000", "153357.145000", "153357.932500", "153358.720000", "153359.510000", "153400.297500", "153401.085000", "153401.872500", "153402.662500", "153403.450000", "153404.237500", "153405.025000", "153405.815000", "153406.602500", "153407.390000", "153408.177500", "153408.967500", "153409.755000", "153410.542500", "153411.330000", "153412.120000", "153412.907500", "153413.695000", "153414.482500", "153415.272500", "153416.060000", "153416.847500", "153417.637500", "153418.425000", "153419.212500", "153420.000000", "153420.790000", "153421.577500", "153422.365000", "153423.152500", "153423.942500", "153424.730000", "153425.517500", "153426.305000", "153427.095000", "153427.882500", "153428.670000", "153429.457500", "153430.247500", "153431.035000", "153431.822500", "153432.610000", "153433.400000", "153434.187500", "153434.975000", "153435.765000", "153436.552500", "153437.340000", "153438.127500", "153438.917500", "153439.705000", "153440.492500", "153441.280000", "153442.070000", "153442.857500", "153443.645000", "153444.432500", "153445.222500", "153446.010000", "153446.797500", "153447.585000", "153448.375000", "153449.162500", "153449.950000", "153450.737500", "153451.527500", "153452.315000", "153453.102500", "153453.892500", "153454.680000", "153455.467500", "153456.255000", "153457.045000", "153457.832500", "153458.620000", "153459.407500", "153500.197500", "153500.985000", "153501.772500", "153502.560000", "153503.350000", "153504.137500", "153504.925000", "153505.712500", "153506.502500", "153507.290000", "153508.077500", "153508.865000", "153509.655000", "153510.442500", "153511.230000", "153512.020000", "153512.807500", "153513.595000", "153514.382500", "153515.172500", "153515.960000", "153516.747500", "153517.535000", "153518.325000", "153519.112500", "153519.900000", "153520.687500", "153521.477500", "153522.265000", "153523.052500", "153523.840000", "153524.630000", "153525.417500", "153526.205000", "153526.995000", "153527.782500", "153528.570000", "153529.357500", "153530.147500", "153530.935000", "153531.722500", "153532.510000", "153533.300000", "153534.087500", "153534.875000", "153535.662500", "153536.452500", "153537.240000", "153538.027500", "153538.815000", "153539.605000", "153540.392500", "153541.180000", "153541.967500", "153542.757500", "153543.545000", "153544.332500", "153545.122500", "153545.910000", "153546.697500", "153547.485000", "153548.275000", "153549.062500", "153549.850000", "153550.637500", "153551.427500", "153552.215000", "153553.002500", "153553.790000", "153554.580000", "153555.367500", "153556.155000", "153556.942500", "153557.732500", "153558.520000", "153559.307500", "153600.095000", "153600.885000", "153601.672500", "153602.460000", "153603.250000", "153604.037500", "153604.825000", "153605.612500", "153606.402500", "153607.190000", "153607.977500", "153608.765000", "153609.555000", "153610.342500", "153611.130000", "153611.917500", "153612.707500", "153613.495000", "153614.282500", "153615.070000", "153615.860000", "153616.647500", "153617.435000", "153618.222500", "153619.012500", "153619.800000", "153620.587500", "153621.377500", "153622.165000", "153622.952500", "153623.740000", "153624.530000", "153625.317500", "153626.105000", "153626.892500", "153627.682500", "153628.470000", "153629.257500", "153630.045000", "153630.835000", "153631.622500", "153632.410000", "153633.197500", "153633.987500", "153634.775000", "153635.562500", "153636.350000", "153637.140000", "153637.927500", "153638.715000", "153639.505000", "153640.292500", "153641.080000", "153641.867500", "153642.657500", "153643.445000", "153644.232500", "153645.020000", "153645.810000", "153646.597500", "153647.385000", "153648.172500", "153648.962500", "153649.750000", "153650.537500", "153651.325000", "153652.115000", "153652.902500", "153653.690000", "153654.477500", "153655.267500", "153656.055000", "153656.842500", "153657.632500", "153658.420000", "153659.207500", "153659.995000", "153700.785000", "153701.572500", "153702.360000", "153703.147500", "153703.937500", "153704.725000", "153705.512500", "153706.300000", "153707.090000", "153707.877500", "153708.665000", "153709.452500", "153710.242500", "153711.030000", "153711.817500"],
      "ContentTime": ["153008.640000", "153008.640000", "153008.640000", "153008.640000", "153008.640000", "153008.656000", "153008.656000", "153008.656000", "153008.656000", "153008.656000", "153008.656000", "153008.656000", "153008.656000", "153008.671000", "153008.671000", "153008.671000", "153008.671000", "153008.671000", "153008.671000", "153008.671000", "153008.687000", "153008.687000", "153008.687000", "153008.687000", "153008.687000", "153008.687000", "153008.687000", "153008.703000", "153008.703000", "153008.703000", "153008.703000", "153008.703000", "153008.703000", "153008.703000", "153008.703000", "153008.718000", "153008.718000", "153008.718000", "153008.718000", "153008.718000", "153008.718000", "153028.609000", "153028.609000", "153028.609000", "153028.609000", "153028.625000", "153028.625000", "153028.625000", "153028.625000", "153028.625000", "153028.625000", "153028.625000", "153028.625000", "153028.640000", "153028.640000", "153028.640000", "153028.640000", "153028.640000", "153028.640000", "153028.640000", "153028.656000", "153028.656000", "153028.656000", "153028.656000", "153028.656000", "153028.656000", "153048.609000", "153048.609000", "153048.609000", "153048.609000", "153048.625000", "153048.625000", "153048.625000", "153048.625000", "153048.625000", "153048.625000", "153048.625000", "153048.640000", "153048.640000", "153048.640000", "153048.640000", "153048.640000", "153048.640000", "153048.640000", "153048.640000", "153048.656000", "153048.656000", "153048.656000", "153048.656000", "153048.656000", "153048.656000", "153048.656000", "153108.609000", "153108.609000", "153108.609000", "153108.609000", "153108.625000", "153108.625000", "153108.625000", "153108.625000", "153108.625000", "153108.625000", "153108.625000", "153108.640000", "153108.640000", "153108.640000", "153108.640000", "153108.640000", "153108.640000", "153108.640000", "153108.656000", "153108.656000", "153108.656000", "153108.656000", "153108.656000", "153108.656000", "153108.656000", "153128.609000", "153128.609000", "153128.609000", "153128.625000", "153128.625000", "153128.625000", "153128.625000", "153128.625000", "153128.625000", "153128.640000", "153128.640000", "153128.640000", "153128.640000", "153128.640000", "153128.640000", "153128.640000", "153128.640000", "153128.656000", "153128.656000", "153128.656000", "153128.656000", "153128.656000", "153128.656000", "153128.656000", "153128.656000", "153128.671000", "153148.609000", "153148.609000", "153148.609000", "153148.609000", "153148.625000", "153148.625000", "153148.625000", "153148.625000", "153148.625000", "153148.625000", "153148.625000", "153148.640000", "153148.640000", "153148.640000", "153148.640000", "153148.640000", "153148.640000", "153148.640000", "153148.640000", "153148.656000", "153148.656000", "153148.656000", "153148.656000", "153148.656000", "153148.656000", "153208.609000", "153208.609000", "153208.609000", "153208.609000", "153208.625000", "153208.625000", "153208.625000", "153208.625000", "153208.625000", "153208.625000", "153208.625000", "153208.625000", "153208.640000", "153208.640000", "153208.640000", "153208.640000", "153208.640000", "153208.640000", "153208.640000", "153208.656000", "153208.656000", "153208.656000", "153208.656000", "153208.656000", "153208.656000", "153208.671000", "153228.609000", "153228.609000", "153228.609000", "153228.609000", "153228.625000", "153228.625000", "153228.625000", "153228.625000", "153228.625000", "153228.625000", "153228.625000", "153228.640000", "153228.640000", "153228.640000", "153228.640000", "153228.640000", "153228.640000", "153228.640000", "153228.656000", "153228.656000", "153228.656000", "153228.656000", "153228.656000", "153228.656000", "153228.656000", "153248.609000", "153248.609000", "153248.609000", "153248.625000", "153248.625000", "153248.640000", "153248.640000", "153248.640000", "153248.640000", "153248.640000", "153248.640000", "153248.656000", "153248.656000", "153248.656000", "153248.656000", "153248.656000", "153248.656000", "153248.671000", "153248.671000", "153248.671000", "153248.671000", "153248.671000", "153248.671000", "153248.687000", "153248.687000", "153308.609000", "153308.609000", "153308.609000", "153308.609000", "153308.625000", "153308.625000", "153308.625000", "153308.625000", "153308.625000", "153308.625000", "153308.625000", "153308.625000", "153308.640000", "153308.640000", "153308.640000", "153308.640000", "153308.640000", "153308.640000", "153308.640000", "153308.656000", "153308.656000", "153308.656000", "153308.656000", "153308.656000", "153308.656000", "153308.656000", "153328.609000", "153328.609000", "153328.609000", "153328.609000", "153328.625000", "153328.625000", "153328.625000", "153328.625000", "153328.625000", "153328.625000", "153328.640000", "153328.640000", "153328.640000", "153328.640000", "153328.640000", "153328.640000", "153328.640000", "153328.656000", "153328.656000", "153328.656000", "153328.656000", "153328.656000", "153328.656000", "153328.671000", "153328.671000", "153348.609000", "153348.609000", "153348.609000", "153348.609000", "153348.625000", "153348.625000", "153348.625000", "153348.625000", "153348.625000", "153348.625000", "153348.625000", "153348.640000", "153348.640000", "153348.640000", "153348.640000", "153348.640000", "153348.640000", "153348.640000", "153348.640000", "153348.656000", "153348.656000", "153348.656000", "153348.656000", "153348.656000", "153348.656000", "153348.656000", "153408.609000", "153408.609000", "153408.609000", "153408.609000", "153408.625000", "153408.625000", "153408.625000", "153408.625000", "153408.625000", "153408.625000", "153408.625000", "153408.640000", "153408.640000", "153408.640000", "153408.640000", "153408.640000", "153408.640000", "153408.640000", "153408.640000", "153408.656000", "153408.656000", "153408.656000", "153408.656000", "153408.656000", "153408.656000", "153428.609000", "153428.609000", "153428.609000", "153428.609000", "153428.625000", "153428.625000", "153428.625000", "153428.625000", "153428.625000", "153428.625000", "153428.625000", "153428.640000", "153428.640000", "153428.640000", "153428.640000", "153428.640000", "153428.640000", "153428.640000", "153428.656000", "153428.656000", "153428.656000", "153428.656000", "153428.656000", "153428.656000", "153428.656000", "153428.656000", "153448.609000", "153448.609000", "153448.609000", "153448.609000", "153448.625000", "153448.625000", "153448.625000", "153448.625000", "153448.625000", "153448.625000", "153448.625000", "153448.640000", "153448.640000", "153448.640000", "153448.640000", "153448.640000", "153448.640000", "153448.640000", "153448.640000", "153448.656000", "153448.656000", "153448.656000", "153448.656000", "153448.656000", "153448.656000", "153508.609000", "153508.609000", "153508.609000", "153508.609000", "153508.625000", "153508.625000", "153508.625000", "153508.625000", "153508.625000", "153508.625000", "153508.625000", "153508.640000", "153508.640000", "153508.640000", "153508.640000", "153508.640000", "153508.640000", "153508.640000", "153508.640000", "153508.656000", "153508.656000", "153508.656000", "153508.656000", "153508.656000", "153508.656000", "153508.656000", "153528.609000", "153528.609000", "153528.609000", "153528.609000", "153528.625000", "153528.625000", "153528.625000", "153528.625000", "153528.625000", "153528.625000", "153528.625000", "153528.625000", "153528.640000", "153528.640000", "153528.640000", "153528.640000", "153528.640000", "153528.640000", "153528.640000", "153528.656000", "153528.656000", "153528.656000", "153528.656000", "153528.656000", "153528.656000", "153548.609000", "153548.609000", "153548.609000", "153548.609000", "153548.625000", "153548.625000", "153548.625000", "153548.625000", "153548.625000", "153548.625000", "153548.625000", "153548.625000", "153548.640000", "153548.640000", "153548.640000", "153548.640000", "153548.640000", "153548.640000", "153548.640000", "153548.656000", "153548.656000", "153548.656000", "153548.656000", "153548.656000", "153548.656000", "153548.656000", "153608.609000", "153608.609000", "153608.609000", "153608.609000", "153608.625000", "153608.625000", "153608.625000", "153608.625000", "153608.625000", "153608.625000", "153608.625000", "153608.625000", "153608.640000", "153608.640000", "153608.640000", "153608.640000", "153608.640000", "153608.640000", "153608.640000", "153608.656000", "153608.656000", "153608.656000", "153608.656000", "153608.656000", "153608.656000", "153628.609000", "153628.609000", "153628.609000", "153628.609000", "153628.625000", "153628.625000", "153628.625000", "153628.625000", "153628.625000", "153628.625000", "153628.625000", "153628.640000", "153628.640000", "153628.640000", "153628.640000", "153628.640000", "153628.640000", "153628.656000", "153628.656000", "153628.656000", "153628.656000", "153628.656000", "153628.656000", "153628.671000", "153628.671000", "153628.671000", "153648.609000", "153648.609000", "153648.609000", "153648.609000", "153648.625000", "153648.625000", "153648.625000", "153648.625000", "153648.625000", "153648.625000", "153648.625000", "153648.640000", "153648.640000", "153648.640000", "153648.640000", "153648.640000", "153648.640000", "153648.640000", "153648.656000", "153648.656000", "153648.656000", "153648.656000", "153648.656000", "153648.656000", "153648.656000", "153708.609000", "153708.609000", "153708.609000", "153708.609000", "153708.625000", "153708.625000", "153708.625000", "153708.625000", "153708.625000", "153708.625000", "153708.625000", "153708.625000", "153708.640000", "153708.640000", "153708.640000", "153708.640000", "153708.640000", "153708.640000", "153708.640000", "153708.656000", "153708.656000", "153708.656000", "153708.656000", "153708.656000", "153708.656000", "153708.656000", "153712.468000", "153712.468000", "153712.468000", "153712.468000", "153712.468000"],
