{
  "AcquisitionMatrixPE": 104,
  "AcquisitionNumber": 1,
  "AcquisitionTime": "12:13:1.740000",
  "BandwidthPerPixelPhaseEncode": 13.935,
  "BaseResolution": 104,
  "CoilString": "C:HEA;HEP",
  "ConversionSoftware": "dcm2niix",
  "ConversionSoftwareVersion": "v1.0.20210317",
  "DerivedVendorReportedEchoSpacing": 0.000690017,
  "DeviceSerialNumber": "35450",
  "DwellTime": 2.5e-06,
  "EchoTime": 0.0348,
  "EffectiveEchoSpacing": 0.000690017,
  "FlipAngle": 55,
  "ImageComments": "Unaliased MB8/PE3 (remote)",
  "ImageOrientationPatientDICOM": [0.999976, 0.00101987, 0.00690637, -2.74823e-08, 0.989272, -0.146083],
  "ImageType": [
    "ORIGINAL",
    "PRIMARY",
    "M",
    "MB",
    "ND",
    "MOSAIC"
],
  "ImagingFrequency": 123.234,
  "InPlanePhaseEncodingDirectionDICOM": "COL",
  "InstitutionAddress": "Univeristy Ave. 197,Newark,North East,US,07102-1814",
  "InstitutionName": "RUBIC",
  "InstitutionalDepartmentName": "Department",
  "MRAcquisitionType": "2D",
  "MagneticFieldStrength": 3,
  "Manufacturer": "Siemens",
  "ManufacturersModelName": "TrioTim",
  "Modality": "MR",
  "MultibandAccelerationFactor": 8,
  "PartialFourier": 0.875,
  "PatientPosition": "HFS",
  "PercentPhaseFOV": 100,
  "PercentSampling": 100,
  "PhaseEncodingDirection": "j-",
  "PhaseEncodingSteps": 91,
  "PhaseResolution": 1,
  "PixelBandwidth": 1923,
  "ProcedureStepDescription": "Cole^Michael",
  "ProtocolName": "cmrr_mbep2d_bold_2mm_MB8_Task_8x",
  "PulseSequenceDetails": "%CustomerSeq%\\cmrr_mbep2d_bold",
  "ReceiveCoilName": "32Ch_Head",
  "ReconMatrixPE": 104,
  "RepetitionTime": 0.785,
  "SAR": 0.135223,
  "ScanOptions": "PFP\\FS",
  "ScanningSequence": "EP",
  "SequenceName": "epfid2d1_104",
  "SequenceVariant": "SK\\SS",
  "SeriesDescription": "cmrr_mbep2d_bold_2mm_MB8_Task_8x",
  "SeriesNumber": 23,
  "ShimSetting": [2138, -319, -7303, 376, -24, -346, 458, 95],
  "SliceThickness": 2,
  "SliceTiming": [0, 0.4375, 0.0875, 0.525, 0.175, 0.6125, 0.2625, 0.7, 0.35, 0, 0.4375, 0.0875, 0.525, 0.175, 0.6125, 0.2625, 0.7, 0.35, 0, 0.4375, 0.0875, 0.525, 0.175, 0.6125, 0.2625, 0.7, 0.35, 0, 0.4375, 0.0875, 0.525, 0.175, 0.6125, 0.2625, 0.7, 0.35, 0, 0.4375, 0.0875, 0.525, 0.175, 0.6125, 0.2625, 0.7, 0.35, 0, 0.4375, 0.0875, 0.525, 0.175, 0.6125, 0.2625, 0.7, 0.35, 0, 0.4375, 0.0875, 0.525, 0.175, 0.6125, 0.2625, 0.7, 0.35, 0, 0.4375, 0.0875, 0.525, 0.175, 0.6125, 0.2625, 0.7, 0.35],
  "SoftwareVersions": "syngo MR B19",
  "SpacingBetweenSlices": 2,
  "StationName": "MRC35450",
  "TaskName": "cpro",
  "TotalReadoutTime": 0.0710717,
  "TxRefAmp": 325.926,
  "dcmmeta_affine": [
    [-1.9999512434005737, -5.4964669260471055e-08, 0.013962523080408573, 106.21366119384766],
    [-0.0020397421903908253, 1.9785447120666504, -0.29215893149375916, -78.93701934814453],
    [0.013812730088829994, 0.2921660542488098, 1.9784964323043823, -111.5962905883789],
    [0.0, 0.0, 0.0, 1.0]
],
  "dcmmeta_reorient_transform": [
    [0.0, -1.0, 0.0, 103.0],
    [1.0, 0.0, 0.0, 0.0],
    [0.0, 0.0, 1.0, 0.0],
    [0.0, 0.0, 0.0, 1.0]
],
  "dcmmeta_shape": [104, 104, 72, 581],
  "dcmmeta_slice_dim": 2,
  "dcmmeta_version": 0.6,
  "global": {
    "const": {
      "AcquisitionMatrix": [104, 0, 0, 104],
      "AngioFlag": "N",
      "BitsAllocated": 16,
      "BitsStored": 12,
      "Columns": 936,
      "EchoNumbers": 1,
      "EchoTime": 34.8,
      "EchoTrainLength": 1,
      "FlipAngle": 55.0,
      "HighBit": 11,
      "ImageOrientationPatient": [0.99997563069392, 0.00101987108373, 0.00690636527248, -2.7482335e-08, 0.98927233276856, -0.1460830298791],
      "ImagePositionPatient": [-938.19335971255, -948.77619659236, 34.291796121114],
      "ImageType": [
        "ORIGINAL",
        "PRIMARY",
        "M",
        "MB",
        "ND",
        "MOSAIC"
],
      "ImagedNucleus": "1H",
      "ImagingFrequency": 123.234478,
      "InPlanePhaseEncodingDirection": "COL",
      "MRAcquisitionType": "2D",
      "MagneticFieldStrength": 3.0,
      "Manufacturer": "SIEMENS",
      "ManufacturerModelName": "TrioTim",
      "Modality": "MR",
      "NumberOfAverages": 1.0,
      "NumberOfPhaseEncodingSteps": 91,
      "PercentPhaseFieldOfView": 100.0,
      "PercentSampling": 100.0,
      "PerformedProcedureStepStartTime": "104215.703000",
      "PhotometricInterpretation": "MONOCHROME2",
      "PixelBandwidth": 1923.0,
      "PixelRepresentation": 0,
      "PixelSpacing": [2.0, 2.0],
      "ProtocolName": "cmrr_mbep2d_bold_2mm_MB8_Task_8x",
      "RepetitionTime": 785.0,
      "Rows": 936,
      "SAR": 0.13522307380642,
      "SamplesPerPixel": 1,
      "ScanOptions": [
        "PFP",
        "FS"
],
      "ScanningSequence": "EP",
      "SequenceName": "epfid2d1_104",
      "SequenceVariant": [
        "SK",
        "SS"
],
      "SeriesDescription": "cmrr_mbep2d_bold_2mm_MB8_Task_8x",
      "SeriesNumber": 23,
      "SeriesTime": "121332.703000",
      "SliceLocation": -98.123851668551,
      "SliceThickness": 2.0,
      "SmallestImagePixelValue": 0,
      "SoftwareVersions": "syngo MR B19",
      "SpacingBetweenSlices": 1.9999999406198,
      "SpecificCharacterSet": "ISO_IR 100",
      "StudyID": "1",
      "StudyTime": "104215.609000",
      "TransmitCoilName": "Body",
      "VariableFlipAngleFlag": "N",
      "WindowCenterWidthExplanation": "Algo1",
      "dBdt": 0.0},
    "slices": {}
  },
  "time": {
    "samples": {
      "AcquisitionNumber": [1, 2, 3, 4, 5, 6, 7, 8, 9, 10, 11, 12, 13, 14, 15, 16, 17, 18, 19, 20, 21, 22, 23, 24, 25, 26, 27, 28, 29, 30, 31, 32, 33, 34, 35, 36, 37, 38, 39, 40, 41, 42, 43, 44, 45, 46, 47, 48, 49, 50, 51, 52, 53, 54, 55, 56, 57, 58, 59, 60, 61, 62, 63, 64, 65, 66, 67, 68, 69, 70, 71, 72, 73, 74, 75, 76, 77, 78, 79, 80, 81, 82, 83, 84, 85, 86, 87, 88, 89, 90, 91, 92, 93, 94, 95, 96, 97, 98, 99, 100, 101, 102, 103, 104, 105, 106, 107, 108, 109, 110, 111, 112, 113, 114, 115, 116, 117, 118, 119, 120, 121, 122, 123, 124, 125, 126, 127, 128, 129, 130, 131, 132, 133, 134, 135, 136, 137, 138, 139, 140, 141, 142, 143, 144, 145, 146, 147, 148, 149, 150, 151, 152, 153, 154, 155, 156, 157, 158, 159, 160, 161, 162, 163, 164, 165, 166, 167, 168, 169, 170, 171, 172, 173, 174, 175, 176, 177, 178, 179, 180, 181, 182, 183, 184, 185, 186, 187, 188, 189, 190, 191, 192, 193, 194, 195, 196, 197, 198, 199, 200, 201, 202, 203, 204, 205, 206, 207, 208, 209, 210, 211, 212, 213, 214, 215, 216, 217, 218, 219, 220, 221, 222, 223, 224, 225, 226, 227, 228, 229, 230, 231, 232, 233, 234, 235, 236, 237, 238, 239, 240, 241, 242, 243, 244, 245, 246, 247, 248, 249, 250, 251, 252, 253, 254, 255, 256, 257, 258, 259, 260, 261, 262, 263, 264, 265, 266, 267, 268, 269, 270, 271, 272, 273, 274, 275, 276, 277, 278, 279, 280, 281, 282, 283, 284, 285, 286, 287, 288, 289, 290, 291, 292, 293, 294, 295, 296, 297, 298, 299, 300, 301, 302, 303, 304, 305, 306, 307, 308, 309, 310, 311, 312, 313, 314, 315, 316, 317, 318, 319, 320, 321, 322, 323, 324, 325, 326, 327, 328, 329, 330, 331, 332, 333, 334, 335, 336, 337, 338, 339, 340, 341, 342, 343, 344, 345, 346, 347, 348, 349, 350, 351, 352, 353, 354, 355, 356, 357, 358, 359, 360, 361, 362, 363, 364, 365, 366, 367, 368, 369, 370, 371, 372, 373, 374, 375, 376, 377, 378, 379, 380, 381, 382, 383, 384, 385, 386, 387, 388, 389, 390, 391, 392, 393, 394, 395, 396, 397, 398, 399, 400, 401, 402, 403, 404, 405, 406, 407, 408, 409, 410, 411, 412, 413, 414, 415, 416, 417, 418, 419, 420, 421, 422, 423, 424, 425, 426, 427, 428, 429, 430, 431, 432, 433, 434, 435, 436, 437, 438, 439, 440, 441, 442, 443, 444, 445, 446, 447, 448, 449, 450, 451, 452, 453, 454, 455, 456, 457, 458, 459, 460, 461, 462, 463, 464, 465, 466, 467, 468, 469, 470, 471, 472, 473, 474, 475, 476, 477, 478, 479, 480, 481, 482, 483, 484, 485, 486, 487, 488, 489, 490, 491, 492, 493, 494, 495, 496, 497, 498, 499, 500, 501, 502, 503, 504, 505, 506, 507, 508, 509, 510, 511, 512, 513, 514, 515, 516, 517, 518, 519, 520, 521, 522, 523, 524, 525, 526, 527, 528, 529, 530, 531, 532, 533, 534, 535, 536, 537, 538, 539, 540, 541, 542, 543, 544, 545, 546, 547, 548, 549, 550, 551, 552, 553, 554, 555, 556, 557, 558, 559, 560, 561, 562, 563, 564, 565, 566, 567, 568, 569, 570, 571, 572, 573, 574, 575, 576, 577, 578, 579, 580, 581],
      "AcquisitionTime": ["121301.740000", "121302.527500", "121303.317500", "121304.105000", "121304.892500", "121305.680000", "121306.470000", "121307.257500", "121308.045000", "121308.832500", "121309.622500", "121310.410000", "121311.197500", "121311.985000", "121312.775000", "121313.562500", "121314.350000", "121315.137500", "121315.927500", "121316.715000", "121317.502500", "121318.292500", "121319.080000", "121319.867500", "121320.655000", "121321.445000", "121322.232500", "121323.020000", "121323.807500", "121324.597500", "121325.385000", "121326.172500", "121326.960000", "121327.750000", "121328.537500", "121329.325000", "121330.112500", "121330.902500", "121331.690000", "121332.477500", "121333.267500", "121334.055000", "121334.842500", "121335.630000", "121336.420000", "121337.207500", "121337.995000", "121338.782500", "121339.572500", "121340.360000", "121341.147500", "121341.935000", "121342.725000", "121343.512500", "121344.300000", "121345.087500", "121345.877500", "121346.665000", "121347.452500", "121348.240000", "121349.030000", "121349.817500", "121350.605000", "121351.395000", "121352.182500", "121352.970000", "121353.757500", "121354.547500", "121355.335000", "121356.122500", "121356.910000", "121357.700000", "121358.487500", "121359.275000", "121400.062500", "121400.852500", "121401.640000", "121402.427500", "121403.215000", "121404.005000", "121404.792500", "121405.580000", "121406.367500", "121407.157500", "121407.945000", "121408.732500", "121409.522500", "121410.310000", "121411.097500", "121411.885000", "121412.675000", "121413.462500", "121414.250000", "121415.037500", "121415.827500", "121416.615000", "121417.402500", "121418.190000", "121418.980000", "121419.767500", "121420.555000", "121421.342500", "121422.132500", "121422.920000", "121423.707500", "121424.495000", "121425.285000", "121426.072500", "121426.860000", "121427.650000", "121428.437500", "121429.225000", "121430.012500", "121430.802500", "121431.590000", "121432.377500", "121433.165000", "121433.955000", "121434.742500", "121435.530000", "121436.317500", "121437.107500", "121437.895000", "121438.682500", "121439.470000", "121440.260000", "121441.047500", "121441.835000", "121442.622500", "121443.412500", "121444.200000", "121444.987500", "121445.777500", "121446.565000", "121447.352500", "121448.140000", "121448.930000", "121449.717500", "121450.505000", "121451.292500", "121452.082500", "121452.870000", "121453.657500", "121454.445000", "121455.235000", "121456.022500", "121456.810000", "121457.597500", "121458.387500", "121459.175000", "121459.962500", "121500.750000", "121501.540000", "121502.327500", "121503.115000", "121503.905000", "121504.692500", "121505.480000", "121506.267500", "121507.057500", "121507.845000", "121508.632500", "121509.420000", "121510.210000", "121510.997500", "121511.785000", "121512.572500", "121513.362500", "121514.150000", "121514.937500", "121515.725000", "121516.515000", "121517.302500", "121518.090000", "121518.877500", "121519.667500", "121520.455000", "121521.242500", "121522.032500", "121522.820000", "121523.607500", "121524.395000", "121525.185000", "121525.972500", "121526.760000", "121527.547500", "121528.337500", "121529.125000", "121529.912500", "121530.700000", "121531.490000", "121532.277500", "121533.065000", "121533.852500", "121534.642500", "121535.430000", "121536.217500", "121537.005000", "121537.795000", "121538.582500", "121539.370000", "121540.160000", "121540.947500", "121541.735000", "121542.522500", "121543.312500", "121544.100000", "121544.887500", "121545.675000", "121546.465000", "121547.252500", "121548.040000", "121548.827500", "121549.617500", "121550.405000", "121551.192500", "121551.980000", "121552.770000", "121553.557500", "121554.345000", "121555.132500", "121555.922500", "121556.710000", "121557.497500", "121558.287500", "121559.075000", "121559.862500", "121600.650000", "121601.440000", "121602.227500", "121603.015000", "121603.802500", "121604.592500", "121605.380000", "121606.167500", "121606.955000", "121607.745000", "121608.532500", "121609.320000", "121610.107500", "121610.897500", "121611.685000", "121612.472500", "121613.260000", "121614.050000", "121614.837500", "121615.625000", "121616.415000", "121617.202500", "121617.990000", "121618.777500", "121619.567500", "121620.355000", "121621.142500", "121621.930000", "121622.720000", "121623.507500", "121624.295000", "121625.082500", "121625.872500", "121626.660000", "121627.447500", "121628.235000", "121629.025000", "121629.812500", "121630.600000", "121631.387500", "121632.177500", "121632.965000", "121633.752500", "121634.542500", "121635.330000", "121636.117500", "121636.905000", "121637.695000", "121638.482500", "121639.270000", "121640.057500", "121640.847500", "121641.635000", "121642.422500", "121643.210000", "121644.000000", "121644.787500", "121645.575000", "121646.362500", "121647.152500", "121647.940000", "121648.727500", "121649.517500", "121650.305000", "121651.092500", "121651.880000", "121652.670000", "121653.457500", "121654.245000", "121655.032500", "121655.822500", "121656.610000", "121657.397500", "121658.185000", "121658.975000", "121659.762500", "121700.550000", "121701.337500", "121702.127500", "121702.915000", "121703.702500", "121704.490000", "121705.280000", "121706.067500", "121706.855000", "121707.645000", "121708.432500", "121709.220000", "121710.007500", "121710.797500", "121711.585000", "121712.372500", "121713.160000", "121713.950000", "121714.737500", "121715.525000", "121716.312500", "121717.102500", "121717.890000", "121718.677500", "121719.465000", "121720.255000", "121721.042500", "121721.830000", "121722.617500", "121723.407500", "121724.195000", "121724.982500", "121725.772500", "121726.560000", "121727.347500", "121728.135000", "121728.925000", "121729.712500", "121730.500000", "121731.287500", "121732.077500", "121732.865000", "121733.652500", "121734.440000", "121735.230000", "121736.017500", "121736.805000", "121737.592500", "121738.382500", "121739.170000", "121739.957500", "121740.745000", "121741.535000", "121742.322500", "121743.110000", "121743.900000", "121744.687500", "121745.475000", "121746.262500", "121747.052500", "121747.840000", "121748.627500", "121749.415000", "121750.205000", "121750.992500", "121751.780000", "121752.567500", "121753.357500", "121754.145000", "121754.932500", "121755.720000", "121756.510000", "121757.297500", "121758.085000", "121758.872500", "121759.662500", "121800.450000", "121801.237500", "121802.027500", "121802.815000", "121803.602500", "121804.390000", "121805.180000", "121805.967500", "121806.755000", "121807.542500", "121808.332500", "121809.120000", "121809.907500", "121810.695000", "121811.485000", "121812.272500", "121813.060000", "121813.847500", "121814.637500", "121815.425000", "121816.212500", "121817.000000", "121817.790000", "121818.577500", "121819.365000", "121820.155000", "121820.942500", "121821.730000", "121822.517500", "121823.307500", "121824.095000", "121824.882500", "121825.670000", "121826.460000", "121827.247500", "121828.035000", "121828.822500", "121829.612500", "121830.400000", "121831.187500", "121831.975000", "121832.765000", "121833.552500", "121834.340000", "121835.127500", "121835.917500", "121836.705000", "121837.492500", "121838.282500", "121839.070000", "121839.857500", "121840.645000", "121841.435000", "121842.222500", "121843.010000", "121843.797500", "121844.587500", "121845.375000", "121846.162500", "121846.950000", "121847.740000", "121848.527500", "121849.315000", "121850.102500", "121850.892500", "121851.680000", "121852.467500", "121853.255000", "121854.045000", "121854.832500", "121855.620000", "121856.410000", "121857.197500", "121857.985000", "121858.772500", "121859.562500", "121900.350000", "121901.137500", "121901.925000", "121902.715000", "121903.502500", "121904.290000", "121905.077500", "121905.867500", "121906.655000", "121907.442500", "121908.230000", "121909.020000", "121909.807500", "121910.595000", "121911.382500", "121912.172500", "121912.960000", "121913.747500", "121914.537500", "121915.325000", "121916.112500", "121916.900000", "121917.690000", "121918.477500", "121919.265000", "121920.052500", "121920.842500", "121921.630000", "121922.417500", "121923.205000", "121923.995000", "121924.782500", "121925.570000", "121926.357500", "121927.147500", "121927.935000", "121928.722500", "121929.510000", "121930.300000", "121931.087500", "121931.875000", "121932.665000", "121933.452500", "121934.240000", "121935.027500", "121935.817500", "121936.605000", "121937.392500", "121938.180000", "121938.970000", "121939.757500", "121940.545000", "121941.332500", "121942.122500", "121942.910000", "121943.697500", "121944.485000", "121945.275000", "121946.062500", "121946.850000", "121947.637500", "121948.427500", "121949.215000", "121950.002500", "121950.792500", "121951.580000", "121952.367500", "121953.155000", "121953.945000", "121954.732500", "121955.520000", "121956.307500", "121957.097500", "121957.885000", "121958.672500", "121959.460000", "122000.250000", "122001.037500", "122001.825000", "122002.612500", "122003.402500", "122004.190000", "122004.977500", "122005.767500", "122006.555000", "122007.342500", "122008.130000", "122008.920000", "122009.707500", "122010.495000", "122011.282500", "122012.072500", "122012.860000", "122013.647500", "122014.435000", "122015.225000", "122016.012500", "122016.800000", "122017.587500", "122018.377500", "122019.165000", "122019.952500", "122020.740000", "122021.530000", "122022.317500", "122023.105000", "122023.895000", "122024.682500", "122025.470000", "122026.257500", "122027.047500", "122027.835000", "122028.622500", "122029.410000", "122030.200000", "122030.987500", "122031.775000", "122032.562500", "122033.352500", "122034.140000", "122034.927500", "122035.715000", "122036.505000", "122037.292500", "122038.080000", "122038.867500"],
      "ContentTime": ["121332.703000", "121332.703000", "121332.703000", "121332.703000", "121332.703000", "121332.718000", "121332.718000", "121332.718000", "121332.718000", "121332.718000", "121332.718000", "121332.718000", "121332.734000", "121332.734000", "121332.734000", "121332.734000", "121332.734000", "121332.734000", "121332.734000", "121332.734000", "121332.750000", "121332.750000", "121332.750000", "121332.750000", "121332.750000", "121332.750000", "121332.750000", "121332.765000", "121332.765000", "121332.765000", "121332.765000", "121332.765000", "121332.765000", "121332.765000", "121332.765000", "121332.781000", "121352.671000", "121352.671000", "121352.671000", "121352.671000", "121352.687000", "121352.687000", "121352.687000", "121352.687000", "121352.687000", "121352.687000", "121352.687000", "121352.703000", "121352.703000", "121352.703000", "121352.703000", "121352.703000", "121352.703000", "121352.703000", "121352.718000", "121352.718000", "121352.718000", "121352.718000", "121352.718000", "121352.718000", "121352.718000", "121412.671000", "121412.671000", "121412.671000", "121412.671000", "121412.687000", "121412.687000", "121412.687000", "121412.687000", "121412.687000", "121412.687000", "121412.687000", "121412.703000", "121412.703000", "121412.703000", "121412.703000", "121412.703000", "121412.703000", "121412.703000", "121412.718000", "121412.718000", "121412.718000", "121412.718000", "121412.718000", "121412.718000", "121412.718000", "121412.718000", "121432.671000", "121432.671000", "121432.671000", "121432.671000", "121432.687000", "121432.687000", "121432.687000", "121432.687000", "121432.687000", "121432.687000", "121432.703000", "121432.703000", "121432.703000", "121432.703000", "121432.703000", "121432.703000", "121432.703000", "121432.703000", "121432.718000", "121432.718000", "121432.718000", "121432.718000", "121432.718000", "121432.718000", "121432.718000", "121452.671000", "121452.671000", "121452.671000", "121452.671000", "121452.687000", "121452.687000", "121452.687000", "121452.687000", "121452.687000", "121452.687000", "121452.687000", "121452.703000", "121452.703000", "121452.703000", "121452.703000", "121452.703000", "121452.703000", "121452.703000", "121452.718000", "121452.718000", "121452.718000", "121452.718000", "121452.718000", "121452.718000", "121452.718000", "121452.718000", "121512.671000", "121512.671000", "121512.671000", "121512.687000", "121512.687000", "121512.687000", "121512.687000", "121512.687000", "121512.687000", "121512.687000", "121512.703000", "121512.703000", "121512.703000", "121512.703000", "121512.703000", "121512.703000", "121512.703000", "121512.703000", "121512.718000", "121512.718000", "121512.718000", "121512.718000", "121512.718000", "121512.718000", "121512.718000", "121532.671000", "121532.671000", "121532.671000", "121532.687000", "121532.687000", "121532.687000", "121532.687000", "121532.687000", "121532.687000", "121532.687000", "121532.687000", "121532.703000", "121532.703000", "121532.703000", "121532.703000", "121532.703000", "121532.703000", "121532.718000", "121532.718000", "121532.718000", "121532.718000", "121532.718000", "121532.718000", "121532.718000", "121532.734000", "121552.671000", "121552.671000", "121552.671000", "121552.671000", "121552.687000", "121552.687000", "121552.687000", "121552.687000", "121552.687000", "121552.687000", "121552.687000", "121552.703000", "121552.703000", "121552.703000", "121552.703000", "121552.703000", "121552.703000", "121552.703000", "121552.718000", "121552.718000", "121552.718000", "121552.718000", "121552.718000", "121552.718000", "121552.718000", "121552.718000", "121612.671000", "121612.671000", "121612.671000", "121612.687000", "121612.687000", "121612.687000", "121612.687000", "121612.687000", "121612.687000", "121612.687000", "121612.687000", "121612.703000", "121612.703000", "121612.703000", "121612.703000", "121612.703000", "121612.703000", "121612.703000", "121612.718000", "121612.718000", "121612.718000", "121612.718000", "121612.718000", "121612.718000", "121612.718000", "121632.671000", "121632.687000", "121632.687000", "121632.687000", "121632.687000", "121632.687000", "121632.687000", "121632.687000", "121632.687000", "121632.703000", "121632.703000", "121632.703000", "121632.703000", "121632.703000", "121632.703000", "121632.703000", "121632.703000", "121632.718000", "121632.718000", "121632.718000", "121632.718000", "121632.718000", "121632.718000", "121632.718000", "121632.734000", "121632.734000", "121652.671000", "121652.671000", "121652.671000", "121652.687000", "121652.687000", "121652.687000", "121652.687000", "121652.687000", "121652.687000", "121652.687000", "121652.687000", "121652.703000", "121652.703000", "121652.703000", "121652.703000", "121652.718000", "121652.718000", "121652.718000", "121652.718000", "121652.718000", "121652.718000", "121652.718000", "121652.734000", "121652.734000", "121652.734000", "121712.671000", "121712.671000", "121712.671000", "121712.671000", "121712.687000", "121712.687000", "121712.687000", "121712.687000", "121712.687000", "121712.687000", "121712.687000", "121712.703000", "121712.703000", "121712.703000", "121712.703000", "121712.703000", "121712.703000", "121712.703000", "121712.703000", "121712.718000", "121712.718000", "121712.718000", "121712.718000", "121712.718000", "121712.718000", "121712.734000", "121732.671000", "121732.671000", "121732.671000", "121732.671000", "121732.687000", "121732.687000", "121732.687000", "121732.687000", "121732.687000", "121732.687000", "121732.687000", "121732.703000", "121732.703000", "121732.703000", "121732.703000", "121732.703000", "121732.703000", "121732.703000", "121732.718000", "121732.718000", "121732.718000", "121732.718000", "121732.718000", "121732.718000", "121732.718000", "121752.671000", "121752.671000", "121752.671000", "121752.687000", "121752.687000", "121752.687000", "121752.687000", "121752.687000", "121752.703000", "121752.703000", "121752.703000", "121752.703000", "121752.703000", "121752.718000", "121752.718000", "121752.718000", "121752.718000", "121752.718000", "121752.718000", "121752.718000", "121752.734000", "121752.734000", "121752.734000", "121752.734000", "121752.734000", "121752.734000", "121812.671000", "121812.671000", "121812.671000", "121812.687000", "121812.687000", "121812.687000", "121812.687000", "121812.687000", "121812.687000", "121812.687000", "121812.687000", "121812.703000", "121812.703000", "121812.703000", "121812.703000", "121812.703000", "121812.718000", "121812.718000", "121812.718000", "121812.718000", "121812.718000", "121812.718000", "121812.718000", "121812.718000", "121812.734000", "121832.671000", "121832.671000", "121832.671000", "121832.687000", "121832.687000", "121832.687000", "121832.687000", "121832.687000", "121832.687000", "121832.687000", "121832.687000", "121832.703000", "121832.703000", "121832.703000", "121832.703000", "121832.703000", "121832.703000", "121832.703000", "121832.703000", "121832.718000", "121832.718000", "121832.718000", "121832.718000", "121832.718000", "121832.718000", "121832.718000", "121852.671000", "121852.671000", "121852.671000", "121852.671000", "121852.687000", "121852.687000", "121852.687000", "121852.687000", "121852.687000", "121852.687000", "121852.687000", "121852.703000", "121852.703000", "121852.703000", "121852.703000", "121852.703000", "121852.703000", "121852.703000", "121852.703000", "121852.718000", "121852.718000", "121852.718000", "121852.718000", "121852.718000", "121852.718000", "121912.671000", "121912.671000", "121912.671000", "121912.687000", "121912.687000", "121912.687000", "121912.687000", "121912.687000", "121912.687000", "121912.687000", "121912.687000", "121912.703000", "121912.703000", "121912.703000", "121912.703000", "121912.703000", "121912.703000", "121912.703000", "121912.703000", "121912.718000", "121912.718000", "121912.718000", "121912.718000", "121912.718000", "121912.718000", "121912.718000", "121932.671000", "121932.671000", "121932.671000", "121932.671000", "121932.687000", "121932.687000", "121932.687000", "121932.687000", "121932.687000", "121932.687000", "121932.687000", "121932.703000", "121932.703000", "121932.703000", "121932.703000", "121932.703000", "121932.703000", "121932.703000", "121932.703000", "121932.718000", "121932.718000", "121932.718000", "121932.718000", "121932.718000", "121932.718000", "121952.671000", "121952.671000", "121952.671000", "121952.671000", "121952.687000", "121952.687000", "121952.687000", "121952.687000", "121952.687000", "121952.687000", "121952.687000", "121952.703000", "121952.703000", "121952.703000", "121952.703000", "121952.703000", "121952.703000", "121952.703000", "121952.718000", "121952.718000", "121952.718000", "121952.718000", "121952.718000", "121952.718000", "121952.718000", "121952.734000", "122012.671000", "122012.671000", "122012.671000", "122012.671000", "122012.687000", "122012.687000", "122012.687000", "122012.687000", "122012.687000", "122012.687000", "122012.687000", "122012.703000", "122012.703000", "122012.703000", "122012.703000", "122012.703000", "122012.703000", "122012.703000", "122012.718000", "122012.718000", "122012.718000", "122012.718000", "122012.718000", "122012.718000", "122012.718000", "122032.671000", "122032.671000", "122032.671000", "122032.687000", "122032.687000", "122032.687000", "122032.687000", "122032.687000", "122032.687000", "122032.687000", "122032.703000", "122032.703000", "122032.703000", "122032.703000", "122032.703000", "122032.703000", "122032.718000", "122032.718000", "122032.718000", "122032.718000", "122032.718000", "122032.718000", "122032.734000", "122032.734000", "122032.734000", "122032.734000", "122040.500000", "122040.500000", "122040.500000", "122040.500000", "122040.515000", "122040.515000", "122040.515000", "122040.515000", "122040.515000", "122040.515000"],
