{
  "AcquisitionMatrixPE": 104,
  "AcquisitionNumber": 1,
  "AcquisitionTime": "12:04:58.722500",
  "BandwidthPerPixelPhaseEncode": 13.935,
  "BaseResolution": 104,
  "CoilString": "C:HEA;HEP",
  "ConversionSoftware": "dcm2niix",
  "ConversionSoftwareVersion": "v1.0.20210317",
  "DerivedVendorReportedEchoSpacing": 0.000690017,
  "DeviceSerialNumber": "35450",
  "DwellTime": 2.5e-06,
  "EchoTime": 0.0348,
  "EffectiveEchoSpacing": 0.000690017,
  "FlipAngle": 55,
  "ImageComments": "Unaliased MB8/PE3 (remote)",
  "ImageOrientationPatientDICOM": [0.999976, 0.00101987, 0.00690637, -2.74823e-08, 0.989272, -0.146083],
  "ImageType": [
    "ORIGINAL",
    "PRIMARY",
    "M",
    "MB",
    "ND",
    "MOSAIC"
],
  "ImagingFrequency": 123.234,
  "InPlanePhaseEncodingDirectionDICOM": "COL",
  "InstitutionAddress": "Univeristy Ave. 197,Newark,North East,US,07102-1814",
  "InstitutionName": "RUBIC",
  "InstitutionalDepartmentName": "Department",
  "MRAcquisitionType": "2D",
  "MagneticFieldStrength": 3,
  "Manufacturer": "Siemens",
  "ManufacturersModelName": "TrioTim",
  "Modality": "MR",
  "MultibandAccelerationFactor": 8,
  "PartialFourier": 0.875,
  "PatientPosition": "HFS",
  "PercentPhaseFOV": 100,
  "PercentSampling": 100,
  "PhaseEncodingDirection": "j-",
  "PhaseEncodingSteps": 91,
  "PhaseResolution": 1,
  "PixelBandwidth": 1923,
  "ProcedureStepDescription": "Cole^Michael",
  "ProtocolName": "cmrr_mbep2d_bold_2mm_MB8_Task_8x",
  "PulseSequenceDetails": "%CustomerSeq%\\cmrr_mbep2d_bold",
  "ReceiveCoilName": "32Ch_Head",
  "ReconMatrixPE": 104,
  "RepetitionTime": 0.785,
  "SAR": 0.135223,
  "ScanOptions": "PFP\\FS",
  "ScanningSequence": "EP",
  "SequenceName": "epfid2d1_104",
  "SequenceVariant": "SK\\SS",
  "SeriesDescription": "cmrr_mbep2d_bold_2mm_MB8_Task_8x",
  "SeriesNumber": 21,
  "ShimSetting": [2138, -319, -7303, 376, -24, -346, 458, 95],
  "SliceThickness": 2,
  "SliceTiming": [0, 0.4375, 0.0875, 0.525, 0.175, 0.6125, 0.2625, 0.7, 0.35, 0, 0.4375, 0.0875, 0.525, 0.175, 0.6125, 0.2625, 0.7, 0.35, 0, 0.4375, 0.0875, 0.525, 0.175, 0.6125, 0.2625, 0.7, 0.35, 0, 0.4375, 0.0875, 0.525, 0.175, 0.6125, 0.2625, 0.7, 0.35, 0, 0.4375, 0.0875, 0.525, 0.175, 0.6125, 0.2625, 0.7, 0.35, 0, 0.4375, 0.0875, 0.525, 0.175, 0.6125, 0.2625, 0.7, 0.35, 0, 0.4375, 0.0875, 0.525, 0.175, 0.6125, 0.2625, 0.7, 0.35, 0, 0.4375, 0.0875, 0.525, 0.175, 0.6125, 0.2625, 0.7, 0.35],
  "SoftwareVersions": "syngo MR B19",
  "SpacingBetweenSlices": 2,
  "StationName": "MRC35450",
  "TaskName": "cpro",
  "TotalReadoutTime": 0.0710717,
  "TxRefAmp": 325.926,
  "dcmmeta_affine": [
    [-1.9999512434005737, -5.4964669260471055e-08, 0.013962523080408573, 106.21366119384766],
    [-0.0020397421903908253, 1.9785447120666504, -0.29215893149375916, -78.93701934814453],
    [0.013812730088829994, 0.2921660542488098, 1.9784964323043823, -111.5962905883789],
    [0.0, 0.0, 0.0, 1.0]
],
  "dcmmeta_reorient_transform": [
    [0.0, -1.0, 0.0, 103.0],
    [1.0, 0.0, 0.0, 0.0],
    [0.0, 0.0, 1.0, 0.0],
    [0.0, 0.0, 0.0, 1.0]
],
  "dcmmeta_shape": [104, 104, 72, 581],
  "dcmmeta_slice_dim": 2,
  "dcmmeta_version": 0.6,
  "global": {
    "const": {
      "AcquisitionMatrix": [104, 0, 0, 104],
      "AngioFlag": "N",
      "BitsAllocated": 16,
      "BitsStored": 12,
      "Columns": 936,
      "EchoNumbers": 1,
      "EchoTime": 34.8,
      "EchoTrainLength": 1,
      "FlipAngle": 55.0,
      "HighBit": 11,
      "ImageOrientationPatient": [0.99997563069392, 0.00101987108373, 0.00690636527248, -2.7482335e-08, 0.98927233276856, -0.1460830298791],
      "ImagePositionPatient": [-938.19335971255, -948.77619659236, 34.291796121114],
      "ImageType": [
        "ORIGINAL",
        "PRIMARY",
        "M",
        "MB",
        "ND",
        "MOSAIC"
],
      "ImagedNucleus": "1H",
      "ImagingFrequency": 123.234478,
      "InPlanePhaseEncodingDirection": "COL",
      "MRAcquisitionType": "2D",
      "MagneticFieldStrength": 3.0,
      "Manufacturer": "SIEMENS",
      "ManufacturerModelName": "TrioTim",
      "Modality": "MR",
      "NumberOfAverages": 1.0,
      "NumberOfPhaseEncodingSteps": 91,
      "PercentPhaseFieldOfView": 100.0,
      "PercentSampling": 100.0,
      "PerformedProcedureStepStartTime": "104215.703000",
      "PhotometricInterpretation": "MONOCHROME2",
      "PixelBandwidth": 1923.0,
      "PixelRepresentation": 0,
      "PixelSpacing": [2.0, 2.0],
      "ProtocolName": "cmrr_mbep2d_bold_2mm_MB8_Task_8x",
      "RepetitionTime": 785.0,
      "Rows": 936,
      "SAR": 0.13522307380642,
      "SamplesPerPixel": 1,
      "ScanOptions": [
        "PFP",
        "FS"
],
      "ScanningSequence": "EP",
      "SequenceName": "epfid2d1_104",
      "SequenceVariant": [
        "SK",
        "SS"
],
      "SeriesDescription": "cmrr_mbep2d_bold_2mm_MB8_Task_8x",
      "SeriesNumber": 21,
      "SeriesTime": "120532.671000",
      "SliceLocation": -98.123851668551,
      "SliceThickness": 2.0,
      "SmallestImagePixelValue": 0,
      "SoftwareVersions": "syngo MR B19",
      "SpacingBetweenSlices": 1.9999999406198,
      "SpecificCharacterSet": "ISO_IR 100",
      "StudyID": "1",
      "StudyTime": "104215.609000",
      "TransmitCoilName": "Body",
      "VariableFlipAngleFlag": "N",
      "WindowCenterWidthExplanation": "Algo1",
      "dBdt": 0.0},
    "slices": {}
  },
  "time": {
    "samples": {
      "AcquisitionNumber": [1, 2, 3, 4, 5, 6, 7, 8, 9, 10, 11, 12, 13, 14, 15, 16, 17, 18, 19, 20, 21, 22, 23, 24, 25, 26, 27, 28, 29, 30, 31, 32, 33, 34, 35, 36, 37, 38, 39, 40, 41, 42, 43, 44, 45, 46, 47, 48, 49, 50, 51, 52, 53, 54, 55, 56, 57, 58, 59, 60, 61, 62, 63, 64, 65, 66, 67, 68, 69, 70, 71, 72, 73, 74, 75, 76, 77, 78, 79, 80, 81, 82, 83, 84, 85, 86, 87, 88, 89, 90, 91, 92, 93, 94, 95, 96, 97, 98, 99, 100, 101, 102, 103, 104, 105, 106, 107, 108, 109, 110, 111, 112, 113, 114, 115, 116, 117, 118, 119, 120, 121, 122, 123, 124, 125, 126, 127, 128, 129, 130, 131, 132, 133, 134, 135, 136, 137, 138, 139, 140, 141, 142, 143, 144, 145, 146, 147, 148, 149, 150, 151, 152, 153, 154, 155, 156, 157, 158, 159, 160, 161, 162, 163, 164, 165, 166, 167, 168, 169, 170, 171, 172, 173, 174, 175, 176, 177, 178, 179, 180, 181, 182, 183, 184, 185, 186, 187, 188, 189, 190, 191, 192, 193, 194, 195, 196, 197, 198, 199, 200, 201, 202, 203, 204, 205, 206, 207, 208, 209, 210, 211, 212, 213, 214, 215, 216, 217, 218, 219, 220, 221, 222, 223, 224, 225, 226, 227, 228, 229, 230, 231, 232, 233, 234, 235, 236, 237, 238, 239, 240, 241, 242, 243, 244, 245, 246, 247, 248, 249, 250, 251, 252, 253, 254, 255, 256, 257, 258, 259, 260, 261, 262, 263, 264, 265, 266, 267, 268, 269, 270, 271, 272, 273, 274, 275, 276, 277, 278, 279, 280, 281, 282, 283, 284, 285, 286, 287, 288, 289, 290, 291, 292, 293, 294, 295, 296, 297, 298, 299, 300, 301, 302, 303, 304, 305, 306, 307, 308, 309, 310, 311, 312, 313, 314, 315, 316, 317, 318, 319, 320, 321, 322, 323, 324, 325, 326, 327, 328, 329, 330, 331, 332, 333, 334, 335, 336, 337, 338, 339, 340, 341, 342, 343, 344, 345, 346, 347, 348, 349, 350, 351, 352, 353, 354, 355, 356, 357, 358, 359, 360, 361, 362, 363, 364, 365, 366, 367, 368, 369, 370, 371, 372, 373, 374, 375, 376, 377, 378, 379, 380, 381, 382, 383, 384, 385, 386, 387, 388, 389, 390, 391, 392, 393, 394, 395, 396, 397, 398, 399, 400, 401, 402, 403, 404, 405, 406, 407, 408, 409, 410, 411, 412, 413, 414, 415, 416, 417, 418, 419, 420, 421, 422, 423, 424, 425, 426, 427, 428, 429, 430, 431, 432, 433, 434, 435, 436, 437, 438, 439, 440, 441, 442, 443, 444, 445, 446, 447, 448, 449, 450, 451, 452, 453, 454, 455, 456, 457, 458, 459, 460, 461, 462, 463, 464, 465, 466, 467, 468, 469, 470, 471, 472, 473, 474, 475, 476, 477, 478, 479, 480, 481, 482, 483, 484, 485, 486, 487, 488, 489, 490, 491, 492, 493, 494, 495, 496, 497, 498, 499, 500, 501, 502, 503, 504, 505, 506, 507, 508, 509, 510, 511, 512, 513, 514, 515, 516, 517, 518, 519, 520, 521, 522, 523, 524, 525, 526, 527, 528, 529, 530, 531, 532, 533, 534, 535, 536, 537, 538, 539, 540, 541, 542, 543, 544, 545, 546, 547, 548, 549, 550, 551, 552, 553, 554, 555, 556, 557, 558, 559, 560, 561, 562, 563, 564, 565, 566, 567, 568, 569, 570, 571, 572, 573, 574, 575, 576, 577, 578, 579, 580, 581],
      "AcquisitionTime": ["120458.722500", "120459.510000", "120500.300000", "120501.087500", "120501.875000", "120502.662500", "120503.452500", "120504.240000", "120505.027500", "120505.815000", "120506.605000", "120507.392500", "120508.180000", "120508.967500", "120509.757500", "120510.545000", "120511.332500", "120512.122500", "120512.910000", "120513.697500", "120514.485000", "120515.275000", "120516.062500", "120516.850000", "120517.637500", "120518.427500", "120519.215000", "120520.002500", "120520.790000", "120521.580000", "120522.367500", "120523.155000", "120523.942500", "120524.732500", "120525.520000", "120526.307500", "120527.095000", "120527.885000", "120528.672500", "120529.460000", "120530.250000", "120531.037500", "120531.825000", "120532.612500", "120533.402500", "120534.190000", "120534.977500", "120535.765000", "120536.555000", "120537.342500", "120538.130000", "120538.917500", "120539.707500", "120540.495000", "120541.282500", "120542.070000", "120542.860000", "120543.647500", "120544.435000", "120545.222500", "120546.012500", "120546.800000", "120547.587500", "120548.377500", "120549.165000", "120549.952500", "120550.740000", "120551.530000", "120552.317500", "120553.105000", "120553.892500", "120554.682500", "120555.470000", "120556.257500", "120557.045000", "120557.835000", "120558.622500", "120559.410000", "120600.197500", "120600.987500", "120601.775000", "120602.562500", "120603.350000", "120604.140000", "120604.927500", "120605.715000", "120606.505000", "120607.292500", "120608.080000", "120608.867500", "120609.657500", "120610.445000", "120611.232500", "120612.020000", "120612.810000", "120613.597500", "120614.385000", "120615.172500", "120615.962500", "120616.750000", "120617.537500", "120618.325000", "120619.115000", "120619.902500", "120620.690000", "120621.477500", "120622.267500", "120623.055000", "120623.842500", "120624.632500", "120625.420000", "120626.207500", "120626.995000", "120627.785000", "120628.572500", "120629.360000", "120630.147500", "120630.937500", "120631.725000", "120632.512500", "120633.300000", "120634.090000", "120634.877500", "120635.665000", "120636.452500", "120637.242500", "120638.030000", "120638.817500", "120639.605000", "120640.395000", "120641.182500", "120641.970000", "120642.760000", "120643.547500", "120644.335000", "120645.122500", "120645.912500", "120646.700000", "120647.487500", "120648.275000", "120649.065000", "120649.852500", "120650.640000", "120651.427500", "120652.217500", "120653.005000", "120653.792500", "120654.580000", "120655.370000", "120656.157500", "120656.945000", "120657.732500", "120658.522500", "120659.310000", "120700.097500", "120700.887500", "120701.675000", "120702.462500", "120703.250000", "120704.040000", "120704.827500", "120705.615000", "120706.402500", "120707.192500", "120707.980000", "120708.767500", "120709.555000", "120710.345000", "120711.132500", "120711.920000", "120712.707500", "120713.497500", "120714.285000", "120715.072500", "120715.860000", "120716.650000", "120717.437500", "120718.225000", "120719.015000", "120719.802500", "120720.590000", "120721.377500", "120722.167500", "120722.955000", "120723.742500", "120724.530000", "120725.320000", "120726.107500", "120726.895000", "120727.682500", "120728.472500", "120729.260000", "120730.047500", "120730.835000", "120731.625000", "120732.412500", "120733.200000", "120733.987500", "120734.777500", "120735.565000", "120736.352500", "120737.142500", "120737.930000", "120738.717500", "120739.505000", "120740.295000", "120741.082500", "120741.870000", "120742.657500", "120743.447500", "120744.235000", "120745.022500", "120745.810000", "120746.600000", "120747.387500", "120748.175000", "120748.962500", "120749.752500", "120750.540000", "120751.327500", "120752.115000", "120752.905000", "120753.692500", "120754.480000", "120755.270000", "120756.057500", "120756.845000", "120757.632500", "120758.422500", "120759.210000", "120759.997500", "120800.785000", "120801.575000", "120802.362500", "120803.150000", "120803.937500", "120804.727500", "120805.515000", "120806.302500", "120807.090000", "120807.880000", "120808.667500", "120809.455000", "120810.242500", "120811.032500", "120811.820000", "120812.607500", "120813.397500", "120814.185000", "120814.972500", "120815.760000", "120816.550000", "120817.337500", "120818.125000", "120818.912500", "120819.702500", "120820.490000", "120821.277500", "120822.065000", "120822.855000", "120823.642500", "120824.430000", "120825.217500", "120826.007500", "120826.795000", "120827.582500", "120828.372500", "120829.160000", "120829.947500", "120830.735000", "120831.525000", "120832.312500", "120833.100000", "120833.887500", "120834.677500", "120835.465000", "120836.252500", "120837.040000", "120837.830000", "120838.617500", "120839.405000", "120840.192500", "120840.982500", "120841.770000", "120842.557500", "120843.345000", "120844.135000", "120844.922500", "120845.710000", "120846.500000", "120847.287500", "120848.075000", "120848.862500", "120849.652500", "120850.440000", "120851.227500", "120852.015000", "120852.805000", "120853.592500", "120854.380000", "120855.167500", "120855.957500", "120856.745000", "120857.532500", "120858.320000", "120859.110000", "120859.897500", "120900.685000", "120901.472500", "120902.262500", "120903.050000", "120903.837500", "120904.627500", "120905.415000", "120906.202500", "120906.990000", "120907.780000", "120908.567500", "120909.355000", "120910.142500", "120910.932500", "120911.720000", "120912.507500", "120913.295000", "120914.085000", "120914.872500", "120915.660000", "120916.447500", "120917.237500", "120918.025000", "120918.812500", "120919.600000", "120920.390000", "120921.177500", "120921.965000", "120922.755000", "120923.542500", "120924.330000", "120925.117500", "120925.907500", "120926.695000", "120927.482500", "120928.270000", "120929.060000", "120929.847500", "120930.635000", "120931.422500", "120932.212500", "120933.000000", "120933.787500", "120934.575000", "120935.365000", "120936.152500", "120936.940000", "120937.727500", "120938.517500", "120939.305000", "120940.092500", "120940.882500", "120941.670000", "120942.457500", "120943.245000", "120944.035000", "120944.822500", "120945.610000", "120946.397500", "120947.187500", "120947.975000", "120948.762500", "120949.550000", "120950.340000", "120951.127500", "120951.915000", "120952.702500", "120953.492500", "120954.280000", "120955.067500", "120955.855000", "120956.645000", "120957.432500", "120958.220000", "120959.010000", "120959.797500", "121000.585000", "121001.372500", "121002.162500", "121002.950000", "121003.737500", "121004.525000", "121005.315000", "121006.102500", "121006.890000", "121007.677500", "121008.467500", "121009.255000", "121010.042500", "121010.830000", "121011.620000", "121012.407500", "121013.195000", "121013.982500", "121014.772500", "121015.560000", "121016.347500", "121017.137500", "121017.925000", "121018.712500", "121019.500000", "121020.290000", "121021.077500", "121021.865000", "121022.652500", "121023.442500", "121024.230000", "121025.017500", "121025.805000", "121026.595000", "121027.382500", "121028.170000", "121028.957500", "121029.747500", "121030.535000", "121031.322500", "121032.110000", "121032.900000", "121033.687500", "121034.475000", "121035.265000", "121036.052500", "121036.840000", "121037.627500", "121038.417500", "121039.205000", "121039.992500", "121040.780000", "121041.570000", "121042.357500", "121043.145000", "121043.932500", "121044.722500", "121045.510000", "121046.297500", "121047.085000", "121047.875000", "121048.662500", "121049.450000", "121050.237500", "121051.027500", "121051.815000", "121052.602500", "121053.392500", "121054.180000", "121054.967500", "121055.755000", "121056.545000", "121057.332500", "121058.120000", "121058.907500", "121059.697500", "121100.485000", "121101.272500", "121102.060000", "121102.850000", "121103.637500", "121104.425000", "121105.212500", "121106.002500", "121106.790000", "121107.577500", "121108.365000", "121109.155000", "121109.942500", "121110.730000", "121111.520000", "121112.307500", "121113.095000", "121113.882500", "121114.672500", "121115.460000", "121116.247500", "121117.035000", "121117.825000", "121118.612500", "121119.400000", "121120.187500", "121120.977500", "121121.765000", "121122.552500", "121123.340000", "121124.130000", "121124.917500", "121125.705000", "121126.492500", "121127.282500", "121128.070000", "121128.857500", "121129.647500", "121130.435000", "121131.222500", "121132.010000", "121132.800000", "121133.587500", "121134.375000", "121135.162500", "121135.952500", "121136.740000", "121137.527500", "121138.315000", "121139.105000", "121139.892500", "121140.680000", "121141.467500", "121142.257500", "121143.045000", "121143.832500", "121144.622500", "121145.410000", "121146.197500", "121146.985000", "121147.775000", "121148.562500", "121149.350000", "121150.137500", "121150.927500", "121151.715000", "121152.502500", "121153.290000", "121154.080000", "121154.867500", "121155.655000", "121156.442500", "121157.232500", "121158.020000", "121158.807500", "121159.595000", "121200.385000", "121201.172500", "121201.960000", "121202.750000", "121203.537500", "121204.325000", "121205.112500", "121205.902500", "121206.690000", "121207.477500", "121208.265000", "121209.055000", "121209.842500", "121210.630000", "121211.417500", "121212.207500", "121212.995000", "121213.782500", "121214.570000", "121215.360000", "121216.147500", "121216.935000", "121217.722500", "121218.512500", "121219.300000", "121220.087500", "121220.877500", "121221.665000", "121222.452500", "121223.240000", "121224.030000", "121224.817500", "121225.605000", "121226.392500", "121227.182500", "121227.970000", "121228.757500", "121229.545000", "121230.335000", "121231.122500", "121231.910000", "121232.697500", "121233.487500", "121234.275000", "121235.062500", "121235.850000"],
      "ContentTime": ["120532.671000", "120532.671000", "120532.671000", "120532.671000", "120532.687000", "120532.687000", "120532.687000", "120532.687000", "120532.687000", "120532.687000", "120532.687000", "120532.703000", "120532.703000", "120532.703000", "120532.703000", "120532.703000", "120532.703000", "120532.703000", "120532.703000", "120532.718000", "120532.718000", "120532.718000", "120532.718000", "120532.718000", "120532.718000", "120532.718000", "120532.734000", "120532.734000", "120532.734000", "120532.734000", "120532.734000", "120532.734000", "120532.734000", "120532.750000", "120532.750000", "120532.750000", "120532.750000", "120532.750000", "120532.750000", "120532.750000", "120552.640000", "120552.640000", "120552.640000", "120552.656000", "120552.656000", "120552.656000", "120552.656000", "120552.656000", "120552.671000", "120552.671000", "120552.671000", "120552.671000", "120552.671000", "120552.671000", "120552.687000", "120552.687000", "120552.687000", "120552.687000", "120552.687000", "120552.687000", "120552.703000", "120552.703000", "120552.703000", "120552.703000", "120552.703000", "120612.640000", "120612.640000", "120612.640000", "120612.656000", "120612.656000", "120612.656000", "120612.656000", "120612.656000", "120612.656000", "120612.656000", "120612.656000", "120612.671000", "120612.671000", "120612.671000", "120612.671000", "120612.671000", "120612.671000", "120612.671000", "120612.671000", "120612.687000", "120612.687000", "120612.687000", "120612.687000", "120612.687000", "120612.687000", "120612.687000", "120632.640000", "120632.640000", "120632.640000", "120632.640000", "120632.656000", "120632.656000", "120632.656000", "120632.656000", "120632.656000", "120632.656000", "120632.671000", "120632.671000", "120632.671000", "120632.671000", "120632.671000", "120632.671000", "120632.671000", "120632.671000", "120632.687000", "120632.687000", "120632.687000", "120632.687000", "120632.687000", "120632.687000", "120632.703000", "120652.640000", "120652.640000", "120652.640000", "120652.656000", "120652.656000", "120652.656000", "120652.656000", "120652.656000", "120652.656000", "120652.656000", "120652.656000", "120652.671000", "120652.671000", "120652.671000", "120652.671000", "120652.671000", "120652.671000", "120652.687000", "120652.687000", "120652.687000", "120652.687000", "120652.687000", "120652.687000", "120652.703000", "120652.703000", "120652.703000", "120712.640000", "120712.640000", "120712.640000", "120712.656000", "120712.656000", "120712.656000", "120712.656000", "120712.656000", "120712.656000", "120712.671000", "120712.671000", "120712.671000", "120712.671000", "120712.671000", "120712.671000", "120712.687000", "120712.687000", "120712.687000", "120712.687000", "120712.687000", "120712.687000", "120712.687000", "120712.703000", "120712.703000", "120712.703000", "120732.640000", "120732.640000", "120732.640000", "120732.640000", "120732.656000", "120732.656000", "120732.656000", "120732.656000", "120732.656000", "120732.656000", "120732.656000", "120732.671000", "120732.671000", "120732.671000", "120732.671000", "120732.671000", "120732.671000", "120732.671000", "120732.671000", "120732.687000", "120732.687000", "120732.687000", "120732.687000", "120732.687000", "120732.687000", "120732.687000", "120752.640000", "120752.640000", "120752.640000", "120752.656000", "120752.656000", "120752.656000", "120752.656000", "120752.656000", "120752.656000", "120752.656000", "120752.671000", "120752.671000", "120752.671000", "120752.671000", "120752.671000", "120752.671000", "120752.671000", "120752.671000", "120752.687000", "120752.687000", "120752.687000", "120752.687000", "120752.687000", "120752.703000", "120752.703000", "120812.640000", "120812.640000", "120812.640000", "120812.656000", "120812.656000", "120812.656000", "120812.656000", "120812.656000", "120812.656000", "120812.671000", "120812.671000", "120812.671000", "120812.671000", "120812.671000", "120812.671000", "120812.671000", "120812.671000", "120812.687000", "120812.687000", "120812.687000", "120812.687000", "120812.687000", "120812.687000", "120812.687000", "120812.687000", "120812.703000", "120832.640000", "120832.640000", "120832.640000", "120832.640000", "120832.656000", "120832.656000", "120832.656000", "120832.656000", "120832.671000", "120832.671000", "120832.671000", "120832.671000", "120832.671000", "120832.671000", "120832.671000", "120832.687000", "120832.687000", "120832.687000", "120832.687000", "120832.687000", "120832.687000", "120832.687000", "120832.687000", "120832.703000", "120832.703000", "120852.640000", "120852.640000", "120852.640000", "120852.656000", "120852.656000", "120852.656000", "120852.656000", "120852.656000", "120852.656000", "120852.656000", "120852.656000", "120852.671000", "120852.671000", "120852.671000", "120852.671000", "120852.671000", "120852.671000", "120852.671000", "120852.687000", "120852.687000", "120852.687000", "120852.687000", "120852.687000", "120852.703000", "120852.703000", "120852.703000", "120912.640000", "120912.640000", "120912.640000", "120912.656000", "120912.656000", "120912.656000", "120912.656000", "120912.656000", "120912.656000", "120912.656000", "120912.656000", "120912.671000", "120912.671000", "120912.671000", "120912.671000", "120912.671000", "120912.671000", "120912.671000", "120912.671000", "120912.687000", "120912.687000", "120912.687000", "120912.687000", "120912.687000", "120912.687000", "120932.640000", "120932.640000", "120932.640000", "120932.640000", "120932.656000", "120932.656000", "120932.656000", "120932.656000", "120932.656000", "120932.656000", "120932.656000", "120932.671000", "120932.671000", "120932.671000", "120932.671000", "120932.671000", "120932.671000", "120932.671000", "120932.671000", "120932.687000", "120932.687000", "120932.687000", "120932.687000", "120932.703000", "120932.703000", "120932.703000", "120952.640000", "120952.640000", "120952.640000", "120952.656000", "120952.656000", "120952.656000", "120952.656000", "120952.656000", "120952.656000", "120952.656000", "120952.656000", "120952.671000", "120952.671000", "120952.671000", "120952.671000", "120952.671000", "120952.671000", "120952.671000", "120952.671000", "120952.687000", "120952.687000", "120952.687000", "120952.687000", "120952.703000", "120952.703000", "121012.640000", "121012.640000", "121012.640000", "121012.656000", "121012.656000", "121012.656000", "121012.656000", "121012.656000", "121012.656000", "121012.671000", "121012.671000", "121012.671000", "121012.671000", "121012.671000", "121012.671000", "121012.671000", "121012.687000", "121012.687000", "121012.687000", "121012.687000", "121012.687000", "121012.687000", "121012.687000", "121012.703000", "121012.703000", "121012.703000", "121032.640000", "121032.640000", "121032.640000", "121032.640000", "121032.656000", "121032.656000", "121032.656000", "121032.656000", "121032.656000", "121032.656000", "121032.656000", "121032.671000", "121032.671000", "121032.671000", "121032.671000", "121032.671000", "121032.671000", "121032.671000", "121032.687000", "121032.687000", "121032.687000", "121032.687000", "121032.687000", "121032.687000", "121032.703000", "121052.640000", "121052.640000", "121052.640000", "121052.656000", "121052.656000", "121052.656000", "121052.656000", "121052.656000", "121052.656000", "121052.656000", "121052.671000", "121052.671000", "121052.671000", "121052.671000", "121052.671000", "121052.671000", "121052.671000", "121052.671000", "121052.687000", "121052.687000", "121052.687000", "121052.687000", "121052.687000", "121052.687000", "121052.687000", "121052.687000", "121112.640000", "121112.640000", "121112.640000", "121112.656000", "121112.656000", "121112.656000", "121112.656000", "121112.656000", "121112.656000", "121112.656000", "121112.656000", "121112.671000", "121112.671000", "121112.671000", "121112.671000", "121112.671000", "121112.671000", "121112.671000", "121112.687000", "121112.687000", "121112.687000", "121112.687000", "121112.687000", "121112.687000", "121112.687000", "121132.640000", "121132.640000", "121132.640000", "121132.656000", "121132.656000", "121132.656000", "121132.656000", "121132.656000", "121132.656000", "121132.656000", "121132.656000", "121132.671000", "121132.671000", "121132.671000", "121132.671000", "121132.671000", "121132.671000", "121132.671000", "121132.687000", "121132.687000", "121132.687000", "121132.687000", "121132.687000", "121132.687000", "121132.687000", "121132.687000", "121152.640000", "121152.640000", "121152.640000", "121152.640000", "121152.656000", "121152.656000", "121152.656000", "121152.656000", "121152.656000", "121152.656000", "121152.656000", "121152.671000", "121152.671000", "121152.671000", "121152.671000", "121152.671000", "121152.671000", "121152.671000", "121152.671000", "121152.687000", "121152.687000", "121152.687000", "121152.687000", "121152.687000", "121152.703000", "121212.640000", "121212.640000", "121212.640000", "121212.640000", "121212.656000", "121212.656000", "121212.656000", "121212.671000", "121212.671000", "121212.671000", "121212.671000", "121212.671000", "121212.671000", "121212.671000", "121212.671000", "121212.687000", "121212.687000", "121212.687000", "121212.687000", "121212.687000", "121212.703000", "121212.703000", "121212.703000", "121212.703000", "121212.703000", "121212.703000", "121232.640000", "121232.640000", "121232.640000", "121232.640000", "121232.656000", "121232.656000", "121232.656000", "121232.656000", "121232.656000", "121232.656000", "121232.656000", "121232.671000", "121232.671000", "121232.671000", "121232.671000", "121232.671000", "121232.671000", "121232.671000", "121232.687000", "121232.687000", "121232.687000", "121232.687000", "121232.687000", "121232.687000", "121232.687000", "121237.031000", "121237.046000", "121237.046000", "121237.046000", "121237.046000", "121237.046000"],
