{
  "AcquisitionMatrixPE": 104,
  "AcquisitionNumber": 1,
  "AcquisitionTime": "12:21:4.725000",
  "BandwidthPerPixelPhaseEncode": 13.935,
  "BaseResolution": 104,
  "CoilString": "C:HEA;HEP",
  "ConversionSoftware": "dcm2niix",
  "ConversionSoftwareVersion": "v1.0.20210317",
  "DerivedVendorReportedEchoSpacing": 0.000690017,
  "DeviceSerialNumber": "35450",
  "DwellTime": 2.5e-06,
  "EchoTime": 0.0348,
  "EffectiveEchoSpacing": 0.000690017,
  "FlipAngle": 55,
  "ImageComments": "Unaliased MB8/PE3 (remote)",
  "ImageOrientationPatientDICOM": [0.999976, 0.00101987, 0.00690637, -2.74823e-08, 0.989272, -0.146083],
  "ImageType": [
    "ORIGINAL",
    "PRIMARY",
    "M",
    "MB",
    "ND",
    "MOSAIC"
],
  "ImagingFrequency": 123.234,
  "InPlanePhaseEncodingDirectionDICOM": "COL",
  "InstitutionAddress": "Univeristy Ave. 197,Newark,North East,US,07102-1814",
  "InstitutionName": "RUBIC",
  "InstitutionalDepartmentName": "Department",
  "MRAcquisitionType": "2D",
  "MagneticFieldStrength": 3,
  "Manufacturer": "Siemens",
  "ManufacturersModelName": "TrioTim",
  "Modality": "MR",
  "MultibandAccelerationFactor": 8,
  "PartialFourier": 0.875,
  "PatientPosition": "HFS",
  "PercentPhaseFOV": 100,
  "PercentSampling": 100,
  "PhaseEncodingDirection": "j-",
  "PhaseEncodingSteps": 91,
  "PhaseResolution": 1,
  "PixelBandwidth": 1923,
  "ProcedureStepDescription": "Cole^Michael",
  "ProtocolName": "cmrr_mbep2d_bold_2mm_MB8_Task_8x",
  "PulseSequenceDetails": "%CustomerSeq%\\cmrr_mbep2d_bold",
  "ReceiveCoilName": "32Ch_Head",
  "ReconMatrixPE": 104,
  "RepetitionTime": 0.785,
  "SAR": 0.135223,
  "ScanOptions": "PFP\\FS",
  "ScanningSequence": "EP",
  "SequenceName": "epfid2d1_104",
  "SequenceVariant": "SK\\SS",
  "SeriesDescription": "cmrr_mbep2d_bold_2mm_MB8_Task_8x",
  "SeriesNumber": 25,
  "ShimSetting": [2138, -319, -7303, 376, -24, -346, 458, 95],
  "SliceThickness": 2,
  "SliceTiming": [0, 0.4375, 0.0875, 0.525, 0.175, 0.6125, 0.2625, 0.7, 0.35, 0, 0.4375, 0.0875, 0.525, 0.175, 0.6125, 0.2625, 0.7, 0.35, 0, 0.4375, 0.0875, 0.525, 0.175, 0.6125, 0.2625, 0.7, 0.35, 0, 0.4375, 0.0875, 0.525, 0.175, 0.6125, 0.2625, 0.7, 0.35, 0, 0.4375, 0.0875, 0.525, 0.175, 0.6125, 0.2625, 0.7, 0.35, 0, 0.4375, 0.0875, 0.525, 0.175, 0.6125, 0.2625, 0.7, 0.35, 0, 0.4375, 0.0875, 0.525, 0.175, 0.6125, 0.2625, 0.7, 0.35, 0, 0.4375, 0.0875, 0.525, 0.175, 0.6125, 0.2625, 0.7, 0.35],
  "SoftwareVersions": "syngo MR B19",
  "SpacingBetweenSlices": 2,
  "StationName": "MRC35450",
  "TaskName": "cpro",
  "TotalReadoutTime": 0.0710717,
  "TxRefAmp": 325.926,
  "dcmmeta_affine": [
    [-1.9999512434005737, -5.4964669260471055e-08, 0.013962523080408573, 106.21366119384766],
    [-0.0020397421903908253, 1.9785447120666504, -0.29215893149375916, -78.93701934814453],
    [0.013812730088829994, 0.2921660542488098, 1.9784964323043823, -111.5962905883789],
    [0.0, 0.0, 0.0, 1.0]
],
  "dcmmeta_reorient_transform": [
    [0.0, -1.0, 0.0, 103.0],
    [1.0, 0.0, 0.0, 0.0],
    [0.0, 0.0, 1.0, 0.0],
    [0.0, 0.0, 0.0, 1.0]
],
  "dcmmeta_shape": [104, 104, 72, 581],
  "dcmmeta_slice_dim": 2,
  "dcmmeta_version": 0.6,
  "global": {
    "const": {
      "AcquisitionMatrix": [104, 0, 0, 104],
      "AngioFlag": "N",
      "BitsAllocated": 16,
      "BitsStored": 12,
      "Columns": 936,
      "EchoNumbers": 1,
      "EchoTime": 34.8,
      "EchoTrainLength": 1,
      "FlipAngle": 55.0,
      "HighBit": 11,
      "ImageOrientationPatient": [0.99997563069392, 0.00101987108373, 0.00690636527248, -2.7482335e-08, 0.98927233276856, -0.1460830298791],
      "ImagePositionPatient": [-938.19335971255, -948.77619659236, 34.291796121114],
      "ImageType": [
        "ORIGINAL",
        "PRIMARY",
        "M",
        "MB",
        "ND",
        "MOSAIC"
],
      "ImagedNucleus": "1H",
      "ImagingFrequency": 123.234478,
      "InPlanePhaseEncodingDirection": "COL",
      "MRAcquisitionType": "2D",
      "MagneticFieldStrength": 3.0,
      "Manufacturer": "SIEMENS",
      "ManufacturerModelName": "TrioTim",
      "Modality": "MR",
      "NumberOfAverages": 1.0,
      "NumberOfPhaseEncodingSteps": 91,
      "PercentPhaseFieldOfView": 100.0,
      "PercentSampling": 100.0,
      "PerformedProcedureStepStartTime": "104215.703000",
      "PhotometricInterpretation": "MONOCHROME2",
      "PixelBandwidth": 1923.0,
      "PixelRepresentation": 0,
      "PixelSpacing": [2.0, 2.0],
      "ProtocolName": "cmrr_mbep2d_bold_2mm_MB8_Task_8x",
      "RepetitionTime": 785.0,
      "Rows": 936,
      "SAR": 0.13522307380642,
      "SamplesPerPixel": 1,
      "ScanOptions": [
        "PFP",
        "FS"
],
      "ScanningSequence": "EP",
      "SequenceName": "epfid2d1_104",
      "SequenceVariant": [
        "SK",
        "SS"
],
      "SeriesDescription": "cmrr_mbep2d_bold_2mm_MB8_Task_8x",
      "SeriesNumber": 25,
      "SeriesTime": "122124.093000",
      "SliceLocation": -98.123851668551,
      "SliceThickness": 2.0,
      "SmallestImagePixelValue": 0,
      "SoftwareVersions": "syngo MR B19",
      "SpacingBetweenSlices": 1.9999999406198,
      "SpecificCharacterSet": "ISO_IR 100",
      "StudyID": "1",
      "StudyTime": "104215.609000",
      "TransmitCoilName": "Body",
      "VariableFlipAngleFlag": "N",
      "WindowCenterWidthExplanation": "Algo1",
      "dBdt": 0.0},
    "slices": {}
  },
  "time": {
    "samples": {
      "AcquisitionNumber": [1, 2, 3, 4, 5, 6, 7, 8, 9, 10, 11, 12, 13, 14, 15, 16, 17, 18, 19, 20, 21, 22, 23, 24, 25, 26, 27, 28, 29, 30, 31, 32, 33, 34, 35, 36, 37, 38, 39, 40, 41, 42, 43, 44, 45, 46, 47, 48, 49, 50, 51, 52, 53, 54, 55, 56, 57, 58, 59, 60, 61, 62, 63, 64, 65, 66, 67, 68, 69, 70, 71, 72, 73, 74, 75, 76, 77, 78, 79, 80, 81, 82, 83, 84, 85, 86, 87, 88, 89, 90, 91, 92, 93, 94, 95, 96, 97, 98, 99, 100, 101, 102, 103, 104, 105, 106, 107, 108, 109, 110, 111, 112, 113, 114, 115, 116, 117, 118, 119, 120, 121, 122, 123, 124, 125, 126, 127, 128, 129, 130, 131, 132, 133, 134, 135, 136, 137, 138, 139, 140, 141, 142, 143, 144, 145, 146, 147, 148, 149, 150, 151, 152, 153, 154, 155, 156, 157, 158, 159, 160, 161, 162, 163, 164, 165, 166, 167, 168, 169, 170, 171, 172, 173, 174, 175, 176, 177, 178, 179, 180, 181, 182, 183, 184, 185, 186, 187, 188, 189, 190, 191, 192, 193, 194, 195, 196, 197, 198, 199, 200, 201, 202, 203, 204, 205, 206, 207, 208, 209, 210, 211, 212, 213, 214, 215, 216, 217, 218, 219, 220, 221, 222, 223, 224, 225, 226, 227, 228, 229, 230, 231, 232, 233, 234, 235, 236, 237, 238, 239, 240, 241, 242, 243, 244, 245, 246, 247, 248, 249, 250, 251, 252, 253, 254, 255, 256, 257, 258, 259, 260, 261, 262, 263, 264, 265, 266, 267, 268, 269, 270, 271, 272, 273, 274, 275, 276, 277, 278, 279, 280, 281, 282, 283, 284, 285, 286, 287, 288, 289, 290, 291, 292, 293, 294, 295, 296, 297, 298, 299, 300, 301, 302, 303, 304, 305, 306, 307, 308, 309, 310, 311, 312, 313, 314, 315, 316, 317, 318, 319, 320, 321, 322, 323, 324, 325, 326, 327, 328, 329, 330, 331, 332, 333, 334, 335, 336, 337, 338, 339, 340, 341, 342, 343, 344, 345, 346, 347, 348, 349, 350, 351, 352, 353, 354, 355, 356, 357, 358, 359, 360, 361, 362, 363, 364, 365, 366, 367, 368, 369, 370, 371, 372, 373, 374, 375, 376, 377, 378, 379, 380, 381, 382, 383, 384, 385, 386, 387, 388, 389, 390, 391, 392, 393, 394, 395, 396, 397, 398, 399, 400, 401, 402, 403, 404, 405, 406, 407, 408, 409, 410, 411, 412, 413, 414, 415, 416, 417, 418, 419, 420, 421, 422, 423, 424, 425, 426, 427, 428, 429, 430, 431, 432, 433, 434, 435, 436, 437, 438, 439, 440, 441, 442, 443, 444, 445, 446, 447, 448, 449, 450, 451, 452, 453, 454, 455, 456, 457, 458, 459, 460, 461, 462, 463, 464, 465, 466, 467, 468, 469, 470, 471, 472, 473, 474, 475, 476, 477, 478, 479, 480, 481, 482, 483, 484, 485, 486, 487, 488, 489, 490, 491, 492, 493, 494, 495, 496, 497, 498, 499, 500, 501, 502, 503, 504, 505, 506, 507, 508, 509, 510, 511, 512, 513, 514, 515, 516, 517, 518, 519, 520, 521, 522, 523, 524, 525, 526, 527, 528, 529, 530, 531, 532, 533, 534, 535, 536, 537, 538, 539, 540, 541, 542, 543, 544, 545, 546, 547, 548, 549, 550, 551, 552, 553, 554, 555, 556, 557, 558, 559, 560, 561, 562, 563, 564, 565, 566, 567, 568, 569, 570, 571, 572, 573, 574, 575, 576, 577, 578, 579, 580, 581],
      "AcquisitionTime": ["122104.725000", "122105.515000", "122106.302500", "122107.090000", "122107.877500", "122108.667500", "122109.455000", "122110.242500", "122111.030000", "122111.820000", "122112.607500", "122113.395000", "122114.182500", "122114.972500", "122115.760000", "122116.547500", "122117.335000", "122118.125000", "122118.912500", "122119.700000", "122120.487500", "122121.277500", "122122.065000", "122122.852500", "122123.642500", "122124.430000", "122125.217500", "122126.005000", "122126.795000", "122127.582500", "122128.370000", "122129.157500", "122129.947500", "122130.735000", "122131.522500", "122132.310000", "122133.100000", "122133.887500", "122134.675000", "122135.462500", "122136.252500", "122137.040000", "122137.827500", "122138.615000", "122139.405000", "122140.192500", "122140.980000", "122141.770000", "122142.557500", "122143.345000", "122144.132500", "122144.922500", "122145.710000", "122146.497500", "122147.285000", "122148.075000", "122148.862500", "122149.650000", "122150.437500", "122151.227500", "122152.015000", "122152.802500", "122153.590000", "122154.380000", "122155.167500", "122155.955000", "122156.742500", "122157.532500", "122158.320000", "122159.107500", "122159.897500", "122200.685000", "122201.472500", "122202.260000", "122203.050000", "122203.837500", "122204.625000", "122205.412500", "122206.202500", "122206.990000", "122207.777500", "122208.565000", "122209.355000", "122210.142500", "122210.930000", "122211.717500", "122212.507500", "122213.295000", "122214.082500", "122214.870000", "122215.660000", "122216.447500", "122217.235000", "122218.025000", "122218.812500", "122219.600000", "122220.387500", "122221.177500", "122221.965000", "122222.752500", "122223.540000", "122224.330000", "122225.117500", "122225.905000", "122226.692500", "122227.482500", "122228.270000", "122229.057500", "122229.845000", "122230.635000", "122231.422500", "122232.210000", "122232.997500", "122233.787500", "122234.575000", "122235.362500", "122236.152500", "122236.940000", "122237.727500", "122238.515000", "122239.305000", "122240.092500", "122240.880000", "122241.667500", "122242.457500", "122243.245000", "122244.032500", "122244.820000", "122245.610000", "122246.397500", "122247.185000", "122247.972500", "122248.762500", "122249.550000", "122250.337500", "122251.125000", "122251.915000", "122252.702500", "122253.490000", "122254.280000", "122255.067500", "122255.855000", "122256.642500", "122257.432500", "122258.220000", "122259.007500", "122259.795000", "122300.585000", "122301.372500", "122302.160000", "122302.947500", "122303.737500", "122304.525000", "122305.312500", "122306.100000", "122306.890000", "122307.677500", "122308.465000", "122309.252500", "122310.042500", "122310.830000", "122311.617500", "122312.407500", "122313.195000", "122313.982500", "122314.770000", "122315.560000", "122316.347500", "122317.135000", "122317.922500", "122318.712500", "122319.500000", "122320.287500", "122321.075000", "122321.865000", "122322.652500", "122323.440000", "122324.227500", "122325.017500", "122325.805000", "122326.592500", "122327.382500", "122328.170000", "122328.957500", "122329.745000", "122330.535000", "122331.322500", "122332.110000", "122332.897500", "122333.687500", "122334.475000", "122335.262500", "122336.050000", "122336.840000", "122337.627500", "122338.415000", "122339.202500", "122339.992500", "122340.780000", "122341.567500", "122342.355000", "122343.145000", "122343.932500", "122344.720000", "122345.510000", "122346.297500", "122347.085000", "122347.872500", "122348.662500", "122349.450000", "122350.237500", "122351.025000", "122351.815000", "122352.602500", "122353.390000", "122354.177500", "122354.967500", "122355.755000", "122356.542500", "122357.330000", "122358.120000", "122358.907500", "122359.695000", "122400.482500", "122401.272500", "122402.060000", "122402.847500", "122403.637500", "122404.425000", "122405.212500", "122406.000000", "122406.790000", "122407.577500", "122408.365000", "122409.152500", "122409.942500", "122410.730000", "122411.517500", "122412.305000", "122413.095000", "122413.882500", "122414.670000", "122415.457500", "122416.247500", "122417.035000", "122417.822500", "122418.610000", "122419.400000", "122420.187500", "122420.975000", "122421.765000", "122422.552500", "122423.340000", "122424.127500", "122424.917500", "122425.705000", "122426.492500", "122427.280000", "122428.070000", "122428.857500", "122429.645000", "122430.432500", "122431.222500", "122432.010000", "122432.797500", "122433.585000", "122434.375000", "122435.162500", "122435.950000", "122436.737500", "122437.527500", "122438.315000", "122439.102500", "122439.892500", "122440.680000", "122441.467500", "122442.255000", "122443.045000", "122443.832500", "122444.620000", "122445.407500", "122446.197500", "122446.985000", "122447.772500", "122448.560000", "122449.350000", "122450.137500", "122450.925000", "122451.712500", "122452.502500", "122453.290000", "122454.077500", "122454.865000", "122455.655000", "122456.442500", "122457.230000", "122458.020000", "122458.807500", "122459.595000", "122500.382500", "122501.172500", "122501.960000", "122502.747500", "122503.535000", "122504.325000", "122505.112500", "122505.900000", "122506.687500", "122507.477500", "122508.265000", "122509.052500", "122509.840000", "122510.630000", "122511.417500", "122512.205000", "122512.992500", "122513.782500", "122514.570000", "122515.357500", "122516.147500", "122516.935000", "122517.722500", "122518.510000", "122519.300000", "122520.087500", "122520.875000", "122521.662500", "122522.452500", "122523.240000", "122524.027500", "122524.815000", "122525.605000", "122526.392500", "122527.180000", "122527.967500", "122528.757500", "122529.545000", "122530.332500", "122531.120000", "122531.910000", "122532.697500", "122533.485000", "122534.275000", "122535.062500", "122535.850000", "122536.637500", "122537.427500", "122538.215000", "122539.002500", "122539.790000", "122540.580000", "122541.367500", "122542.155000", "122542.942500", "122543.732500", "122544.520000", "122545.307500", "122546.095000", "122546.885000", "122547.672500", "122548.460000", "122549.247500", "122550.037500", "122550.825000", "122551.612500", "122552.402500", "122553.190000", "122553.977500", "122554.765000", "122555.555000", "122556.342500", "122557.130000", "122557.917500", "122558.707500", "122559.495000", "122600.282500", "122601.070000", "122601.860000", "122602.647500", "122603.435000", "122604.222500", "122605.012500", "122605.800000", "122606.587500", "122607.375000", "122608.165000", "122608.952500", "122609.740000", "122610.530000", "122611.317500", "122612.105000", "122612.892500", "122613.682500", "122614.470000", "122615.257500", "122616.045000", "122616.835000", "122617.622500", "122618.410000", "122619.197500", "122619.987500", "122620.775000", "122621.562500", "122622.350000", "122623.140000", "122623.927500", "122624.715000", "122625.502500", "122626.292500", "122627.080000", "122627.867500", "122628.657500", "122629.445000", "122630.232500", "122631.020000", "122631.810000", "122632.597500", "122633.385000", "122634.172500", "122634.962500", "122635.750000", "122636.537500", "122637.325000", "122638.115000", "122638.902500", "122639.690000", "122640.477500", "122641.267500", "122642.055000", "122642.842500", "122643.632500", "122644.420000", "122645.207500", "122645.995000", "122646.785000", "122647.572500", "122648.360000", "122649.147500", "122649.937500", "122650.725000", "122651.512500", "122652.300000", "122653.090000", "122653.877500", "122654.665000", "122655.452500", "122656.242500", "122657.030000", "122657.817500", "122658.605000", "122659.395000", "122700.182500", "122700.970000", "122701.760000", "122702.547500", "122703.335000", "122704.122500", "122704.912500", "122705.700000", "122706.487500", "122707.275000", "122708.065000", "122708.852500", "122709.640000", "122710.427500", "122711.217500", "122712.005000", "122712.792500", "122713.580000", "122714.370000", "122715.157500", "122715.945000", "122716.732500", "122717.522500", "122718.310000", "122719.097500", "122719.887500", "122720.675000", "122721.462500", "122722.250000", "122723.040000", "122723.827500", "122724.615000", "122725.402500", "122726.192500", "122726.980000", "122727.767500", "122728.555000", "122729.345000", "122730.132500", "122730.920000", "122731.707500", "122732.497500", "122733.285000", "122734.072500", "122734.860000", "122735.650000", "122736.437500", "122737.225000", "122738.015000", "122738.802500", "122739.590000", "122740.377500", "122741.167500", "122741.955000", "122742.742500", "122743.530000", "122744.320000", "122745.107500", "122745.895000", "122746.682500", "122747.472500", "122748.260000", "122749.047500", "122749.835000", "122750.625000", "122751.412500", "122752.200000", "122752.987500", "122753.777500", "122754.565000", "122755.352500", "122756.142500", "122756.930000", "122757.717500", "122758.505000", "122759.295000", "122800.082500", "122800.870000", "122801.657500", "122802.447500", "122803.235000", "122804.022500", "122804.810000", "122805.600000", "122806.387500", "122807.175000", "122807.962500", "122808.752500", "122809.540000", "122810.327500", "122811.115000", "122811.905000", "122812.692500", "122813.480000", "122814.270000", "122815.057500", "122815.845000", "122816.632500", "122817.422500", "122818.210000", "122818.997500", "122819.785000", "122820.575000", "122821.362500", "122822.150000", "122822.937500", "122823.727500", "122824.515000", "122825.302500", "122826.090000", "122826.880000", "122827.667500", "122828.455000", "122829.242500", "122830.032500", "122830.820000", "122831.607500", "122832.397500", "122833.185000", "122833.972500", "122834.760000", "122835.550000", "122836.337500", "122837.125000", "122837.912500", "122838.702500", "122839.490000", "122840.277500", "122841.065000", "122841.855000"],
      "ContentTime": ["122124.093000", "122124.093000", "122124.093000", "122124.093000", "122124.093000", "122124.093000", "122124.109000", "122124.109000", "122124.109000", "122124.109000", "122124.109000", "122124.109000", "122124.109000", "122124.125000", "122124.125000", "122124.125000", "122124.125000", "122124.125000", "122124.125000", "122124.125000", "122124.140000", "122144.062000", "122144.062000", "122144.062000", "122144.078000", "122144.078000", "122144.078000", "122144.078000", "122144.078000", "122144.078000", "122144.078000", "122144.078000", "122144.093000", "122144.093000", "122144.093000", "122144.093000", "122144.093000", "122144.093000", "122144.093000", "122144.109000", "122144.109000", "122144.109000", "122144.109000", "122144.109000", "122144.109000", "122144.125000", "122204.062000", "122204.062000", "122204.062000", "122204.062000", "122204.078000", "122204.078000", "122204.078000", "122204.078000", "122204.078000", "122204.078000", "122204.078000", "122204.093000", "122204.093000", "122204.093000", "122204.093000", "122204.093000", "122204.093000", "122204.093000", "122204.093000", "122204.109000", "122204.109000", "122204.109000", "122204.109000", "122204.109000", "122204.109000", "122204.109000", "122224.062000", "122224.062000", "122224.078000", "122224.078000", "122224.078000", "122224.078000", "122224.078000", "122224.093000", "122224.093000", "122224.093000", "122224.093000", "122224.093000", "122224.093000", "122224.109000", "122224.109000", "122224.109000", "122224.109000", "122224.125000", "122224.125000", "122224.125000", "122224.125000", "122224.140000", "122224.140000", "122224.140000", "122224.140000", "122244.062000", "122244.062000", "122244.062000", "122244.062000", "122244.078000", "122244.078000", "122244.078000", "122244.078000", "122244.078000", "122244.078000", "122244.078000", "122244.093000", "122244.093000", "122244.093000", "122244.093000", "122244.093000", "122244.093000", "122244.093000", "122244.109000", "122244.109000", "122244.109000", "122244.109000", "122244.109000", "122244.109000", "122244.109000", "122244.109000", "122304.062000", "122304.062000", "122304.062000", "122304.078000", "122304.078000", "122304.078000", "122304.078000", "122304.078000", "122304.078000", "122304.078000", "122304.093000", "122304.093000", "122304.093000", "122304.093000", "122304.093000", "122304.093000", "122304.093000", "122304.109000", "122304.109000", "122304.109000", "122304.109000", "122304.109000", "122304.109000", "122304.109000", "122304.125000", "122324.062000", "122324.062000", "122324.062000", "122324.062000", "122324.078000", "122324.078000", "122324.078000", "122324.078000", "122324.078000", "122324.078000", "122324.093000", "122324.093000", "122324.093000", "122324.109000", "122324.109000", "122324.109000", "122324.109000", "122324.109000", "122324.109000", "122324.109000", "122324.109000", "122324.125000", "122324.125000", "122324.125000", "122324.125000", "122324.125000", "122344.062000", "122344.062000", "122344.062000", "122344.078000", "122344.078000", "122344.078000", "122344.078000", "122344.078000", "122344.078000", "122344.078000", "122344.093000", "122344.093000", "122344.093000", "122344.093000", "122344.093000", "122344.093000", "122344.109000", "122344.109000", "122344.109000", "122344.109000", "122344.109000", "122344.109000", "122344.109000", "122344.125000", "122344.125000", "122404.062000", "122404.062000", "122404.062000", "122404.062000", "122404.078000", "122404.078000", "122404.078000", "122404.078000", "122404.078000", "122404.078000", "122404.078000", "122404.093000", "122404.093000", "122404.093000", "122404.093000", "122404.093000", "122404.093000", "122404.093000", "122404.109000", "122404.109000", "122404.109000", "122404.109000", "122404.109000", "122404.109000", "122404.109000", "122404.109000", "122424.062000", "122424.062000", "122424.062000", "122424.062000", "122424.078000", "122424.078000", "122424.078000", "122424.078000", "122424.078000", "122424.078000", "122424.078000", "122424.093000", "122424.093000", "122424.093000", "122424.093000", "122424.093000", "122424.109000", "122424.109000", "122424.109000", "122424.109000", "122424.109000", "122424.109000", "122424.109000", "122424.125000", "122424.125000", "122444.062000", "122444.062000", "122444.062000", "122444.062000", "122444.078000", "122444.078000", "122444.078000", "122444.078000", "122444.078000", "122444.093000", "122444.093000", "122444.093000", "122444.093000", "122444.093000", "122444.093000", "122444.093000", "122444.109000", "122444.109000", "122444.109000", "122444.109000", "122444.109000", "122444.109000", "122444.125000", "122444.125000", "122444.125000", "122444.125000", "122504.062000", "122504.062000", "122504.062000", "122504.078000", "122504.078000", "122504.078000", "122504.078000", "122504.078000", "122504.078000", "122504.078000", "122504.078000", "122504.093000", "122504.093000", "122504.093000", "122504.093000", "122504.093000", "122504.093000", "122504.093000", "122504.109000", "122504.109000", "122504.109000", "122504.109000", "122504.109000", "122504.109000", "122504.109000", "122524.062000", "122524.062000", "122524.062000", "122524.062000", "122524.078000", "122524.078000", "122524.078000", "122524.078000", "122524.078000", "122524.078000", "122524.078000", "122524.093000", "122524.093000", "122524.093000", "122524.093000", "122524.093000", "122524.093000", "122524.093000", "122524.093000", "122524.109000", "122524.109000", "122524.109000", "122524.109000", "122524.109000", "122524.125000", "122524.125000", "122544.062000", "122544.062000", "122544.062000", "122544.062000", "122544.078000", "122544.078000", "122544.078000", "122544.078000", "122544.078000", "122544.078000", "122544.078000", "122544.093000", "122544.093000", "122544.093000", "122544.093000", "122544.093000", "122544.093000", "122544.093000", "122544.109000", "122544.109000", "122544.109000", "122544.109000", "122544.109000", "122544.109000", "122544.125000", "122604.062000", "122604.062000", "122604.062000", "122604.062000", "122604.078000", "122604.078000", "122604.078000", "122604.078000", "122604.078000", "122604.093000", "122604.093000", "122604.093000", "122604.093000", "122604.093000", "122604.093000", "122604.093000", "122604.093000", "122604.109000", "122604.109000", "122604.109000", "122604.109000", "122604.109000", "122604.109000", "122604.109000", "122604.125000", "122604.125000", "122624.062000", "122624.062000", "122624.062000", "122624.078000", "122624.078000", "122624.078000", "122624.078000", "122624.078000", "122624.078000", "122624.078000", "122624.093000", "122624.093000", "122624.093000", "122624.093000", "122624.093000", "122624.109000", "122624.109000", "122624.109000", "122624.109000", "122624.109000", "122624.109000", "122624.109000", "122624.109000", "122624.125000", "122624.125000", "122644.062000", "122644.062000", "122644.062000", "122644.062000", "122644.078000", "122644.078000", "122644.078000", "122644.078000", "122644.078000", "122644.078000", "122644.078000", "122644.093000", "122644.093000", "122644.093000", "122644.093000", "122644.093000", "122644.093000", "122644.093000", "122644.093000", "122644.109000", "122644.109000", "122644.109000", "122644.109000", "122644.109000", "122644.109000", "122644.109000", "122704.062000", "122704.062000", "122704.062000", "122704.078000", "122704.078000", "122704.078000", "122704.078000", "122704.078000", "122704.078000", "122704.078000", "122704.078000", "122704.093000", "122704.093000", "122704.093000", "122704.093000", "122704.093000", "122704.093000", "122704.093000", "122704.093000", "122704.109000", "122704.109000", "122704.109000", "122704.109000", "122704.109000", "122704.109000", "122724.062000", "122724.062000", "122724.062000", "122724.078000", "122724.078000", "122724.078000", "122724.078000", "122724.078000", "122724.078000", "122724.078000", "122724.078000", "122724.093000", "122724.093000", "122724.093000", "122724.093000", "122724.093000", "122724.093000", "122724.093000", "122724.109000", "122724.109000", "122724.109000", "122724.109000", "122724.109000", "122724.109000", "122724.109000", "122724.109000", "122744.062000", "122744.062000", "122744.062000", "122744.078000", "122744.078000", "122744.078000", "122744.078000", "122744.078000", "122744.078000", "122744.078000", "122744.093000", "122744.093000", "122744.093000", "122744.093000", "122744.093000", "122744.093000", "122744.093000", "122744.109000", "122744.109000", "122744.109000", "122744.109000", "122744.109000", "122744.109000", "122744.125000", "122744.125000", "122804.062000", "122804.062000", "122804.062000", "122804.078000", "122804.078000", "122804.078000", "122804.078000", "122804.078000", "122804.078000", "122804.078000", "122804.078000", "122804.093000", "122804.093000", "122804.093000", "122804.093000", "122804.093000", "122804.093000", "122804.093000", "122804.109000", "122804.109000", "122804.109000", "122804.109000", "122804.109000", "122804.109000", "122804.109000", "122804.109000", "122824.062000", "122824.062000", "122824.062000", "122824.062000", "122824.078000", "122824.078000", "122824.078000", "122824.078000", "122824.078000", "122824.078000", "122824.078000", "122824.093000", "122824.093000", "122824.093000", "122824.093000", "122824.093000", "122824.093000", "122824.093000", "122824.109000", "122824.109000", "122824.109000", "122824.109000", "122824.109000", "122824.109000", "122824.109000", "122843.343000", "122843.343000", "122843.359000", "122843.359000", "122843.359000", "122843.359000", "122843.359000", "122843.375000", "122843.375000", "122843.375000", "122843.375000", "122843.390000", "122843.390000", "122843.390000", "122843.390000", "122843.390000", "122843.390000", "122843.390000", "122843.406000", "122843.406000", "122843.406000", "122843.406000", "122843.406000", "122843.406000", "122843.406000"],
