{
  "AcquisitionMatrixPE": 104,
  "AcquisitionNumber": 1,
  "AcquisitionTime": "11:09:37.677500",
  "BandwidthPerPixelPhaseEncode": 13.935,
  "BaseResolution": 104,
  "CoilString": "C:HEA;HEP",
  "ConversionSoftware": "dcm2niix",
  "ConversionSoftwareVersion": "v1.0.20210317",
  "DerivedVendorReportedEchoSpacing": 0.000690017,
  "DeviceSerialNumber": "35450",
  "DwellTime": 2.5e-06,
  "EchoTime": 0.0348,
  "EffectiveEchoSpacing": 0.000690017,
  "FlipAngle": 55,
  "ImageComments": "Unaliased MB8/PE3 (remote)",
  "ImageOrientationPatientDICOM": [0.999976, 0.00101987, 0.00690637, -2.74823e-08, 0.989272, -0.146083],
  "ImageType": [
    "ORIGINAL",
    "PRIMARY",
    "M",
    "MB",
    "ND",
    "MOSAIC"
],
  "ImagingFrequency": 123.234,
  "InPlanePhaseEncodingDirectionDICOM": "COL",
  "InstitutionAddress": "Univeristy Ave. 197,Newark,North East,US,07102-1814",
  "InstitutionName": "RUBIC",
  "InstitutionalDepartmentName": "Department",
  "MRAcquisitionType": "2D",
  "MagneticFieldStrength": 3,
  "Manufacturer": "Siemens",
  "ManufacturersModelName": "TrioTim",
  "Modality": "MR",
  "MultibandAccelerationFactor": 8,
  "PartialFourier": 0.875,
  "PatientPosition": "HFS",
  "PercentPhaseFOV": 100,
  "PercentSampling": 100,
  "PhaseEncodingDirection": "j-",
  "PhaseEncodingSteps": 91,
  "PhaseResolution": 1,
  "PixelBandwidth": 1923,
  "ProcedureStepDescription": "Cole^Michael",
  "ProtocolName": "cmrr_mbep2d_bold_2mm_MB8_Rest",
  "PulseSequenceDetails": "%CustomerSeq%\\cmrr_mbep2d_bold",
  "ReceiveCoilName": "32Ch_Head",
  "ReconMatrixPE": 104,
  "RepetitionTime": 0.785,
  "SAR": 0.14633,
  "ScanOptions": "PFP\\FS",
  "ScanningSequence": "EP",
  "SequenceName": "epfid2d1_104",
  "SequenceVariant": "SK\\SS",
  "SeriesDescription": "cmrr_mbep2d_bold_2mm_MB8_Rest",
  "SeriesNumber": 9,
  "ShimSetting": [2138, -319, -7303, 376, -24, -346, 458, 95],
  "SliceThickness": 2,
  "SliceTiming": [0, 0.44, 0.0875, 0.5275, 0.1775, 0.615, 0.265, 0.7025, 0.3525, 0, 0.44, 0.0875, 0.5275, 0.1775, 0.615, 0.265, 0.7025, 0.3525, 0, 0.44, 0.0875, 0.5275, 0.1775, 0.615, 0.265, 0.7025, 0.3525, 0, 0.44, 0.0875, 0.5275, 0.1775, 0.615, 0.265, 0.7025, 0.3525, 0, 0.44, 0.0875, 0.5275, 0.1775, 0.615, 0.265, 0.7025, 0.3525, 0, 0.44, 0.0875, 0.5275, 0.1775, 0.615, 0.265, 0.7025, 0.3525, 0, 0.44, 0.0875, 0.5275, 0.1775, 0.615, 0.265, 0.7025, 0.3525, 0, 0.44, 0.0875, 0.5275, 0.1775, 0.615, 0.265, 0.7025, 0.3525],
  "SoftwareVersions": "syngo MR B19",
  "SpacingBetweenSlices": 2,
  "StationName": "MRC35450",
  "TaskName": "rest",
  "TotalReadoutTime": 0.0710717,
  "TxRefAmp": 325.926,
  "dcmmeta_affine": [
    [-1.9999512434005737, -5.4964669260471055e-08, 0.013962523080408573, 106.21366119384766],
    [-0.0020397421903908253, 1.9785447120666504, -0.29215893149375916, -78.93701934814453],
    [0.013812730088829994, 0.2921660542488098, 1.9784964323043823, -111.5962905883789],
    [0.0, 0.0, 0.0, 1.0]
],
  "dcmmeta_reorient_transform": [
    [0.0, -1.0, 0.0, 103.0],
    [1.0, 0.0, 0.0, 0.0],
    [0.0, 0.0, 1.0, 0.0],
    [0.0, 0.0, 0.0, 1.0]
],
  "dcmmeta_shape": [104, 104, 72, 1070],
  "dcmmeta_slice_dim": 2,
  "dcmmeta_version": 0.6,
  "global": {
    "const": {
      "AcquisitionMatrix": [104, 0, 0, 104],
      "AngioFlag": "N",
      "BitsAllocated": 16,
      "BitsStored": 12,
      "Columns": 936,
      "EchoNumbers": 1,
      "EchoTime": 34.8,
      "EchoTrainLength": 1,
      "FlipAngle": 55.0,
      "HighBit": 11,
      "ImageOrientationPatient": [0.99997563069392, 0.00101987108373, 0.00690636527248, -2.7482335e-08, 0.98927233276856, -0.1460830298791],
      "ImagePositionPatient": [-938.19335971255, -948.77619659236, 34.291796121114],
      "ImageType": [
        "ORIGINAL",
        "PRIMARY",
        "M",
        "MB",
        "ND",
        "MOSAIC"
],
      "ImagedNucleus": "1H",
      "ImagingFrequency": 123.234416,
      "InPlanePhaseEncodingDirection": "COL",
      "MRAcquisitionType": "2D",
      "MagneticFieldStrength": 3.0,
      "Manufacturer": "SIEMENS",
      "ManufacturerModelName": "TrioTim",
      "Modality": "MR",
      "NumberOfAverages": 1.0,
      "NumberOfPhaseEncodingSteps": 91,
      "PercentPhaseFieldOfView": 100.0,
      "PercentSampling": 100.0,
      "PerformedProcedureStepStartTime": "104215.703000",
      "PhotometricInterpretation": "MONOCHROME2",
      "PixelBandwidth": 1923.0,
      "PixelRepresentation": 0,
      "PixelSpacing": [2.0, 2.0],
      "ProtocolName": "cmrr_mbep2d_bold_2mm_MB8_Rest",
      "RepetitionTime": 785.0,
      "Rows": 936,
      "SAR": 0.14633040619259,
      "SamplesPerPixel": 1,
      "ScanOptions": [
        "PFP",
        "FS"
],
      "ScanningSequence": "EP",
      "SequenceName": "epfid2d1_104",
      "SequenceVariant": [
        "SK",
        "SS"
],
      "SeriesDescription": "cmrr_mbep2d_bold_2mm_MB8_Rest",
      "SeriesNumber": 9,
      "SeriesTime": "111012.656000",
      "SliceLocation": -98.123851668551,
      "SliceThickness": 2.0,
      "SmallestImagePixelValue": 0,
      "SoftwareVersions": "syngo MR B19",
      "SpacingBetweenSlices": 1.9999999406198,
      "SpecificCharacterSet": "ISO_IR 100",
      "StudyID": "1",
      "StudyTime": "104215.609000",
      "TransmitCoilName": "Body",
      "VariableFlipAngleFlag": "N",
      "WindowCenterWidthExplanation": "Algo1",
      "dBdt": 0.0},
    "slices": {}
  },
  "time": {
    "samples": {
      "AcquisitionNumber": [1, 2, 3, 4, 5, 6, 7, 8, 9, 10, 11, 12, 13, 14, 15, 16, 17, 18, 19, 20, 21, 22, 23, 24, 25, 26, 27, 28, 29, 30, 31, 32, 33, 34, 35, 36, 37, 38, 39, 40, 41, 42, 43, 44, 45, 46, 47, 48, 49, 50, 51, 52, 53, 54, 55, 56, 57, 58, 59, 60, 61, 62, 63, 64, 65, 66, 67, 68, 69, 70, 71, 72, 73, 74, 75, 76, 77, 78, 79, 80, 81, 82, 83, 84, 85, 86, 87, 88, 89, 90, 91, 92, 93, 94, 95, 96, 97, 98, 99, 100, 101, 102, 103, 104, 105, 106, 107, 108, 109, 110, 111, 112, 113, 114, 115, 116, 117, 118, 119, 120, 121, 122, 123, 124, 125, 126, 127, 128, 129, 130, 131, 132, 133, 134, 135, 136, 137, 138, 139, 140, 141, 142, 143, 144, 145, 146, 147, 148, 149, 150, 151, 152, 153, 154, 155, 156, 157, 158, 159, 160, 161, 162, 163, 164, 165, 166, 167, 168, 169, 170, 171, 172, 173, 174, 175, 176, 177, 178, 179, 180, 181, 182, 183, 184, 185, 186, 187, 188, 189, 190, 191, 192, 193, 194, 195, 196, 197, 198, 199, 200, 201, 202, 203, 204, 205, 206, 207, 208, 209, 210, 211, 212, 213, 214, 215, 216, 217, 218, 219, 220, 221, 222, 223, 224, 225, 226, 227, 228, 229, 230, 231, 232, 233, 234, 235, 236, 237, 238, 239, 240, 241, 242, 243, 244, 245, 246, 247, 248, 249, 250, 251, 252, 253, 254, 255, 256, 257, 258, 259, 260, 261, 262, 263, 264, 265, 266, 267, 268, 269, 270, 271, 272, 273, 274, 275, 276, 277, 278, 279, 280, 281, 282, 283, 284, 285, 286, 287, 288, 289, 290, 291, 292, 293, 294, 295, 296, 297, 298, 299, 300, 301, 302, 303, 304, 305, 306, 307, 308, 309, 310, 311, 312, 313, 314, 315, 316, 317, 318, 319, 320, 321, 322, 323, 324, 325, 326, 327, 328, 329, 330, 331, 332, 333, 334, 335, 336, 337, 338, 339, 340, 341, 342, 343, 344, 345, 346, 347, 348, 349, 350, 351, 352, 353, 354, 355, 356, 357, 358, 359, 360, 361, 362, 363, 364, 365, 366, 367, 368, 369, 370, 371, 372, 373, 374, 375, 376, 377, 378, 379, 380, 381, 382, 383, 384, 385, 386, 387, 388, 389, 390, 391, 392, 393, 394, 395, 396, 397, 398, 399, 400, 401, 402, 403, 404, 405, 406, 407, 408, 409, 410, 411, 412, 413, 414, 415, 416, 417, 418, 419, 420, 421, 422, 423, 424, 425, 426, 427, 428, 429, 430, 431, 432, 433, 434, 435, 436, 437, 438, 439, 440, 441, 442, 443, 444, 445, 446, 447, 448, 449, 450, 451, 452, 453, 454, 455, 456, 457, 458, 459, 460, 461, 462, 463, 464, 465, 466, 467, 468, 469, 470, 471, 472, 473, 474, 475, 476, 477, 478, 479, 480, 481, 482, 483, 484, 485, 486, 487, 488, 489, 490, 491, 492, 493, 494, 495, 496, 497, 498, 499, 500, 501, 502, 503, 504, 505, 506, 507, 508, 509, 510, 511, 512, 513, 514, 515, 516, 517, 518, 519, 520, 521, 522, 523, 524, 525, 526, 527, 528, 529, 530, 531, 532, 533, 534, 535, 536, 537, 538, 539, 540, 541, 542, 543, 544, 545, 546, 547, 548, 549, 550, 551, 552, 553, 554, 555, 556, 557, 558, 559, 560, 561, 562, 563, 564, 565, 566, 567, 568, 569, 570, 571, 572, 573, 574, 575, 576, 577, 578, 579, 580, 581, 582, 583, 584, 585, 586, 587, 588, 589, 590, 591, 592, 593, 594, 595, 596, 597, 598, 599, 600, 601, 602, 603, 604, 605, 606, 607, 608, 609, 610, 611, 612, 613, 614, 615, 616, 617, 618, 619, 620, 621, 622, 623, 624, 625, 626, 627, 628, 629, 630, 631, 632, 633, 634, 635, 636, 637, 638, 639, 640, 641, 642, 643, 644, 645, 646, 647, 648, 649, 650, 651, 652, 653, 654, 655, 656, 657, 658, 659, 660, 661, 662, 663, 664, 665, 666, 667, 668, 669, 670, 671, 672, 673, 674, 675, 676, 677, 678, 679, 680, 681, 682, 683, 684, 685, 686, 687, 688, 689, 690, 691, 692, 693, 694, 695, 696, 697, 698, 699, 700, 701, 702, 703, 704, 705, 706, 707, 708, 709, 710, 711, 712, 713, 714, 715, 716, 717, 718, 719, 720, 721, 722, 723, 724, 725, 726, 727, 728, 729, 730, 731, 732, 733, 734, 735, 736, 737, 738, 739, 740, 741, 742, 743, 744, 745, 746, 747, 748, 749, 750, 751, 752, 753, 754, 755, 756, 757, 758, 759, 760, 761, 762, 763, 764, 765, 766, 767, 768, 769, 770, 771, 772, 773, 774, 775, 776, 777, 778, 779, 780, 781, 782, 783, 784, 785, 786, 787, 788, 789, 790, 791, 792, 793, 794, 795, 796, 797, 798, 799, 800, 801, 802, 803, 804, 805, 806, 807, 808, 809, 810, 811, 812, 813, 814, 815, 816, 817, 818, 819, 820, 821, 822, 823, 824, 825, 826, 827, 828, 829, 830, 831, 832, 833, 834, 835, 836, 837, 838, 839, 840, 841, 842, 843, 844, 845, 846, 847, 848, 849, 850, 851, 852, 853, 854, 855, 856, 857, 858, 859, 860, 861, 862, 863, 864, 865, 866, 867, 868, 869, 870, 871, 872, 873, 874, 875, 876, 877, 878, 879, 880, 881, 882, 883, 884, 885, 886, 887, 888, 889, 890, 891, 892, 893, 894, 895, 896, 897, 898, 899, 900, 901, 902, 903, 904, 905, 906, 907, 908, 909, 910, 911, 912, 913, 914, 915, 916, 917, 918, 919, 920, 921, 922, 923, 924, 925, 926, 927, 928, 929, 930, 931, 932, 933, 934, 935, 936, 937, 938, 939, 940, 941, 942, 943, 944, 945, 946, 947, 948, 949, 950, 951, 952, 953, 954, 955, 956, 957, 958, 959, 960, 961, 962, 963, 964, 965, 966, 967, 968, 969, 970, 971, 972, 973, 974, 975, 976, 977, 978, 979, 980, 981, 982, 983, 984, 985, 986, 987, 988, 989, 990, 991, 992, 993, 994, 995, 996, 997, 998, 999, 1000, 1001, 1002, 1003, 1004, 1005, 1006, 1007, 1008, 1009, 1010, 1011, 1012, 1013, 1014, 1015, 1016, 1017, 1018, 1019, 1020, 1021, 1022, 1023, 1024, 1025, 1026, 1027, 1028, 1029, 1030, 1031, 1032, 1033, 1034, 1035, 1036, 1037, 1038, 1039, 1040, 1041, 1042, 1043, 1044, 1045, 1046, 1047, 1048, 1049, 1050, 1051, 1052, 1053, 1054, 1055, 1056, 1057, 1058, 1059, 1060, 1061, 1062, 1063, 1064, 1065, 1066, 1067, 1068, 1069, 1070],
      "AcquisitionTime": ["110937.677500", "110938.467500", "110939.255000", "110940.042500", "110940.832500", "110941.620000", "110942.407500", "110943.195000", "110943.985000", "110944.772500", "110945.560000", "110946.347500", "110947.137500", "110947.925000", "110948.712500", "110949.500000", "110950.290000", "110951.077500", "110951.865000", "110952.652500", "110953.442500", "110954.230000", "110955.017500", "110955.805000", "110956.595000", "110957.382500", "110958.170000", "110958.960000", "110959.747500", "111000.535000", "111001.322500", "111002.112500", "111002.900000", "111003.687500", "111004.475000", "111005.265000", "111006.052500", "111006.840000", "111007.627500", "111008.417500", "111009.205000", "111009.992500", "111010.780000", "111011.570000", "111012.357500", "111013.145000", "111013.932500", "111014.722500", "111015.510000", "111016.297500", "111017.087500", "111017.875000", "111018.662500", "111019.450000", "111020.240000", "111021.027500", "111021.815000", "111022.602500", "111023.392500", "111024.180000", "111024.967500", "111025.755000", "111026.545000", "111027.332500", "111028.120000", "111028.907500", "111029.697500", "111030.485000", "111031.272500", "111032.060000", "111032.850000", "111033.637500", "111034.425000", "111035.215000", "111036.002500", "111036.790000", "111037.577500", "111038.367500", "111039.155000", "111039.942500", "111040.730000", "111041.520000", "111042.307500", "111043.095000", "111043.882500", "111044.672500", "111045.460000", "111046.247500", "111047.035000", "111047.825000", "111048.612500", "111049.400000", "111050.187500", "111050.977500", "111051.765000", "111052.552500", "111053.342500", "111054.130000", "111054.917500", "111055.705000", "111056.495000", "111057.282500", "111058.070000", "111058.857500", "111059.647500", "111100.435000", "111101.222500", "111102.010000", "111102.800000", "111103.587500", "111104.375000", "111105.162500", "111105.952500", "111106.740000", "111107.527500", "111108.315000", "111109.105000", "111109.892500", "111110.680000", "111111.470000", "111112.257500", "111113.045000", "111113.832500", "111114.622500", "111115.410000", "111116.197500", "111116.985000", "111117.775000", "111118.562500", "111119.350000", "111120.137500", "111120.927500", "111121.715000", "111122.502500", "111123.290000", "111124.080000", "111124.867500", "111125.655000", "111126.445000", "111127.232500", "111128.020000", "111128.807500", "111129.597500", "111130.385000", "111131.172500", "111131.960000", "111132.750000", "111133.537500", "111134.325000", "111135.112500", "111135.902500", "111136.690000", "111137.477500", "111138.265000", "111139.055000", "111139.842500", "111140.630000", "111141.417500", "111142.207500", "111142.995000", "111143.782500", "111144.572500", "111145.360000", "111146.147500", "111146.935000", "111147.725000", "111148.512500", "111149.300000", "111150.087500", "111150.877500", "111151.665000", "111152.452500", "111153.240000", "111154.030000", "111154.817500", "111155.605000", "111156.392500", "111157.182500", "111157.970000", "111158.757500", "111159.545000", "111200.335000", "111201.122500", "111201.910000", "111202.700000", "111203.487500", "111204.275000", "111205.062500", "111205.852500", "111206.640000", "111207.427500", "111208.215000", "111209.005000", "111209.792500", "111210.580000", "111211.367500", "111212.157500", "111212.945000", "111213.732500", "111214.520000", "111215.310000", "111216.097500", "111216.885000", "111217.672500", "111218.462500", "111219.250000", "111220.037500", "111220.827500", "111221.615000", "111222.402500", "111223.190000", "111223.980000", "111224.767500", "111225.555000", "111226.342500", "111227.132500", "111227.920000", "111228.707500", "111229.495000", "111230.285000", "111231.072500", "111231.860000", "111232.647500", "111233.437500", "111234.225000", "111235.012500", "111235.800000", "111236.590000", "111237.377500", "111238.165000", "111238.955000", "111239.742500", "111240.530000", "111241.317500", "111242.107500", "111242.895000", "111243.682500", "111244.470000", "111245.260000", "111246.047500", "111246.835000", "111247.622500", "111248.412500", "111249.200000", "111249.987500", "111250.775000", "111251.565000", "111252.352500", "111253.140000", "111253.927500", "111254.717500", "111255.505000", "111256.292500", "111257.082500", "111257.870000", "111258.657500", "111259.445000", "111300.235000", "111301.022500", "111301.810000", "111302.597500", "111303.387500", "111304.175000", "111304.962500", "111305.750000", "111306.540000", "111307.327500", "111308.115000", "111308.902500", "111309.692500", "111310.480000", "111311.267500", "111312.055000", "111312.845000", "111313.632500", "111314.420000", "111315.210000", "111315.997500", "111316.785000", "111317.572500", "111318.362500", "111319.150000", "111319.937500", "111320.725000", "111321.515000", "111322.302500", "111323.090000", "111323.877500", "111324.667500", "111325.455000", "111326.242500", "111327.030000", "111327.820000", "111328.607500", "111329.395000", "111330.182500", "111330.972500", "111331.760000", "111332.547500", "111333.337500", "111334.125000", "111334.912500", "111335.700000", "111336.490000", "111337.277500", "111338.065000", "111338.852500", "111339.642500", "111340.430000", "111341.217500", "111342.005000", "111342.795000", "111343.582500", "111344.370000", "111345.157500", "111345.947500", "111346.735000", "111347.522500", "111348.310000", "111349.100000", "111349.887500", "111350.675000", "111351.465000", "111352.252500", "111353.040000", "111353.827500", "111354.617500", "111355.405000", "111356.192500", "111356.980000", "111357.770000", "111358.557500", "111359.345000", "111400.132500", "111400.922500", "111401.710000", "111402.497500", "111403.285000", "111404.075000", "111404.862500", "111405.650000", "111406.437500", "111407.227500", "111408.015000", "111408.802500", "111409.592500", "111410.380000", "111411.167500", "111411.955000", "111412.745000", "111413.532500", "111414.320000", "111415.107500", "111415.897500", "111416.685000", "111417.472500", "111418.260000", "111419.050000", "111419.837500", "111420.625000", "111421.412500", "111422.202500", "111422.990000", "111423.777500", "111424.565000", "111425.355000", "111426.142500", "111426.930000", "111427.720000", "111428.507500", "111429.295000", "111430.082500", "111430.872500", "111431.660000", "111432.447500", "111433.235000", "111434.025000", "111434.812500", "111435.600000", "111436.387500", "111437.177500", "111437.965000", "111438.752500", "111439.540000", "111440.330000", "111441.117500", "111441.905000", "111442.695000", "111443.482500", "111444.270000", "111445.057500", "111445.847500", "111446.635000", "111447.422500", "111448.210000", "111449.000000", "111449.787500", "111450.575000", "111451.362500", "111452.152500", "111452.940000", "111453.727500", "111454.515000", "111455.305000", "111456.092500", "111456.880000", "111457.667500", "111458.457500", "111459.245000", "111500.032500", "111500.822500", "111501.610000", "111502.397500", "111503.185000", "111503.975000", "111504.762500", "111505.550000", "111506.337500", "111507.127500", "111507.915000", "111508.702500", "111509.490000", "111510.280000", "111511.067500", "111511.855000", "111512.642500", "111513.432500", "111514.220000", "111515.007500", "111515.795000", "111516.585000", "111517.372500", "111518.160000", "111518.950000", "111519.737500", "111520.525000", "111521.312500", "111522.102500", "111522.890000", "111523.677500", "111524.465000", "111525.255000", "111526.042500", "111526.830000", "111527.617500", "111528.407500", "111529.195000", "111529.982500", "111530.770000", "111531.560000", "111532.347500", "111533.135000", "111533.922500", "111534.712500", "111535.500000", "111536.287500", "111537.077500", "111537.865000", "111538.652500", "111539.440000", "111540.230000", "111541.017500", "111541.805000", "111542.592500", "111543.382500", "111544.170000", "111544.957500", "111545.745000", "111546.535000", "111547.322500", "111548.110000", "111548.897500", "111549.687500", "111550.475000", "111551.262500", "111552.050000", "111552.840000", "111553.627500", "111554.415000", "111555.205000", "111555.992500", "111556.780000", "111557.567500", "111558.357500", "111559.145000", "111559.932500", "111600.720000", "111601.510000", "111602.297500", "111603.085000", "111603.872500", "111604.662500", "111605.450000", "111606.237500", "111607.025000", "111607.815000", "111608.602500", "111609.390000", "111610.177500", "111610.967500", "111611.755000", "111612.542500", "111613.332500", "111614.120000", "111614.907500", "111615.695000", "111616.485000", "111617.272500", "111618.060000", "111618.847500", "111619.637500", "111620.425000", "111621.212500", "111622.000000", "111622.790000", "111623.577500", "111624.365000", "111625.152500", "111625.942500", "111626.730000", "111627.517500", "111628.305000", "111629.095000", "111629.882500", "111630.670000", "111631.460000", "111632.247500", "111633.035000", "111633.822500", "111634.612500", "111635.400000", "111636.187500", "111636.975000", "111637.765000", "111638.552500", "111639.340000", "111640.127500", "111640.917500", "111641.705000", "111642.492500", "111643.280000", "111644.070000", "111644.857500", "111645.645000", "111646.432500", "111647.222500", "111648.010000", "111648.797500", "111649.587500", "111650.375000", "111651.162500", "111651.950000", "111652.740000", "111653.527500", "111654.315000", "111655.102500", "111655.892500", "111656.680000", "111657.467500", "111658.255000", "111659.045000", "111659.832500", "111700.620000", "111701.407500", "111702.197500", "111702.985000", "111703.772500", "111704.560000", "111705.350000", "111706.137500", "111706.925000", "111707.715000", "111708.502500", "111709.290000", "111710.077500", "111710.867500", "111711.655000", "111712.442500", "111713.230000", "111714.020000", "111714.807500", "111715.595000", "111716.382500", "111717.172500", "111717.960000", "111718.747500", "111719.535000", "111720.325000", "111721.112500", "111721.900000", "111722.687500", "111723.477500", "111724.265000", "111725.052500", "111725.842500", "111726.630000", "111727.417500", "111728.205000", "111728.995000", "111729.782500", "111730.570000", "111731.357500", "111732.147500", "111732.935000", "111733.722500", "111734.510000", "111735.300000", "111736.087500", "111736.875000", "111737.662500", "111738.452500", "111739.240000", "111740.027500", "111740.815000", "111741.605000", "111742.392500", "111743.180000", "111743.970000", "111744.757500", "111745.545000", "111746.332500", "111747.122500", "111747.910000", "111748.697500", "111749.485000", "111750.275000", "111751.062500", "111751.850000", "111752.637500", "111753.427500", "111754.215000", "111755.002500", "111755.790000", "111756.580000", "111757.367500", "111758.155000", "111758.945000", "111759.732500", "111800.520000", "111801.307500", "111802.097500", "111802.885000", "111803.672500", "111804.460000", "111805.250000", "111806.037500", "111806.825000", "111807.612500", "111808.402500", "111809.190000", "111809.977500", "111810.765000", "111811.555000", "111812.342500", "111813.130000", "111813.917500", "111814.707500", "111815.495000", "111816.282500", "111817.072500", "111817.860000", "111818.647500", "111819.435000", "111820.225000", "111821.012500", "111821.800000", "111822.587500", "111823.377500", "111824.165000", "111824.952500", "111825.740000", "111826.530000", "111827.317500", "111828.105000", "111828.892500", "111829.682500", "111830.470000", "111831.257500", "111832.045000", "111832.835000", "111833.622500", "111834.410000", "111835.200000", "111835.987500", "111836.775000", "111837.562500", "111838.352500", "111839.140000", "111839.927500", "111840.715000", "111841.505000", "111842.292500", "111843.080000", "111843.867500", "111844.657500", "111845.445000", "111846.232500", "111847.020000", "111847.810000", "111848.597500", "111849.385000", "111850.172500", "111850.962500", "111851.750000", "111852.537500", "111853.327500", "111854.115000", "111854.902500", "111855.690000", "111856.480000", "111857.267500", "111858.055000", "111858.842500", "111859.632500", "111900.420000", "111901.207500", "111901.995000", "111902.785000", "111903.572500", "111904.360000", "111905.147500", "111905.937500", "111906.725000", "111907.512500", "111908.300000", "111909.090000", "111909.877500", "111910.665000", "111911.455000", "111912.242500", "111913.030000", "111913.817500", "111914.607500", "111915.395000", "111916.182500", "111916.970000", "111917.760000", "111918.547500", "111919.335000", "111920.122500", "111920.912500", "111921.700000", "111922.487500", "111923.275000", "111924.065000", "111924.852500", "111925.640000", "111926.427500", "111927.217500", "111928.005000", "111928.792500", "111929.582500", "111930.370000", "111931.157500", "111931.945000", "111932.735000", "111933.522500", "111934.310000", "111935.097500", "111935.887500", "111936.675000", "111937.462500", "111938.250000", "111939.040000", "111939.827500", "111940.615000", "111941.402500", "111942.192500", "111942.980000", "111943.767500", "111944.555000", "111945.345000", "111946.132500", "111946.920000", "111947.710000", "111948.497500", "111949.285000", "111950.072500", "111950.862500", "111951.650000", "111952.437500", "111953.225000", "111954.015000", "111954.802500", "111955.590000", "111956.377500", "111957.167500", "111957.955000", "111958.742500", "111959.530000", "112000.320000", "112001.107500", "112001.895000", "112002.682500", "112003.472500", "112004.260000", "112005.047500", "112005.837500", "112006.625000", "112007.412500", "112008.200000", "112008.990000", "112009.777500", "112010.565000", "112011.352500", "112012.142500", "112012.930000", "112013.717500", "112014.505000", "112015.295000", "112016.082500", "112016.870000", "112017.657500", "112018.447500", "112019.235000", "112020.022500", "112020.810000", "112021.600000", "112022.387500", "112023.175000", "112023.965000", "112024.752500", "112025.540000", "112026.327500", "112027.117500", "112027.905000", "112028.692500", "112029.480000", "112030.270000", "112031.057500", "112031.845000", "112032.632500", "112033.422500", "112034.210000", "112034.997500", "112035.785000", "112036.575000", "112037.362500", "112038.150000", "112038.937500", "112039.727500", "112040.515000", "112041.302500", "112042.092500", "112042.880000", "112043.667500", "112044.455000", "112045.245000", "112046.032500", "112046.820000", "112047.607500", "112048.397500", "112049.185000", "112049.972500", "112050.760000", "112051.550000", "112052.337500", "112053.125000", "112053.912500", "112054.702500", "112055.490000", "112056.277500", "112057.065000", "112057.855000", "112058.642500", "112059.430000", "112100.220000", "112101.007500", "112101.795000", "112102.582500", "112103.372500", "112104.160000", "112104.947500", "112105.735000", "112106.525000", "112107.312500", "112108.100000", "112108.887500", "112109.677500", "112110.465000", "112111.252500", "112112.040000", "112112.830000", "112113.617500", "112114.405000", "112115.195000", "112115.982500", "112116.770000", "112117.557500", "112118.347500", "112119.135000", "112119.922500", "112120.710000", "112121.500000", "112122.287500", "112123.075000", "112123.862500", "112124.652500", "112125.440000", "112126.227500", "112127.015000", "112127.805000", "112128.592500", "112129.380000", "112130.167500", "112130.957500", "112131.745000", "112132.532500", "112133.322500", "112134.110000", "112134.897500", "112135.685000", "112136.475000", "112137.262500", "112138.050000", "112138.837500", "112139.627500", "112140.415000", "112141.202500", "112141.990000", "112142.780000", "112143.567500", "112144.355000", "112145.142500", "112145.932500", "112146.720000", "112147.507500", "112148.295000", "112149.085000", "112149.872500", "112150.660000", "112151.450000", "112152.237500", "112153.025000", "112153.812500", "112154.602500", "112155.390000", "112156.177500", "112156.965000", "112157.755000", "112158.542500", "112159.330000", "112200.117500", "112200.907500", "112201.695000", "112202.482500", "112203.270000", "112204.060000", "112204.847500", "112205.635000", "112206.422500", "112207.212500", "112208.000000", "112208.787500", "112209.577500", "112210.365000", "112211.152500", "112211.940000", "112212.730000", "112213.517500", "112214.305000", "112215.092500", "112215.882500", "112216.670000", "112217.457500", "112218.245000", "112219.035000", "112219.822500", "112220.610000", "112221.397500", "112222.187500", "112222.975000", "112223.762500", "112224.550000", "112225.340000", "112226.127500", "112226.915000", "112227.705000", "112228.492500", "112229.280000", "112230.067500", "112230.857500", "112231.645000", "112232.432500", "112233.220000", "112234.010000", "112234.797500", "112235.585000", "112236.372500", "112237.162500", "112237.950000", "112238.737500", "112239.525000", "112240.315000", "112241.102500", "112241.890000", "112242.677500", "112243.467500", "112244.255000", "112245.042500", "112245.832500", "112246.620000", "112247.407500", "112248.195000", "112248.985000", "112249.772500", "112250.560000", "112251.347500", "112252.137500", "112252.925000", "112253.712500", "112254.500000", "112255.290000", "112256.077500", "112256.865000", "112257.652500", "112258.442500", "112259.230000", "112300.017500", "112300.805000", "112301.595000", "112302.382500", "112303.170000", "112303.960000", "112304.747500", "112305.535000", "112306.322500", "112307.112500", "112307.900000", "112308.687500", "112309.475000", "112310.265000", "112311.052500", "112311.840000", "112312.627500", "112313.417500", "112314.205000", "112314.992500", "112315.780000", "112316.570000", "112317.357500", "112318.145000", "112318.932500", "112319.722500", "112320.510000", "112321.297500", "112322.087500", "112322.875000", "112323.662500", "112324.450000", "112325.240000", "112326.027500", "112326.815000", "112327.602500", "112328.392500", "112329.180000", "112329.967500", "112330.755000", "112331.545000", "112332.332500", "112333.120000", "112333.907500", "112334.697500", "112335.485000", "112336.272500", "112337.060000", "112337.850000", "112338.637500", "112339.425000", "112340.215000"],
