{
  "AcquisitionMatrixPE": 104,
  "AcquisitionNumber": 1,
  "AcquisitionTime": "12:29:9.727500",
  "BandwidthPerPixelPhaseEncode": 13.935,
  "BaseResolution": 104,
  "CoilString": "C:HEA;HEP",
  "ConversionSoftware": "dcm2niix",
  "ConversionSoftwareVersion": "v1.0.20210317",
  "DerivedVendorReportedEchoSpacing": 0.000690017,
  "DeviceSerialNumber": "35450",
  "DwellTime": 2.5e-06,
  "EchoTime": 0.0348,
  "EffectiveEchoSpacing": 0.000690017,
  "FlipAngle": 55,
  "ImageComments": "Unaliased MB8/PE3 (remote)",
  "ImageOrientationPatientDICOM": [0.999976, 0.00101987, 0.00690637, -2.74823e-08, 0.989272, -0.146083],
  "ImageType": [
    "ORIGINAL",
    "PRIMARY",
    "M",
    "MB",
    "ND",
    "MOSAIC"
],
  "ImagingFrequency": 123.234,
  "InPlanePhaseEncodingDirectionDICOM": "COL",
  "InstitutionAddress": "Univeristy Ave. 197,Newark,North East,US,07102-1814",
  "InstitutionName": "RUBIC",
  "InstitutionalDepartmentName": "Department",
  "MRAcquisitionType": "2D",
  "MagneticFieldStrength": 3,
  "Manufacturer": "Siemens",
  "ManufacturersModelName": "TrioTim",
  "Modality": "MR",
  "MultibandAccelerationFactor": 8,
  "PartialFourier": 0.875,
  "PatientPosition": "HFS",
  "PercentPhaseFOV": 100,
  "PercentSampling": 100,
  "PhaseEncodingDirection": "j-",
  "PhaseEncodingSteps": 91,
  "PhaseResolution": 1,
  "PixelBandwidth": 1923,
  "ProcedureStepDescription": "Cole^Michael",
  "ProtocolName": "cmrr_mbep2d_bold_2mm_MB8_Task_8x",
  "PulseSequenceDetails": "%CustomerSeq%\\cmrr_mbep2d_bold",
  "ReceiveCoilName": "32Ch_Head",
  "ReconMatrixPE": 104,
  "RepetitionTime": 0.785,
  "SAR": 0.135223,
  "ScanOptions": "PFP\\FS",
  "ScanningSequence": "EP",
  "SequenceName": "epfid2d1_104",
  "SequenceVariant": "SK\\SS",
  "SeriesDescription": "cmrr_mbep2d_bold_2mm_MB8_Task_8x",
  "SeriesNumber": 27,
  "ShimSetting": [2138, -319, -7303, 376, -24, -346, 458, 95],
  "SliceThickness": 2,
  "SliceTiming": [0, 0.44, 0.0875, 0.5275, 0.175, 0.615, 0.2625, 0.7025, 0.3525, 0, 0.44, 0.0875, 0.5275, 0.175, 0.615, 0.2625, 0.7025, 0.3525, 0, 0.44, 0.0875, 0.5275, 0.175, 0.615, 0.2625, 0.7025, 0.3525, 0, 0.44, 0.0875, 0.5275, 0.175, 0.615, 0.2625, 0.7025, 0.3525, 0, 0.44, 0.0875, 0.5275, 0.175, 0.615, 0.2625, 0.7025, 0.3525, 0, 0.44, 0.0875, 0.5275, 0.175, 0.615, 0.2625, 0.7025, 0.3525, 0, 0.44, 0.0875, 0.5275, 0.175, 0.615, 0.2625, 0.7025, 0.3525, 0, 0.44, 0.0875, 0.5275, 0.175, 0.615, 0.2625, 0.7025, 0.3525],
  "SoftwareVersions": "syngo MR B19",
  "SpacingBetweenSlices": 2,
  "StationName": "MRC35450",
  "TaskName": "cpro",
  "TotalReadoutTime": 0.0710717,
  "TxRefAmp": 325.926,
  "dcmmeta_affine": [
    [-1.9999512434005737, -5.4964669260471055e-08, 0.013962523080408573, 106.21366119384766],
    [-0.0020397421903908253, 1.9785447120666504, -0.29215893149375916, -78.93701934814453],
    [0.013812730088829994, 0.2921660542488098, 1.9784964323043823, -111.5962905883789],
    [0.0, 0.0, 0.0, 1.0]
],
  "dcmmeta_reorient_transform": [
    [0.0, -1.0, 0.0, 103.0],
    [1.0, 0.0, 0.0, 0.0],
    [0.0, 0.0, 1.0, 0.0],
    [0.0, 0.0, 0.0, 1.0]
],
  "dcmmeta_shape": [104, 104, 72, 581],
  "dcmmeta_slice_dim": 2,
  "dcmmeta_version": 0.6,
  "global": {
    "const": {
      "AcquisitionMatrix": [104, 0, 0, 104],
      "AngioFlag": "N",
      "BitsAllocated": 16,
      "BitsStored": 12,
      "Columns": 936,
      "EchoNumbers": 1,
      "EchoTime": 34.8,
      "EchoTrainLength": 1,
      "FlipAngle": 55.0,
      "HighBit": 11,
      "ImageOrientationPatient": [0.99997563069392, 0.00101987108373, 0.00690636527248, -2.7482335e-08, 0.98927233276856, -0.1460830298791],
      "ImagePositionPatient": [-938.19335971255, -948.77619659236, 34.291796121114],
      "ImageType": [
        "ORIGINAL",
        "PRIMARY",
        "M",
        "MB",
        "ND",
        "MOSAIC"
],
      "ImagedNucleus": "1H",
      "ImagingFrequency": 123.234478,
      "InPlanePhaseEncodingDirection": "COL",
      "MRAcquisitionType": "2D",
      "MagneticFieldStrength": 3.0,
      "Manufacturer": "SIEMENS",
      "ManufacturerModelName": "TrioTim",
      "Modality": "MR",
      "NumberOfAverages": 1.0,
      "NumberOfPhaseEncodingSteps": 91,
      "PercentPhaseFieldOfView": 100.0,
      "PercentSampling": 100.0,
      "PerformedProcedureStepStartTime": "104215.703000",
      "PhotometricInterpretation": "MONOCHROME2",
      "PixelBandwidth": 1923.0,
      "PixelRepresentation": 0,
      "PixelSpacing": [2.0, 2.0],
      "ProtocolName": "cmrr_mbep2d_bold_2mm_MB8_Task_8x",
      "RepetitionTime": 785.0,
      "Rows": 936,
      "SAR": 0.13522307380642,
      "SamplesPerPixel": 1,
      "ScanOptions": [
        "PFP",
        "FS"
],
      "ScanningSequence": "EP",
      "SequenceName": "epfid2d1_104",
      "SequenceVariant": [
        "SK",
        "SS"
],
      "SeriesDescription": "cmrr_mbep2d_bold_2mm_MB8_Task_8x",
      "SeriesNumber": 27,
      "SeriesTime": "122932.671000",
      "SliceLocation": -98.123851668551,
      "SliceThickness": 2.0,
      "SmallestImagePixelValue": 0,
      "SoftwareVersions": "syngo MR B19",
      "SpacingBetweenSlices": 1.9999999406198,
      "SpecificCharacterSet": "ISO_IR 100",
      "StudyID": "1",
      "StudyTime": "104215.609000",
      "TransmitCoilName": "Body",
      "VariableFlipAngleFlag": "N",
      "WindowCenterWidthExplanation": "Algo1",
      "dBdt": 0.0},
    "slices": {}
  },
  "time": {
    "samples": {
      "AcquisitionNumber": [1, 2, 3, 4, 5, 6, 7, 8, 9, 10, 11, 12, 13, 14, 15, 16, 17, 18, 19, 20, 21, 22, 23, 24, 25, 26, 27, 28, 29, 30, 31, 32, 33, 34, 35, 36, 37, 38, 39, 40, 41, 42, 43, 44, 45, 46, 47, 48, 49, 50, 51, 52, 53, 54, 55, 56, 57, 58, 59, 60, 61, 62, 63, 64, 65, 66, 67, 68, 69, 70, 71, 72, 73, 74, 75, 76, 77, 78, 79, 80, 81, 82, 83, 84, 85, 86, 87, 88, 89, 90, 91, 92, 93, 94, 95, 96, 97, 98, 99, 100, 101, 102, 103, 104, 105, 106, 107, 108, 109, 110, 111, 112, 113, 114, 115, 116, 117, 118, 119, 120, 121, 122, 123, 124, 125, 126, 127, 128, 129, 130, 131, 132, 133, 134, 135, 136, 137, 138, 139, 140, 141, 142, 143, 144, 145, 146, 147, 148, 149, 150, 151, 152, 153, 154, 155, 156, 157, 158, 159, 160, 161, 162, 163, 164, 165, 166, 167, 168, 169, 170, 171, 172, 173, 174, 175, 176, 177, 178, 179, 180, 181, 182, 183, 184, 185, 186, 187, 188, 189, 190, 191, 192, 193, 194, 195, 196, 197, 198, 199, 200, 201, 202, 203, 204, 205, 206, 207, 208, 209, 210, 211, 212, 213, 214, 215, 216, 217, 218, 219, 220, 221, 222, 223, 224, 225, 226, 227, 228, 229, 230, 231, 232, 233, 234, 235, 236, 237, 238, 239, 240, 241, 242, 243, 244, 245, 246, 247, 248, 249, 250, 251, 252, 253, 254, 255, 256, 257, 258, 259, 260, 261, 262, 263, 264, 265, 266, 267, 268, 269, 270, 271, 272, 273, 274, 275, 276, 277, 278, 279, 280, 281, 282, 283, 284, 285, 286, 287, 288, 289, 290, 291, 292, 293, 294, 295, 296, 297, 298, 299, 300, 301, 302, 303, 304, 305, 306, 307, 308, 309, 310, 311, 312, 313, 314, 315, 316, 317, 318, 319, 320, 321, 322, 323, 324, 325, 326, 327, 328, 329, 330, 331, 332, 333, 334, 335, 336, 337, 338, 339, 340, 341, 342, 343, 344, 345, 346, 347, 348, 349, 350, 351, 352, 353, 354, 355, 356, 357, 358, 359, 360, 361, 362, 363, 364, 365, 366, 367, 368, 369, 370, 371, 372, 373, 374, 375, 376, 377, 378, 379, 380, 381, 382, 383, 384, 385, 386, 387, 388, 389, 390, 391, 392, 393, 394, 395, 396, 397, 398, 399, 400, 401, 402, 403, 404, 405, 406, 407, 408, 409, 410, 411, 412, 413, 414, 415, 416, 417, 418, 419, 420, 421, 422, 423, 424, 425, 426, 427, 428, 429, 430, 431, 432, 433, 434, 435, 436, 437, 438, 439, 440, 441, 442, 443, 444, 445, 446, 447, 448, 449, 450, 451, 452, 453, 454, 455, 456, 457, 458, 459, 460, 461, 462, 463, 464, 465, 466, 467, 468, 469, 470, 471, 472, 473, 474, 475, 476, 477, 478, 479, 480, 481, 482, 483, 484, 485, 486, 487, 488, 489, 490, 491, 492, 493, 494, 495, 496, 497, 498, 499, 500, 501, 502, 503, 504, 505, 506, 507, 508, 509, 510, 511, 512, 513, 514, 515, 516, 517, 518, 519, 520, 521, 522, 523, 524, 525, 526, 527, 528, 529, 530, 531, 532, 533, 534, 535, 536, 537, 538, 539, 540, 541, 542, 543, 544, 545, 546, 547, 548, 549, 550, 551, 552, 553, 554, 555, 556, 557, 558, 559, 560, 561, 562, 563, 564, 565, 566, 567, 568, 569, 570, 571, 572, 573, 574, 575, 576, 577, 578, 579, 580, 581],
      "AcquisitionTime": ["122909.727500", "122910.517500", "122911.305000", "122912.092500", "122912.882500", "122913.670000", "122914.457500", "122915.245000", "122916.035000", "122916.822500", "122917.610000", "122918.397500", "122919.187500", "122919.975000", "122920.762500", "122921.550000", "122922.340000", "122923.127500", "122923.915000", "122924.702500", "122925.492500", "122926.280000", "122927.067500", "122927.855000", "122928.645000", "122929.432500", "122930.220000", "122931.010000", "122931.797500", "122932.585000", "122933.372500", "122934.162500", "122934.950000", "122935.737500", "122936.525000", "122937.315000", "122938.102500", "122938.890000", "122939.677500", "122940.467500", "122941.255000", "122942.042500", "122942.830000", "122943.620000", "122944.407500", "122945.195000", "122945.982500", "122946.772500", "122947.560000", "122948.347500", "122949.137500", "122949.925000", "122950.712500", "122951.500000", "122952.290000", "122953.077500", "122953.865000", "122954.652500", "122955.442500", "122956.230000", "122957.017500", "122957.805000", "122958.595000", "122959.382500", "123000.170000", "123000.957500", "123001.747500", "123002.535000", "123003.322500", "123004.110000", "123004.900000", "123005.687500", "123006.475000", "123007.265000", "123008.052500", "123008.840000", "123009.627500", "123010.417500", "123011.205000", "123011.992500", "123012.780000", "123013.570000", "123014.357500", "123015.145000", "123015.932500", "123016.722500", "123017.510000", "123018.297500", "123019.085000", "123019.875000", "123020.662500", "123021.450000", "123022.237500", "123023.027500", "123023.815000", "123024.602500", "123025.392500", "123026.180000", "123026.967500", "123027.755000", "123028.545000", "123029.332500", "123030.120000", "123030.907500", "123031.697500", "123032.485000", "123033.272500", "123034.060000", "123034.850000", "123035.637500", "123036.425000", "123037.212500", "123038.002500", "123038.790000", "123039.577500", "123040.365000", "123041.155000", "123041.942500", "123042.730000", "123043.520000", "123044.307500", "123045.095000", "123045.882500", "123046.672500", "123047.460000", "123048.247500", "123049.035000", "123049.825000", "123050.612500", "123051.400000", "123052.187500", "123052.977500", "123053.765000", "123054.552500", "123055.340000", "123056.130000", "123056.917500", "123057.705000", "123058.492500", "123059.282500", "123100.070000", "123100.857500", "123101.647500", "123102.435000", "123103.222500", "123104.010000", "123104.800000", "123105.587500", "123106.375000", "123107.162500", "123107.952500", "123108.740000", "123109.527500", "123110.315000", "123111.105000", "123111.892500", "123112.680000", "123113.467500", "123114.257500", "123115.045000", "123115.832500", "123116.620000", "123117.410000", "123118.197500", "123118.985000", "123119.775000", "123120.562500", "123121.350000", "123122.137500", "123122.927500", "123123.715000", "123124.502500", "123125.290000", "123126.080000", "123126.867500", "123127.655000", "123128.442500", "123129.232500", "123130.020000", "123130.807500", "123131.595000", "123132.385000", "123133.172500", "123133.960000", "123134.747500", "123135.537500", "123136.325000", "123137.112500", "123137.902500", "123138.690000", "123139.477500", "123140.265000", "123141.055000", "123141.842500", "123142.630000", "123143.417500", "123144.207500", "123144.995000", "123145.782500", "123146.570000", "123147.360000", "123148.147500", "123148.935000", "123149.722500", "123150.512500", "123151.300000", "123152.087500", "123152.875000", "123153.665000", "123154.452500", "123155.240000", "123156.030000", "123156.817500", "123157.605000", "123158.392500", "123159.182500", "123159.970000", "123200.757500", "123201.545000", "123202.335000", "123203.122500", "123203.910000", "123204.697500", "123205.487500", "123206.275000", "123207.062500", "123207.850000", "123208.640000", "123209.427500", "123210.215000", "123211.005000", "123211.792500", "123212.580000", "123213.367500", "123214.157500", "123214.945000", "123215.732500", "123216.520000", "123217.310000", "123218.097500", "123218.885000", "123219.672500", "123220.462500", "123221.250000", "123222.037500", "123222.825000", "123223.615000", "123224.402500", "123225.190000", "123225.977500", "123226.767500", "123227.555000", "123228.342500", "123229.132500", "123229.920000", "123230.707500", "123231.495000", "123232.285000", "123233.072500", "123233.860000", "123234.647500", "123235.437500", "123236.225000", "123237.012500", "123237.800000", "123238.590000", "123239.377500", "123240.165000", "123240.952500", "123241.742500", "123242.530000", "123243.317500", "123244.105000", "123244.895000", "123245.682500", "123246.470000", "123247.260000", "123248.047500", "123248.835000", "123249.622500", "123250.412500", "123251.200000", "123251.987500", "123252.775000", "123253.565000", "123254.352500", "123255.140000", "123255.927500", "123256.717500", "123257.505000", "123258.292500", "123259.080000", "123259.870000", "123300.657500", "123301.445000", "123302.232500", "123303.022500", "123303.810000", "123304.597500", "123305.387500", "123306.175000", "123306.962500", "123307.750000", "123308.540000", "123309.327500", "123310.115000", "123310.902500", "123311.692500", "123312.480000", "123313.267500", "123314.055000", "123314.845000", "123315.632500", "123316.420000", "123317.207500", "123317.997500", "123318.785000", "123319.572500", "123320.360000", "123321.150000", "123321.937500", "123322.725000", "123323.515000", "123324.302500", "123325.090000", "123325.877500", "123326.667500", "123327.455000", "123328.242500", "123329.030000", "123329.820000", "123330.607500", "123331.395000", "123332.182500", "123332.972500", "123333.760000", "123334.547500", "123335.335000", "123336.125000", "123336.912500", "123337.700000", "123338.487500", "123339.277500", "123340.065000", "123340.852500", "123341.642500", "123342.430000", "123343.217500", "123344.005000", "123344.795000", "123345.582500", "123346.370000", "123347.157500", "123347.947500", "123348.735000", "123349.522500", "123350.310000", "123351.100000", "123351.887500", "123352.675000", "123353.462500", "123354.252500", "123355.040000", "123355.827500", "123356.615000", "123357.405000", "123358.192500", "123358.980000", "123359.770000", "123400.557500", "123401.345000", "123402.132500", "123402.922500", "123403.710000", "123404.497500", "123405.285000", "123406.075000", "123406.862500", "123407.650000", "123408.437500", "123409.227500", "123410.015000", "123410.802500", "123411.590000", "123412.380000", "123413.167500", "123413.955000", "123414.742500", "123415.532500", "123416.320000", "123417.107500", "123417.897500", "123418.685000", "123419.472500", "123420.260000", "123421.050000", "123421.837500", "123422.625000", "123423.412500", "123424.202500", "123424.990000", "123425.777500", "123426.565000", "123427.355000", "123428.142500", "123428.930000", "123429.717500", "123430.507500", "123431.295000", "123432.082500", "123432.870000", "123433.660000", "123434.447500", "123435.235000", "123436.025000", "123436.812500", "123437.600000", "123438.387500", "123439.177500", "123439.965000", "123440.752500", "123441.540000", "123442.330000", "123443.117500", "123443.905000", "123444.692500", "123445.482500", "123446.270000", "123447.057500", "123447.845000", "123448.635000", "123449.422500", "123450.210000", "123450.997500", "123451.787500", "123452.575000", "123453.362500", "123454.152500", "123454.940000", "123455.727500", "123456.515000", "123457.305000", "123458.092500", "123458.880000", "123459.667500", "123500.457500", "123501.245000", "123502.032500", "123502.820000", "123503.610000", "123504.397500", "123505.185000", "123505.972500", "123506.762500", "123507.550000", "123508.337500", "123509.125000", "123509.915000", "123510.702500", "123511.490000", "123512.280000", "123513.067500", "123513.855000", "123514.642500", "123515.432500", "123516.220000", "123517.007500", "123517.795000", "123518.585000", "123519.372500", "123520.160000", "123520.947500", "123521.737500", "123522.525000", "123523.312500", "123524.100000", "123524.890000", "123525.677500", "123526.465000", "123527.255000", "123528.042500", "123528.830000", "123529.617500", "123530.407500", "123531.195000", "123531.982500", "123532.770000", "123533.560000", "123534.347500", "123535.135000", "123535.922500", "123536.712500", "123537.500000", "123538.287500", "123539.075000", "123539.865000", "123540.652500", "123541.440000", "123542.227500", "123543.017500", "123543.805000", "123544.592500", "123545.382500", "123546.170000", "123546.957500", "123547.745000", "123548.535000", "123549.322500", "123550.110000", "123550.897500", "123551.687500", "123552.475000", "123553.262500", "123554.050000", "123554.840000", "123555.627500", "123556.415000", "123557.202500", "123557.992500", "123558.780000", "123559.567500", "123600.355000", "123601.145000", "123601.932500", "123602.720000", "123603.510000", "123604.297500", "123605.085000", "123605.872500", "123606.662500", "123607.450000", "123608.237500", "123609.025000", "123609.815000", "123610.602500", "123611.390000", "123612.177500", "123612.967500", "123613.755000", "123614.542500", "123615.330000", "123616.120000", "123616.907500", "123617.695000", "123618.482500", "123619.272500", "123620.060000", "123620.847500", "123621.637500", "123622.425000", "123623.212500", "123624.000000", "123624.790000", "123625.577500", "123626.365000", "123627.152500", "123627.942500", "123628.730000", "123629.517500", "123630.305000", "123631.095000", "123631.882500", "123632.670000", "123633.457500", "123634.247500", "123635.035000", "123635.822500", "123636.610000", "123637.400000", "123638.187500", "123638.975000", "123639.765000", "123640.552500", "123641.340000", "123642.127500", "123642.917500", "123643.705000", "123644.492500", "123645.280000", "123646.070000", "123646.857500"],
      "ContentTime": ["122932.671000", "122932.671000", "122932.671000", "122932.671000", "122932.671000", "122932.671000", "122932.687000", "122932.687000", "122932.687000", "122932.687000", "122932.687000", "122932.687000", "122932.703000", "122932.703000", "122932.703000", "122932.703000", "122932.703000", "122932.703000", "122932.703000", "122932.718000", "122932.718000", "122932.718000", "122932.718000", "122932.718000", "122932.734000", "122932.734000", "122952.640000", "122952.640000", "122952.640000", "122952.640000", "122952.656000", "122952.656000", "122952.656000", "122952.656000", "122952.656000", "122952.656000", "122952.656000", "122952.671000", "122952.671000", "122952.671000", "122952.671000", "122952.671000", "122952.671000", "122952.671000", "122952.671000", "122952.687000", "122952.687000", "122952.687000", "122952.687000", "122952.687000", "122952.687000", "123012.640000", "123012.640000", "123012.640000", "123012.640000", "123012.656000", "123012.656000", "123012.656000", "123012.656000", "123012.656000", "123012.656000", "123012.656000", "123012.671000", "123012.671000", "123012.671000", "123012.671000", "123012.671000", "123012.671000", "123012.671000", "123012.671000", "123012.687000", "123012.687000", "123012.687000", "123012.687000", "123012.687000", "123012.687000", "123012.687000", "123032.640000", "123032.640000", "123032.640000", "123032.640000", "123032.656000", "123032.656000", "123032.656000", "123032.656000", "123032.656000", "123032.656000", "123032.656000", "123032.671000", "123032.671000", "123032.671000", "123032.671000", "123032.671000", "123032.671000", "123032.671000", "123032.671000", "123032.687000", "123032.687000", "123032.687000", "123032.687000", "123032.687000", "123032.703000", "123052.640000", "123052.640000", "123052.640000", "123052.640000", "123052.656000", "123052.656000", "123052.656000", "123052.656000", "123052.656000", "123052.656000", "123052.656000", "123052.671000", "123052.671000", "123052.671000", "123052.671000", "123052.671000", "123052.671000", "123052.671000", "123052.687000", "123052.687000", "123052.687000", "123052.687000", "123052.687000", "123052.687000", "123052.687000", "123052.687000", "123112.640000", "123112.640000", "123112.640000", "123112.656000", "123112.656000", "123112.656000", "123112.656000", "123112.656000", "123112.656000", "123112.656000", "123112.656000", "123112.671000", "123112.671000", "123112.671000", "123112.671000", "123112.671000", "123112.671000", "123112.671000", "123112.687000", "123112.687000", "123112.687000", "123112.687000", "123112.687000", "123112.687000", "123112.687000", "123132.640000", "123132.640000", "123132.640000", "123132.656000", "123132.656000", "123132.656000", "123132.656000", "123132.656000", "123132.656000", "123132.656000", "123132.656000", "123132.671000", "123132.671000", "123132.671000", "123132.671000", "123132.671000", "123132.671000", "123132.671000", "123132.687000", "123132.687000", "123132.687000", "123132.687000", "123132.687000", "123132.703000", "123132.703000", "123132.703000", "123152.640000", "123152.640000", "123152.640000", "123152.640000", "123152.656000", "123152.656000", "123152.656000", "123152.656000", "123152.656000", "123152.656000", "123152.656000", "123152.671000", "123152.671000", "123152.671000", "123152.671000", "123152.671000", "123152.671000", "123152.671000", "123152.687000", "123152.687000", "123152.687000", "123152.687000", "123152.687000", "123152.687000", "123152.687000", "123212.640000", "123212.640000", "123212.640000", "123212.640000", "123212.656000", "123212.656000", "123212.656000", "123212.656000", "123212.671000", "123212.671000", "123212.671000", "123212.671000", "123212.671000", "123212.671000", "123212.671000", "123212.671000", "123212.687000", "123212.687000", "123212.687000", "123212.687000", "123212.687000", "123212.687000", "123212.687000", "123212.703000", "123212.703000", "123212.703000", "123232.640000", "123232.640000", "123232.640000", "123232.640000", "123232.656000", "123232.656000", "123232.656000", "123232.656000", "123232.656000", "123232.656000", "123232.656000", "123232.671000", "123232.671000", "123232.671000", "123232.671000", "123232.671000", "123232.671000", "123232.671000", "123232.687000", "123232.687000", "123232.687000", "123232.687000", "123232.687000", "123232.687000", "123232.703000", "123252.640000", "123252.640000", "123252.640000", "123252.640000", "123252.656000", "123252.656000", "123252.656000", "123252.656000", "123252.656000", "123252.656000", "123252.656000", "123252.671000", "123252.671000", "123252.671000", "123252.671000", "123252.671000", "123252.671000", "123252.671000", "123252.687000", "123252.687000", "123252.687000", "123252.687000", "123252.687000", "123252.703000", "123252.703000", "123312.640000", "123312.640000", "123312.640000", "123312.656000", "123312.656000", "123312.656000", "123312.656000", "123312.656000", "123312.656000", "123312.656000", "123312.656000", "123312.671000", "123312.671000", "123312.671000", "123312.671000", "123312.671000", "123312.671000", "123312.671000", "123312.687000", "123312.687000", "123312.687000", "123312.687000", "123312.687000", "123312.687000", "123312.687000", "123312.703000", "123332.640000", "123332.640000", "123332.640000", "123332.656000", "123332.656000", "123332.656000", "123332.656000", "123332.656000", "123332.656000", "123332.656000", "123332.656000", "123332.671000", "123332.671000", "123332.671000", "123332.671000", "123332.671000", "123332.671000", "123332.687000", "123332.687000", "123332.687000", "123332.687000", "123332.687000", "123332.687000", "123332.687000", "123332.703000", "123352.640000", "123352.640000", "123352.640000", "123352.656000", "123352.656000", "123352.656000", "123352.656000", "123352.656000", "123352.656000", "123352.656000", "123352.671000", "123352.671000", "123352.671000", "123352.671000", "123352.671000", "123352.671000", "123352.671000", "123352.687000", "123352.687000", "123352.687000", "123352.687000", "123352.687000", "123352.687000", "123352.687000", "123352.703000", "123352.703000", "123412.640000", "123412.640000", "123412.640000", "123412.656000", "123412.656000", "123412.656000", "123412.656000", "123412.656000", "123412.656000", "123412.656000", "123412.656000", "123412.671000", "123412.671000", "123412.671000", "123412.671000", "123412.671000", "123412.671000", "123412.671000", "123412.687000", "123412.687000", "123412.687000", "123412.687000", "123412.687000", "123412.687000", "123412.687000", "123432.640000", "123432.640000", "123432.640000", "123432.656000", "123432.656000", "123432.656000", "123432.656000", "123432.656000", "123432.656000", "123432.671000", "123432.671000", "123432.671000", "123432.671000", "123432.671000", "123432.671000", "123432.671000", "123432.687000", "123432.687000", "123432.687000", "123432.687000", "123432.687000", "123432.687000", "123432.687000", "123432.687000", "123432.703000", "123432.703000", "123452.640000", "123452.640000", "123452.640000", "123452.656000", "123452.656000", "123452.656000", "123452.656000", "123452.656000", "123452.656000", "123452.656000", "123452.656000", "123452.671000", "123452.671000", "123452.671000", "123452.671000", "123452.671000", "123452.671000", "123452.671000", "123452.687000", "123452.687000", "123452.687000", "123452.687000", "123452.687000", "123452.687000", "123452.687000", "123512.640000", "123512.640000", "123512.640000", "123512.640000", "123512.656000", "123512.656000", "123512.656000", "123512.656000", "123512.656000", "123512.656000", "123512.656000", "123512.671000", "123512.671000", "123512.671000", "123512.671000", "123512.671000", "123512.671000", "123512.671000", "123512.687000", "123512.687000", "123512.687000", "123512.687000", "123512.687000", "123512.687000", "123512.687000", "123512.687000", "123532.640000", "123532.640000", "123532.640000", "123532.640000", "123532.656000", "123532.656000", "123532.656000", "123532.656000", "123532.656000", "123532.656000", "123532.656000", "123532.671000", "123532.671000", "123532.671000", "123532.671000", "123532.671000", "123532.671000", "123532.671000", "123532.687000", "123532.687000", "123532.687000", "123532.687000", "123532.687000", "123532.687000", "123532.687000", "123552.640000", "123552.640000", "123552.640000", "123552.656000", "123552.656000", "123552.656000", "123552.656000", "123552.656000", "123552.656000", "123552.656000", "123552.656000", "123552.671000", "123552.671000", "123552.671000", "123552.671000", "123552.671000", "123552.671000", "123552.671000", "123552.687000", "123552.687000", "123552.687000", "123552.687000", "123552.687000", "123552.687000", "123552.703000", "123552.703000", "123612.640000", "123612.640000", "123612.640000", "123612.640000", "123612.656000", "123612.656000", "123612.656000", "123612.656000", "123612.656000", "123612.656000", "123612.656000", "123612.671000", "123612.671000", "123612.671000", "123612.671000", "123612.671000", "123612.671000", "123612.671000", "123612.671000", "123612.687000", "123612.687000", "123612.687000", "123612.687000", "123612.687000", "123612.687000", "123632.640000", "123632.640000", "123632.640000", "123632.640000", "123632.656000", "123632.656000", "123632.656000", "123632.656000", "123632.656000", "123632.656000", "123632.656000", "123632.671000", "123632.671000", "123632.671000", "123632.671000", "123632.671000", "123632.671000", "123632.671000", "123632.671000", "123632.687000", "123632.687000", "123632.687000", "123632.687000", "123632.687000", "123632.687000", "123632.703000", "123648.234000", "123648.234000", "123648.234000", "123648.250000", "123648.250000", "123648.250000", "123648.250000", "123648.250000", "123648.250000", "123648.250000", "123648.250000", "123648.265000", "123648.265000", "123648.265000", "123648.265000", "123648.281000", "123648.281000", "123648.281000", "123648.281000", "123648.281000"],
