{
  "AcquisitionMatrixPE": 104,
  "AcquisitionNumber": 1,
  "AcquisitionTime": "16:36:30.757500",
  "BandwidthPerPixelPhaseEncode": 13.935,
  "BaseResolution": 104,
  "CoilString": "C:HEA;HEP",
  "ConversionSoftware": "dcm2niix",
  "ConversionSoftwareVersion": "v1.0.20210317",
  "DerivedVendorReportedEchoSpacing": 0.000690017,
  "DeviceSerialNumber": "35450",
  "DwellTime": 2.5e-06,
  "EchoTime": 0.0348,
  "EffectiveEchoSpacing": 0.000690017,
  "FlipAngle": 55,
  "ImageComments": "Unaliased MB8/PE3",
  "ImageOrientationPatientDICOM": [0.999919, 0.00205885, 0.0125729, -9.39616e-09, 0.986856, -0.1616],
  "ImageType": [
    "ORIGINAL",
    "PRIMARY",
    "M",
    "MB",
    "ND",
    "MOSAIC"
],
  "ImagingFrequency": 123.235,
  "InPlanePhaseEncodingDirectionDICOM": "COL",
  "InstitutionAddress": "Univeristy Ave. 197,Newark,North East,US,07102-1814",
  "InstitutionName": "RUBIC",
  "InstitutionalDepartmentName": "Department",
  "MRAcquisitionType": "2D",
  "MagneticFieldStrength": 3,
  "Manufacturer": "Siemens",
  "ManufacturersModelName": "TrioTim",
  "Modality": "MR",
  "MultibandAccelerationFactor": 8,
  "PartialFourier": 0.875,
  "PatientPosition": "HFS",
  "PercentPhaseFOV": 100,
  "PercentSampling": 100,
  "PhaseEncodingDirection": "j-",
  "PhaseEncodingSteps": 91,
  "PhaseResolution": 1,
  "PixelBandwidth": 1923,
  "ProcedureStepDescription": "Cole^Michael",
  "ProtocolName": "cmrr_mbep2d_bold_2mm_MB8_Task_8x",
  "PulseSequenceDetails": "%CustomerSeq%\\cmrr_mbep2d_bold",
  "ReceiveCoilName": "32Ch_Head",
  "ReconMatrixPE": 104,
  "RepetitionTime": 0.785,
  "SAR": 0.108221,
  "ScanOptions": "PFP\\FS",
  "ScanningSequence": "EP",
  "SequenceName": "epfid2d1_104",
  "SequenceVariant": "SK\\SS",
  "SeriesDescription": "cmrr_mbep2d_bold_2mm_MB8_Task_8x",
  "SeriesNumber": 25,
  "ShimSetting": [2135, -413, -7251, 553, 67, -287, 99, 64],
  "SliceThickness": 2,
  "SliceTiming": [0, 0.4375, 0.0875, 0.525, 0.175, 0.6125, 0.2625, 0.7, 0.35, 0, 0.4375, 0.0875, 0.525, 0.175, 0.6125, 0.2625, 0.7, 0.35, 0, 0.4375, 0.0875, 0.525, 0.175, 0.6125, 0.2625, 0.7, 0.35, 0, 0.4375, 0.0875, 0.525, 0.175, 0.6125, 0.2625, 0.7, 0.35, 0, 0.4375, 0.0875, 0.525, 0.175, 0.6125, 0.2625, 0.7, 0.35, 0, 0.4375, 0.0875, 0.525, 0.175, 0.6125, 0.2625, 0.7, 0.35, 0, 0.4375, 0.0875, 0.525, 0.175, 0.6125, 0.2625, 0.7, 0.35, 0, 0.4375, 0.0875, 0.525, 0.175, 0.6125, 0.2625, 0.7, 0.35],
  "SoftwareVersions": "syngo MR B19",
  "SpacingBetweenSlices": 2,
  "StationName": "MRC35450",
  "TaskName": "cpro",
  "TotalReadoutTime": 0.0710717,
  "TxRefAmp": 315.523,
  "dcmmeta_affine": [
    [-1.9998376369476318, -1.8792327693972766e-08, 0.02548067271709442, 103.05376434326172],
    [-0.004117702133953571, 1.9737125635147095, -0.3231743276119232, -78.75324249267578],
    [0.02514575980603695, 0.3232005536556244, 1.9735524654388428, -107.64749908447266],
    [0.0, 0.0, 0.0, 1.0]
],
  "dcmmeta_reorient_transform": [
    [0.0, -1.0, 0.0, 103.0],
    [1.0, 0.0, 0.0, 0.0],
    [0.0, 0.0, 1.0, 0.0],
    [0.0, 0.0, 0.0, 1.0]
],
  "dcmmeta_shape": [104, 104, 72, 581],
  "dcmmeta_slice_dim": 2,
  "dcmmeta_version": 0.6,
  "global": {
    "const": {
      "AcquisitionMatrix": [104, 0, 0, 104],
      "AngioFlag": "N",
      "BitsAllocated": 16,
      "BitsStored": 12,
      "Columns": 936,
      "EchoNumbers": 1,
      "EchoTime": 34.8,
      "EchoTrainLength": 1,
      "FlipAngle": 55.0,
      "HighBit": 11,
      "ImageOrientationPatient": [0.99991883861804, 0.00205885117722, 0.0125728798845, -9.396164e-09, 0.98685629701143, -0.1616002755223],
      "ImagePositionPatient": [-934.98623024117, -947.31655906651, 49.63295286387],
      "ImageType": [
        "ORIGINAL",
        "PRIMARY",
        "M",
        "MB",
        "ND",
        "MOSAIC"
],
      "ImagedNucleus": "1H",
      "ImagingFrequency": 123.234683,
      "InPlanePhaseEncodingDirection": "COL",
      "MRAcquisitionType": "2D",
      "MagneticFieldStrength": 3.0,
      "Manufacturer": "SIEMENS",
      "ManufacturerModelName": "TrioTim",
      "Modality": "MR",
      "NumberOfAverages": 1.0,
      "NumberOfPhaseEncodingSteps": 91,
      "PercentPhaseFieldOfView": 100.0,
      "PercentSampling": 100.0,
      "PerformedProcedureStepStartTime": "145533.859000",
      "PhotometricInterpretation": "MONOCHROME2",
      "PixelBandwidth": 1923.0,
      "PixelRepresentation": 0,
      "PixelSpacing": [2.0, 2.0],
      "ProtocolName": "cmrr_mbep2d_bold_2mm_MB8_Task_8x",
      "RepetitionTime": 785.0,
      "Rows": 936,
      "SAR": 0.10822117282634,
      "SamplesPerPixel": 1,
      "ScanOptions": [
        "PFP",
        "FS"
],
      "ScanningSequence": "EP",
      "SequenceName": "epfid2d1_104",
      "SequenceVariant": [
        "SK",
        "SS"
],
      "SeriesDescription": "cmrr_mbep2d_bold_2mm_MB8_Task_8x",
      "SeriesNumber": 25,
      "SeriesTime": "182521.968000",
      "SliceLocation": -92.185536084773,
      "SliceThickness": 2.0,
      "SmallestImagePixelValue": 0,
      "SoftwareVersions": "syngo MR B19",
      "SpacingBetweenSlices": 2.0000000326651,
      "SpecificCharacterSet": "ISO_IR 100",
      "StudyID": "1",
      "StudyTime": "145533.765000",
      "TransmitCoilName": "Body",
      "VariableFlipAngleFlag": "N",
      "WindowCenterWidthExplanation": "Algo1",
      "dBdt": 0.0},
    "slices": {}
  },
  "time": {
    "samples": {
      "AcquisitionNumber": [1, 2, 3, 4, 5, 6, 7, 8, 9, 10, 11, 12, 13, 14, 15, 16, 17, 18, 19, 20, 21, 22, 23, 24, 25, 26, 27, 28, 29, 30, 31, 32, 33, 34, 35, 36, 37, 38, 39, 40, 41, 42, 43, 44, 45, 46, 47, 48, 49, 50, 51, 52, 53, 54, 55, 56, 57, 58, 59, 60, 61, 62, 63, 64, 65, 66, 67, 68, 69, 70, 71, 72, 73, 74, 75, 76, 77, 78, 79, 80, 81, 82, 83, 84, 85, 86, 87, 88, 89, 90, 91, 92, 93, 94, 95, 96, 97, 98, 99, 100, 101, 102, 103, 104, 105, 106, 107, 108, 109, 110, 111, 112, 113, 114, 115, 116, 117, 118, 119, 120, 121, 122, 123, 124, 125, 126, 127, 128, 129, 130, 131, 132, 133, 134, 135, 136, 137, 138, 139, 140, 141, 142, 143, 144, 145, 146, 147, 148, 149, 150, 151, 152, 153, 154, 155, 156, 157, 158, 159, 160, 161, 162, 163, 164, 165, 166, 167, 168, 169, 170, 171, 172, 173, 174, 175, 176, 177, 178, 179, 180, 181, 182, 183, 184, 185, 186, 187, 188, 189, 190, 191, 192, 193, 194, 195, 196, 197, 198, 199, 200, 201, 202, 203, 204, 205, 206, 207, 208, 209, 210, 211, 212, 213, 214, 215, 216, 217, 218, 219, 220, 221, 222, 223, 224, 225, 226, 227, 228, 229, 230, 231, 232, 233, 234, 235, 236, 237, 238, 239, 240, 241, 242, 243, 244, 245, 246, 247, 248, 249, 250, 251, 252, 253, 254, 255, 256, 257, 258, 259, 260, 261, 262, 263, 264, 265, 266, 267, 268, 269, 270, 271, 272, 273, 274, 275, 276, 277, 278, 279, 280, 281, 282, 283, 284, 285, 286, 287, 288, 289, 290, 291, 292, 293, 294, 295, 296, 297, 298, 299, 300, 301, 302, 303, 304, 305, 306, 307, 308, 309, 310, 311, 312, 313, 314, 315, 316, 317, 318, 319, 320, 321, 322, 323, 324, 325, 326, 327, 328, 329, 330, 331, 332, 333, 334, 335, 336, 337, 338, 339, 340, 341, 342, 343, 344, 345, 346, 347, 348, 349, 350, 351, 352, 353, 354, 355, 356, 357, 358, 359, 360, 361, 362, 363, 364, 365, 366, 367, 368, 369, 370, 371, 372, 373, 374, 375, 376, 377, 378, 379, 380, 381, 382, 383, 384, 385, 386, 387, 388, 389, 390, 391, 392, 393, 394, 395, 396, 397, 398, 399, 400, 401, 402, 403, 404, 405, 406, 407, 408, 409, 410, 411, 412, 413, 414, 415, 416, 417, 418, 419, 420, 421, 422, 423, 424, 425, 426, 427, 428, 429, 430, 431, 432, 433, 434, 435, 436, 437, 438, 439, 440, 441, 442, 443, 444, 445, 446, 447, 448, 449, 450, 451, 452, 453, 454, 455, 456, 457, 458, 459, 460, 461, 462, 463, 464, 465, 466, 467, 468, 469, 470, 471, 472, 473, 474, 475, 476, 477, 478, 479, 480, 481, 482, 483, 484, 485, 486, 487, 488, 489, 490, 491, 492, 493, 494, 495, 496, 497, 498, 499, 500, 501, 502, 503, 504, 505, 506, 507, 508, 509, 510, 511, 512, 513, 514, 515, 516, 517, 518, 519, 520, 521, 522, 523, 524, 525, 526, 527, 528, 529, 530, 531, 532, 533, 534, 535, 536, 537, 538, 539, 540, 541, 542, 543, 544, 545, 546, 547, 548, 549, 550, 551, 552, 553, 554, 555, 556, 557, 558, 559, 560, 561, 562, 563, 564, 565, 566, 567, 568, 569, 570, 571, 572, 573, 574, 575, 576, 577, 578, 579, 580, 581],
      "AcquisitionTime": ["163630.757500", "163631.545000", "163632.332500", "163633.122500", "163633.910000", "163634.697500", "163635.487500", "163636.275000", "163637.062500", "163637.850000", "163638.640000", "163639.427500", "163640.215000", "163641.002500", "163641.792500", "163642.580000", "163643.367500", "163644.155000", "163644.945000", "163645.732500", "163646.520000", "163647.307500", "163648.097500", "163648.885000", "163649.672500", "163650.460000", "163651.250000", "163652.037500", "163652.825000", "163653.615000", "163654.402500", "163655.190000", "163655.977500", "163656.767500", "163657.555000", "163658.342500", "163659.130000", "163659.920000", "163700.707500", "163701.495000", "163702.282500", "163703.072500", "163703.860000", "163704.647500", "163705.435000", "163706.225000", "163707.012500", "163707.800000", "163708.587500", "163709.377500", "163710.165000", "163710.952500", "163711.742500", "163712.530000", "163713.317500", "163714.105000", "163714.895000", "163715.682500", "163716.470000", "163717.257500", "163718.047500", "163718.835000", "163719.622500", "163720.410000", "163721.200000", "163721.987500", "163722.775000", "163723.562500", "163724.352500", "163725.140000", "163725.927500", "163726.715000", "163727.505000", "163728.292500", "163729.080000", "163729.870000", "163730.657500", "163731.445000", "163732.232500", "163733.022500", "163733.810000", "163734.597500", "163735.385000", "163736.175000", "163736.962500", "163737.750000", "163738.537500", "163739.327500", "163740.115000", "163740.902500", "163741.690000", "163742.480000", "163743.267500", "163744.055000", "163744.842500", "163745.632500", "163746.420000", "163747.207500", "163747.997500", "163748.785000", "163749.572500", "163750.360000", "163751.150000", "163751.937500", "163752.725000", "163753.512500", "163754.302500", "163755.090000", "163755.877500", "163756.665000", "163757.455000", "163758.242500", "163759.030000", "163759.817500", "163800.607500", "163801.395000", "163802.182500", "163802.970000", "163803.760000", "163804.547500", "163805.335000", "163806.125000", "163806.912500", "163807.700000", "163808.487500", "163809.277500", "163810.065000", "163810.852500", "163811.640000", "163812.430000", "163813.217500", "163814.005000", "163814.792500", "163815.582500", "163816.370000", "163817.157500", "163817.945000", "163818.735000", "163819.522500", "163820.310000", "163821.097500", "163821.887500", "163822.675000", "163823.462500", "163824.252500", "163825.040000", "163825.827500", "163826.615000", "163827.405000", "163828.192500", "163828.980000", "163829.767500", "163830.557500", "163831.345000", "163832.132500", "163832.920000", "163833.710000", "163834.497500", "163835.285000", "163836.072500", "163836.862500", "163837.650000", "163838.437500", "163839.225000", "163840.015000", "163840.802500", "163841.590000", "163842.380000", "163843.167500", "163843.955000", "163844.742500", "163845.532500", "163846.320000", "163847.107500", "163847.895000", "163848.685000", "163849.472500", "163850.260000", "163851.047500", "163851.837500", "163852.625000", "163853.412500", "163854.200000", "163854.990000", "163855.777500", "163856.565000", "163857.352500", "163858.142500", "163858.930000", "163859.717500", "163900.507500", "163901.295000", "163902.082500", "163902.870000", "163903.660000", "163904.447500", "163905.235000", "163906.022500", "163906.812500", "163907.600000", "163908.387500", "163909.175000", "163909.965000", "163910.752500", "163911.540000", "163912.327500", "163913.117500", "163913.905000", "163914.692500", "163915.480000", "163916.270000", "163917.057500", "163917.845000", "163918.635000", "163919.422500", "163920.210000", "163920.997500", "163921.787500", "163922.575000", "163923.362500", "163924.150000", "163924.940000", "163925.727500", "163926.515000", "163927.302500", "163928.092500", "163928.880000", "163929.667500", "163930.455000", "163931.245000", "163932.032500", "163932.820000", "163933.610000", "163934.397500", "163935.185000", "163935.972500", "163936.762500", "163937.550000", "163938.337500", "163939.125000", "163939.915000", "163940.702500", "163941.490000", "163942.277500", "163943.067500", "163943.855000", "163944.642500", "163945.430000", "163946.220000", "163947.007500", "163947.795000", "163948.582500", "163949.372500", "163950.160000", "163950.947500", "163951.737500", "163952.525000", "163953.312500", "163954.100000", "163954.890000", "163955.677500", "163956.465000", "163957.252500", "163958.042500", "163958.830000", "163959.617500", "164000.405000", "164001.195000", "164001.982500", "164002.770000", "164003.557500", "164004.347500", "164005.135000", "164005.922500", "164006.710000", "164007.500000", "164008.287500", "164009.075000", "164009.865000", "164010.652500", "164011.440000", "164012.227500", "164013.017500", "164013.805000", "164014.592500", "164015.380000", "164016.170000", "164016.957500", "164017.745000", "164018.532500", "164019.322500", "164020.110000", "164020.897500", "164021.685000", "164022.475000", "164023.262500", "164024.050000", "164024.837500", "164025.627500", "164026.415000", "164027.202500", "164027.992500", "164028.780000", "164029.567500", "164030.355000", "164031.145000", "164031.932500", "164032.720000", "164033.507500", "164034.297500", "164035.085000", "164035.872500", "164036.660000", "164037.450000", "164038.237500", "164039.025000", "164039.812500", "164040.602500", "164041.390000", "164042.177500", "164042.965000", "164043.755000", "164044.542500", "164045.330000", "164046.120000", "164046.907500", "164047.695000", "164048.482500", "164049.272500", "164050.060000", "164050.847500", "164051.635000", "164052.425000", "164053.212500", "164054.000000", "164054.787500", "164055.577500", "164056.365000", "164057.152500", "164057.940000", "164058.730000", "164059.517500", "164100.305000", "164101.092500", "164101.882500", "164102.670000", "164103.457500", "164104.247500", "164105.035000", "164105.822500", "164106.610000", "164107.400000", "164108.187500", "164108.975000", "164109.762500", "164110.552500", "164111.340000", "164112.127500", "164112.915000", "164113.705000", "164114.492500", "164115.280000", "164116.067500", "164116.857500", "164117.645000", "164118.432500", "164119.220000", "164120.010000", "164120.797500", "164121.585000", "164122.375000", "164123.162500", "164123.950000", "164124.737500", "164125.527500", "164126.315000", "164127.102500", "164127.890000", "164128.680000", "164129.467500", "164130.255000", "164131.042500", "164131.832500", "164132.620000", "164133.407500", "164134.195000", "164134.985000", "164135.772500", "164136.560000", "164137.347500", "164138.137500", "164138.925000", "164139.712500", "164140.502500", "164141.290000", "164142.077500", "164142.865000", "164143.655000", "164144.442500", "164145.230000", "164146.017500", "164146.807500", "164147.595000", "164148.382500", "164149.170000", "164149.960000", "164150.747500", "164151.535000", "164152.322500", "164153.112500", "164153.900000", "164154.687500", "164155.475000", "164156.265000", "164157.052500", "164157.840000", "164158.630000", "164159.417500", "164200.205000", "164200.992500", "164201.782500", "164202.570000", "164203.357500", "164204.145000", "164204.935000", "164205.722500", "164206.510000", "164207.297500", "164208.087500", "164208.875000", "164209.662500", "164210.450000", "164211.240000", "164212.027500", "164212.815000", "164213.602500", "164214.392500", "164215.180000", "164215.967500", "164216.757500", "164217.545000", "164218.332500", "164219.120000", "164219.910000", "164220.697500", "164221.485000", "164222.272500", "164223.062500", "164223.850000", "164224.637500", "164225.425000", "164226.215000", "164227.002500", "164227.790000", "164228.577500", "164229.367500", "164230.155000", "164230.942500", "164231.730000", "164232.520000", "164233.307500", "164234.095000", "164234.885000", "164235.672500", "164236.460000", "164237.247500", "164238.037500", "164238.825000", "164239.612500", "164240.400000", "164241.190000", "164241.977500", "164242.765000", "164243.552500", "164244.342500", "164245.130000", "164245.917500", "164246.705000", "164247.495000", "164248.282500", "164249.070000", "164249.860000", "164250.647500", "164251.435000", "164252.222500", "164253.012500", "164253.800000", "164254.587500", "164255.375000", "164256.165000", "164256.952500", "164257.740000", "164258.527500", "164259.317500", "164300.105000", "164300.892500", "164301.680000", "164302.470000", "164303.257500", "164304.045000", "164304.832500", "164305.622500", "164306.410000", "164307.197500", "164307.987500", "164308.775000", "164309.562500", "164310.350000", "164311.140000", "164311.927500", "164312.715000", "164313.502500", "164314.292500", "164315.080000", "164315.867500", "164316.655000", "164317.445000", "164318.232500", "164319.020000", "164319.807500", "164320.597500", "164321.385000", "164322.172500", "164322.960000", "164323.750000", "164324.537500", "164325.325000", "164326.115000", "164326.902500", "164327.690000", "164328.477500", "164329.267500", "164330.055000", "164330.842500", "164331.630000", "164332.420000", "164333.207500", "164333.995000", "164334.782500", "164335.572500", "164336.360000", "164337.147500", "164337.935000", "164338.725000", "164339.512500", "164340.300000", "164341.087500", "164341.877500", "164342.665000", "164343.452500", "164344.242500", "164345.030000", "164345.817500", "164346.605000", "164347.395000", "164348.182500", "164348.970000", "164349.757500", "164350.547500", "164351.335000", "164352.122500", "164352.910000", "164353.700000", "164354.487500", "164355.275000", "164356.062500", "164356.852500", "164357.640000", "164358.427500", "164359.215000", "164400.005000", "164400.792500", "164401.580000", "164402.370000", "164403.157500", "164403.945000", "164404.732500", "164405.522500", "164406.310000", "164407.097500", "164407.885000"],
      "ContentTime": ["182521.968000", "182521.968000", "182521.968000", "182521.968000", "182521.984000", "182521.984000", "182521.984000", "182521.984000", "182522.031000", "182522.031000", "182621.937000", "182621.937000", "182621.937000", "182621.953000", "182621.953000", "182621.968000", "182621.968000", "182621.968000", "182621.968000", "182621.968000", "182621.968000", "182621.968000", "182621.984000", "182621.984000", "182621.984000", "182621.984000", "182621.984000", "182621.984000", "182621.984000", "182622.000000", "182622.000000", "182622.000000", "182622.000000", "182622.015000", "182622.015000", "182622.015000", "182622.015000", "182622.015000", "182641.937000", "182641.937000", "182641.937000", "182641.953000", "182641.953000", "182641.953000", "182641.953000", "182641.968000", "182641.968000", "182741.937000", "182741.937000", "182741.937000", "182741.953000", "182741.953000", "182741.968000", "182741.968000", "182741.968000", "182741.968000", "182741.968000", "182741.968000", "182741.968000", "182741.984000", "182741.984000", "182741.984000", "182741.984000", "182742.000000", "182742.000000", "182742.000000", "182742.000000", "182742.031000", "182742.031000", "182742.031000", "182742.031000", "182742.046000", "182742.046000", "182742.046000", "182742.046000", "182742.046000", "182841.937000", "182841.937000", "182841.937000", "182841.953000", "182841.953000", "182841.953000", "182841.953000", "182841.953000", "182841.953000", "182841.953000", "182841.968000", "182841.968000", "182841.968000", "182841.968000", "182841.968000", "182841.984000", "182841.984000", "182841.984000", "182841.984000", "182841.984000", "182841.984000", "182841.984000", "182842.000000", "182842.000000", "182842.000000", "182842.000000", "182842.000000", "182842.000000", "182941.937000", "182941.937000", "182941.937000", "182941.953000", "182941.953000", "182941.953000", "182941.953000", "182941.953000", "182941.953000", "182941.953000", "182941.968000", "182941.968000", "182941.968000", "182941.984000", "182941.984000", "182941.984000", "182941.984000", "182941.984000", "182941.984000", "182941.984000", "182941.984000", "182942.000000", "182942.000000", "182942.000000", "182942.000000", "182942.000000", "182942.015000", "182942.015000", "183041.937000", "183041.937000", "183041.937000", "183041.953000", "183041.953000", "183041.953000", "183041.953000", "183041.953000", "183041.968000", "183041.968000", "183041.968000", "183041.968000", "183041.968000", "183041.968000", "183041.968000", "183041.984000", "183041.984000", "183041.984000", "183041.984000", "183041.984000", "183041.984000", "183042.000000", "183042.000000", "183042.000000", "183042.000000", "183042.015000", "183042.015000", "183042.015000", "183042.015000", "183141.937000", "183141.937000", "183141.937000", "183141.953000", "183141.953000", "183141.953000", "183141.953000", "183141.953000", "183141.953000", "183141.953000", "183141.968000", "183141.968000", "183141.968000", "183141.968000", "183141.968000", "183141.968000", "183141.984000", "183141.984000", "183141.984000", "183142.000000", "183142.000000", "183142.000000", "183142.000000", "183142.000000", "183142.000000", "183142.000000", "183142.015000", "183142.015000", "183241.937000", "183241.937000", "183241.937000", "183241.953000", "183241.953000", "183241.953000", "183241.953000", "183241.953000", "183241.953000", "183241.953000", "183241.968000", "183241.968000", "183241.968000", "183241.984000", "183241.984000", "183241.984000", "183241.984000", "183241.984000", "183241.984000", "183241.984000", "183242.000000", "183242.000000", "183242.000000", "183242.000000", "183242.000000", "183242.000000", "183242.015000", "183242.015000", "183341.937000", "183341.937000", "183341.937000", "183341.953000", "183341.953000", "183341.953000", "183341.953000", "183341.953000", "183341.968000", "183341.968000", "183341.968000", "183341.968000", "183341.968000", "183341.968000", "183341.984000", "183341.984000", "183341.984000", "183341.984000", "183341.984000", "183341.984000", "183341.984000", "183342.000000", "183342.000000", "183342.000000", "183342.000000", "183342.015000", "183342.015000", "183342.015000", "183441.937000", "183441.937000", "183441.937000", "183441.953000", "183441.953000", "183441.953000", "183441.953000", "183441.953000", "183441.968000", "183441.968000", "183441.968000", "183441.968000", "183441.968000", "183441.968000", "183441.968000", "183441.984000", "183441.984000", "183441.984000", "183441.984000", "183441.984000", "183442.000000", "183442.000000", "183442.000000", "183442.015000", "183442.015000", "183442.015000", "183442.015000", "183442.015000", "183541.937000", "183541.937000", "183541.937000", "183541.953000", "183541.953000", "183541.953000", "183541.953000", "183541.953000", "183541.953000", "183541.953000", "183541.968000", "183541.968000", "183541.968000", "183541.968000", "183541.984000", "183541.984000", "183541.984000", "183541.984000", "183541.984000", "183541.984000", "183541.984000", "183542.000000", "183542.000000", "183542.000000", "183542.000000", "183542.000000", "183542.000000", "183542.000000", "183542.015000", "183641.937000", "183641.937000", "183641.937000", "183641.953000", "183641.953000", "183641.953000", "183641.953000", "183641.953000", "183641.953000", "183641.968000", "183641.968000", "183641.968000", "183641.968000", "183641.968000", "183641.968000", "183641.968000", "183641.984000", "183641.984000", "183641.984000", "183641.984000", "183641.984000", "183641.984000", "183641.984000", "183642.000000", "183642.000000", "183642.000000", "183642.000000", "183642.000000", "183741.937000", "183741.937000", "183741.937000", "183741.953000", "183741.953000", "183741.953000", "183741.953000", "183741.968000", "183741.968000", "183741.968000", "183741.968000", "183741.968000", "183741.968000", "183741.968000", "183741.984000", "183741.984000", "183741.984000", "183741.984000", "183741.984000", "183741.984000", "183741.984000", "183742.000000", "183742.000000", "183742.000000", "183742.000000", "183742.015000", "183742.015000", "183742.015000", "183841.937000", "183841.953000", "183841.953000", "183841.953000", "183841.968000", "183841.968000", "183841.968000", "183841.968000", "183841.968000", "183841.968000", "183841.968000", "183841.984000", "183841.984000", "183841.984000", "183841.984000", "183842.031000", "183842.031000", "183842.031000", "183842.031000", "183842.031000", "183842.031000", "183842.031000", "183842.046000", "183842.046000", "183842.046000", "183842.046000", "183842.046000", "183842.046000", "183941.937000", "183941.937000", "183941.937000", "183941.953000", "183941.953000", "183941.953000", "183941.953000", "183941.953000", "183941.953000", "183941.953000", "183941.968000", "183941.968000", "183941.968000", "183941.968000", "183941.984000", "183941.984000", "183941.984000", "183941.984000", "183941.984000", "183941.984000", "183942.000000", "183942.000000", "183942.000000", "183942.000000", "183942.000000", "183942.000000", "183942.015000", "183942.015000", "183942.015000", "184041.937000", "184041.937000", "184041.937000", "184041.953000", "184041.953000", "184041.953000", "184041.968000", "184041.968000", "184041.968000", "184041.968000", "184041.968000", "184041.984000", "184041.984000", "184041.984000", "184041.984000", "184041.984000", "184041.984000", "184041.984000", "184042.000000", "184042.000000", "184042.000000", "184042.000000", "184042.015000", "184042.015000", "184042.015000", "184042.015000", "184042.015000", "184042.015000", "184141.937000", "184141.937000", "184141.953000", "184141.953000", "184141.953000", "184141.953000", "184141.953000", "184141.968000", "184141.968000", "184141.968000", "184141.968000", "184141.968000", "184141.984000", "184141.984000", "184141.984000", "184141.984000", "184141.984000", "184141.984000", "184142.000000", "184142.000000", "184142.000000", "184142.000000", "184142.000000", "184142.015000", "184142.015000", "184142.015000", "184142.015000", "184142.015000", "184241.937000", "184241.937000", "184241.937000", "184241.953000", "184241.953000", "184241.953000", "184241.953000", "184241.953000", "184241.953000", "184241.953000", "184241.968000", "184241.968000", "184241.968000", "184241.968000", "184241.984000", "184241.984000", "184241.984000", "184241.984000", "184242.000000", "184242.000000", "184242.000000", "184242.000000", "184242.000000", "184242.000000", "184242.000000", "184242.015000", "184242.015000", "184242.015000", "184341.937000", "184341.937000", "184341.937000", "184341.953000", "184341.953000", "184341.953000", "184341.953000", "184341.953000", "184341.968000", "184341.968000", "184341.968000", "184341.968000", "184341.968000", "184341.984000", "184341.984000", "184341.984000", "184341.984000", "184341.984000", "184341.984000", "184341.984000", "184342.000000", "184342.000000", "184342.000000", "184342.000000", "184342.015000", "184342.015000", "184342.015000", "184342.015000", "184342.015000", "184441.937000", "184441.937000", "184441.937000", "184441.953000", "184441.953000", "184441.953000", "184441.953000", "184441.968000", "184441.968000", "184441.968000", "184441.968000", "184441.968000", "184441.968000", "184441.968000", "184441.984000", "184441.984000", "184441.984000", "184441.984000", "184441.984000", "184442.000000", "184442.000000", "184442.000000", "184442.000000", "184442.000000", "184442.000000", "184442.015000", "184442.015000", "184442.015000", "184533.734000", "184533.750000", "184533.750000", "184533.750000", "184533.750000", "184533.765000", "184533.765000", "184533.765000", "184533.765000", "184533.765000", "184533.781000", "184533.781000", "184533.781000", "184533.781000", "184533.781000", "184533.796000", "184533.796000", "184533.796000", "184533.796000", "184533.796000", "184533.812000", "184533.828000", "184533.828000", "184533.828000", "184533.828000"],
      "DataSetTrailingPadding": [
        "\u0000\u0000\u0000\u0000\u0000\u0000\u0000\u0000\u0000\u0000\u0000\u0000\u0000\u0000\u0000\u0000\u0000\u0000\u0000\u0000\u0000\u0000\u0000\u0000\u0000\u0000\u0000\u0000\u0000\u0000\u0000\u0000\u0000\u0000\u0000\u0000",
        "\u0000\u0000\u0000\u0000\u0000\u0000\u0000\u0000\u0000\u0000\u0000\u0000\u0000\u0000\u0000\u0000\u0000\u0000\u0000\u0000\u0000\u0000\u0000\u0000\u0000\u0000\u0000\u0000\u0000\u0000\u0000\u0000\u0000\u0000\u0000\u0000",
        "\u0000\u0000\u0000\u0000\u0000\u0000\u0000\u0000\u0000\u0000\u0000\u0000\u0000\u0000\u0000\u0000\u0000\u0000\u0000\u0000\u0000\u0000\u0000\u0000\u0000\u0000\u0000\u0000\u0000\u0000\u0000\u0000\u0000\u0000",
        "\u0000\u0000\u0000\u0000\u0000\u0000\u0000\u0000\u0000\u0000\u0000\u0000\u0000\u0000\u0000\u0000\u0000\u0000\u0000\u0000\u0000\u0000\u0000\u0000\u0000\u0000\u0000\u0000\u0000\u0000\u0000\u0000\u0000\u0000",
        "\u0000\u0000\u0000\u0000\u0000\u0000\u0000\u0000\u0000\u0000\u0000\u0000\u0000\u0000\u0000\u0000\u0000\u0000\u0000\u0000\u0000\u0000\u0000\u0000\u0000\u0000\u0000\u0000\u0000\u0000\u0000\u0000\u0000\u0000\u0000\u0000",
        "\u0000\u0000\u0000\u0000\u0000\u0000\u0000\u0000\u0000\u0000\u0000\u0000\u0000\u0000\u0000\u0000\u0000\u0000\u0000\u0000\u0000\u0000\u0000\u0000\u0000\u0000\u0000\u0000\u0000\u0000\u0000\u0000\u0000\u0000",
        "\u0000\u0000\u0000\u0000\u0000\u0000\u0000\u0000\u0000\u0000\u0000\u0000\u0000\u0000\u0000\u0000\u0000\u0000\u0000\u0000\u0000\u0000\u0000\u0000\u0000\u0000\u0000\u0000\u0000\u0000\u0000\u0000\u0000\u0000\u0000\u0000\u0000\u0000",
        "\u0000\u0000\u0000\u0000\u0000\u0000\u0000\u0000\u0000\u0000\u0000\u0000\u0000\u0000\u0000\u0000\u0000\u0000\u0000\u0000\u0000\u0000\u0000\u0000\u0000\u0000\u0000\u0000\u0000\u0000\u0000\u0000\u0000\u0000\u0000\u0000",
