{
  "AcquisitionMatrixPE": 104,
  "AcquisitionNumber": 1,
  "AcquisitionTime": "16:28:22.690000",
  "BandwidthPerPixelPhaseEncode": 13.935,
  "BaseResolution": 104,
  "CoilString": "C:HEA;HEP",
  "ConversionSoftware": "dcm2niix",
  "ConversionSoftwareVersion": "v1.0.20210317",
  "DerivedVendorReportedEchoSpacing": 0.000690017,
  "DeviceSerialNumber": "35450",
  "DwellTime": 2.5e-06,
  "EchoTime": 0.0348,
  "EffectiveEchoSpacing": 0.000690017,
  "FlipAngle": 55,
  "ImageComments": "Unaliased MB8/PE3",
  "ImageOrientationPatientDICOM": [0.999919, 0.00205885, 0.0125729, -9.39616e-09, 0.986856, -0.1616],
  "ImageType": [
    "ORIGINAL",
    "PRIMARY",
    "M",
    "MB",
    "ND",
    "MOSAIC"
],
  "ImagingFrequency": 123.235,
  "InPlanePhaseEncodingDirectionDICOM": "COL",
  "InstitutionAddress": "Univeristy Ave. 197,Newark,North East,US,07102-1814",
  "InstitutionName": "RUBIC",
  "InstitutionalDepartmentName": "Department",
  "MRAcquisitionType": "2D",
  "MagneticFieldStrength": 3,
  "Manufacturer": "Siemens",
  "ManufacturersModelName": "TrioTim",
  "Modality": "MR",
  "MultibandAccelerationFactor": 8,
  "PartialFourier": 0.875,
  "PatientPosition": "HFS",
  "PercentPhaseFOV": 100,
  "PercentSampling": 100,
  "PhaseEncodingDirection": "j-",
  "PhaseEncodingSteps": 91,
  "PhaseResolution": 1,
  "PixelBandwidth": 1923,
  "ProcedureStepDescription": "Cole^Michael",
  "ProtocolName": "cmrr_mbep2d_bold_2mm_MB8_Task_8x",
  "PulseSequenceDetails": "%CustomerSeq%\\cmrr_mbep2d_bold",
  "ReceiveCoilName": "32Ch_Head",
  "ReconMatrixPE": 104,
  "RepetitionTime": 0.785,
  "SAR": 0.108221,
  "ScanOptions": "PFP\\FS",
  "ScanningSequence": "EP",
  "SequenceName": "epfid2d1_104",
  "SequenceVariant": "SK\\SS",
  "SeriesDescription": "cmrr_mbep2d_bold_2mm_MB8_Task_8x",
  "SeriesNumber": 23,
  "ShimSetting": [2135, -413, -7251, 553, 67, -287, 99, 64],
  "SliceThickness": 2,
  "SliceTiming": [0, 0.4375, 0.0875, 0.525, 0.175, 0.6125, 0.2625, 0.7, 0.35, 0, 0.4375, 0.0875, 0.525, 0.175, 0.6125, 0.2625, 0.7, 0.35, 0, 0.4375, 0.0875, 0.525, 0.175, 0.6125, 0.2625, 0.7, 0.35, 0, 0.4375, 0.0875, 0.525, 0.175, 0.6125, 0.2625, 0.7, 0.35, 0, 0.4375, 0.0875, 0.525, 0.175, 0.6125, 0.2625, 0.7, 0.35, 0, 0.4375, 0.0875, 0.525, 0.175, 0.6125, 0.2625, 0.7, 0.35, 0, 0.4375, 0.0875, 0.525, 0.175, 0.6125, 0.2625, 0.7, 0.35, 0, 0.4375, 0.0875, 0.525, 0.175, 0.6125, 0.2625, 0.7, 0.35],
  "SoftwareVersions": "syngo MR B19",
  "SpacingBetweenSlices": 2,
  "StationName": "MRC35450",
  "TaskName": "cpro",
  "TotalReadoutTime": 0.0710717,
  "TxRefAmp": 315.523,
  "dcmmeta_affine": [
    [-1.9998376369476318, -1.8792327693972766e-08, 0.02548067271709442, 103.05376434326172],
    [-0.004117702133953571, 1.9737125635147095, -0.3231743276119232, -78.75324249267578],
    [0.02514575980603695, 0.3232005536556244, 1.9735524654388428, -107.64749908447266],
    [0.0, 0.0, 0.0, 1.0]
],
  "dcmmeta_reorient_transform": [
    [0.0, -1.0, 0.0, 103.0],
    [1.0, 0.0, 0.0, 0.0],
    [0.0, 0.0, 1.0, 0.0],
    [0.0, 0.0, 0.0, 1.0]
],
  "dcmmeta_shape": [104, 104, 72, 581],
  "dcmmeta_slice_dim": 2,
  "dcmmeta_version": 0.6,
  "global": {
    "const": {
      "AcquisitionMatrix": [104, 0, 0, 104],
      "AngioFlag": "N",
      "BitsAllocated": 16,
      "BitsStored": 12,
      "Columns": 936,
      "EchoNumbers": 1,
      "EchoTime": 34.8,
      "EchoTrainLength": 1,
      "FlipAngle": 55.0,
      "HighBit": 11,
      "ImageOrientationPatient": [0.99991883861804, 0.00205885117722, 0.0125728798845, -9.396164e-09, 0.98685629701143, -0.1616002755223],
      "ImagePositionPatient": [-934.98623024117, -947.31655906651, 49.63295286387],
      "ImageType": [
        "ORIGINAL",
        "PRIMARY",
        "M",
        "MB",
        "ND",
        "MOSAIC"
],
      "ImagedNucleus": "1H",
      "ImagingFrequency": 123.234683,
      "InPlanePhaseEncodingDirection": "COL",
      "MRAcquisitionType": "2D",
      "MagneticFieldStrength": 3.0,
      "Manufacturer": "SIEMENS",
      "ManufacturerModelName": "TrioTim",
      "Modality": "MR",
      "NumberOfAverages": 1.0,
      "NumberOfPhaseEncodingSteps": 91,
      "PercentPhaseFieldOfView": 100.0,
      "PercentSampling": 100.0,
      "PerformedProcedureStepStartTime": "145533.859000",
      "PhotometricInterpretation": "MONOCHROME2",
      "PixelBandwidth": 1923.0,
      "PixelRepresentation": 0,
      "PixelSpacing": [2.0, 2.0],
      "ProtocolName": "cmrr_mbep2d_bold_2mm_MB8_Task_8x",
      "RepetitionTime": 785.0,
      "Rows": 936,
      "SAR": 0.10822117282634,
      "SamplesPerPixel": 1,
      "ScanOptions": [
        "PFP",
        "FS"
],
      "ScanningSequence": "EP",
      "SequenceName": "epfid2d1_104",
      "SequenceVariant": [
        "SK",
        "SS"
],
      "SeriesDescription": "cmrr_mbep2d_bold_2mm_MB8_Task_8x",
      "SeriesNumber": 23,
      "SeriesTime": "180413.937000",
      "SliceLocation": -92.185536084773,
      "SliceThickness": 2.0,
      "SmallestImagePixelValue": 0,
      "SoftwareVersions": "syngo MR B19",
      "SpacingBetweenSlices": 2.0000000326651,
      "SpecificCharacterSet": "ISO_IR 100",
      "StudyID": "1",
      "StudyTime": "145533.765000",
      "TransmitCoilName": "Body",
      "VariableFlipAngleFlag": "N",
      "WindowCenterWidthExplanation": "Algo1",
      "dBdt": 0.0},
    "slices": {}
  },
  "time": {
    "samples": {
      "AcquisitionNumber": [1, 2, 3, 4, 5, 6, 7, 8, 9, 10, 11, 12, 13, 14, 15, 16, 17, 18, 19, 20, 21, 22, 23, 24, 25, 26, 27, 28, 29, 30, 31, 32, 33, 34, 35, 36, 37, 38, 39, 40, 41, 42, 43, 44, 45, 46, 47, 48, 49, 50, 51, 52, 53, 54, 55, 56, 57, 58, 59, 60, 61, 62, 63, 64, 65, 66, 67, 68, 69, 70, 71, 72, 73, 74, 75, 76, 77, 78, 79, 80, 81, 82, 83, 84, 85, 86, 87, 88, 89, 90, 91, 92, 93, 94, 95, 96, 97, 98, 99, 100, 101, 102, 103, 104, 105, 106, 107, 108, 109, 110, 111, 112, 113, 114, 115, 116, 117, 118, 119, 120, 121, 122, 123, 124, 125, 126, 127, 128, 129, 130, 131, 132, 133, 134, 135, 136, 137, 138, 139, 140, 141, 142, 143, 144, 145, 146, 147, 148, 149, 150, 151, 152, 153, 154, 155, 156, 157, 158, 159, 160, 161, 162, 163, 164, 165, 166, 167, 168, 169, 170, 171, 172, 173, 174, 175, 176, 177, 178, 179, 180, 181, 182, 183, 184, 185, 186, 187, 188, 189, 190, 191, 192, 193, 194, 195, 196, 197, 198, 199, 200, 201, 202, 203, 204, 205, 206, 207, 208, 209, 210, 211, 212, 213, 214, 215, 216, 217, 218, 219, 220, 221, 222, 223, 224, 225, 226, 227, 228, 229, 230, 231, 232, 233, 234, 235, 236, 237, 238, 239, 240, 241, 242, 243, 244, 245, 246, 247, 248, 249, 250, 251, 252, 253, 254, 255, 256, 257, 258, 259, 260, 261, 262, 263, 264, 265, 266, 267, 268, 269, 270, 271, 272, 273, 274, 275, 276, 277, 278, 279, 280, 281, 282, 283, 284, 285, 286, 287, 288, 289, 290, 291, 292, 293, 294, 295, 296, 297, 298, 299, 300, 301, 302, 303, 304, 305, 306, 307, 308, 309, 310, 311, 312, 313, 314, 315, 316, 317, 318, 319, 320, 321, 322, 323, 324, 325, 326, 327, 328, 329, 330, 331, 332, 333, 334, 335, 336, 337, 338, 339, 340, 341, 342, 343, 344, 345, 346, 347, 348, 349, 350, 351, 352, 353, 354, 355, 356, 357, 358, 359, 360, 361, 362, 363, 364, 365, 366, 367, 368, 369, 370, 371, 372, 373, 374, 375, 376, 377, 378, 379, 380, 381, 382, 383, 384, 385, 386, 387, 388, 389, 390, 391, 392, 393, 394, 395, 396, 397, 398, 399, 400, 401, 402, 403, 404, 405, 406, 407, 408, 409, 410, 411, 412, 413, 414, 415, 416, 417, 418, 419, 420, 421, 422, 423, 424, 425, 426, 427, 428, 429, 430, 431, 432, 433, 434, 435, 436, 437, 438, 439, 440, 441, 442, 443, 444, 445, 446, 447, 448, 449, 450, 451, 452, 453, 454, 455, 456, 457, 458, 459, 460, 461, 462, 463, 464, 465, 466, 467, 468, 469, 470, 471, 472, 473, 474, 475, 476, 477, 478, 479, 480, 481, 482, 483, 484, 485, 486, 487, 488, 489, 490, 491, 492, 493, 494, 495, 496, 497, 498, 499, 500, 501, 502, 503, 504, 505, 506, 507, 508, 509, 510, 511, 512, 513, 514, 515, 516, 517, 518, 519, 520, 521, 522, 523, 524, 525, 526, 527, 528, 529, 530, 531, 532, 533, 534, 535, 536, 537, 538, 539, 540, 541, 542, 543, 544, 545, 546, 547, 548, 549, 550, 551, 552, 553, 554, 555, 556, 557, 558, 559, 560, 561, 562, 563, 564, 565, 566, 567, 568, 569, 570, 571, 572, 573, 574, 575, 576, 577, 578, 579, 580, 581],
      "AcquisitionTime": ["162822.690000", "162823.480000", "162824.267500", "162825.055000", "162825.842500", "162826.632500", "162827.420000", "162828.207500", "162828.995000", "162829.785000", "162830.572500", "162831.360000", "162832.147500", "162832.937500", "162833.725000", "162834.512500", "162835.302500", "162836.090000", "162836.877500", "162837.665000", "162838.455000", "162839.242500", "162840.030000", "162840.817500", "162841.607500", "162842.395000", "162843.182500", "162843.970000", "162844.760000", "162845.547500", "162846.335000", "162847.122500", "162847.912500", "162848.700000", "162849.487500", "162850.275000", "162851.065000", "162851.852500", "162852.640000", "162853.430000", "162854.217500", "162855.005000", "162855.792500", "162856.582500", "162857.370000", "162858.157500", "162858.945000", "162859.735000", "162900.522500", "162901.310000", "162902.097500", "162902.887500", "162903.675000", "162904.462500", "162905.250000", "162906.040000", "162906.827500", "162907.615000", "162908.402500", "162909.192500", "162909.980000", "162910.767500", "162911.557500", "162912.345000", "162913.132500", "162913.920000", "162914.710000", "162915.497500", "162916.285000", "162917.072500", "162917.862500", "162918.650000", "162919.437500", "162920.225000", "162921.015000", "162921.802500", "162922.590000", "162923.377500", "162924.167500", "162924.955000", "162925.742500", "162926.530000", "162927.320000", "162928.107500", "162928.895000", "162929.685000", "162930.472500", "162931.260000", "162932.047500", "162932.837500", "162933.625000", "162934.412500", "162935.200000", "162935.990000", "162936.777500", "162937.565000", "162938.352500", "162939.142500", "162939.930000", "162940.717500", "162941.505000", "162942.295000", "162943.082500", "162943.870000", "162944.657500", "162945.447500", "162946.235000", "162947.022500", "162947.812500", "162948.600000", "162949.387500", "162950.175000", "162950.965000", "162951.752500", "162952.540000", "162953.327500", "162954.117500", "162954.905000", "162955.692500", "162956.480000", "162957.270000", "162958.057500", "162958.845000", "162959.632500", "163000.422500", "163001.210000", "163001.997500", "163002.785000", "163003.575000", "163004.362500", "163005.150000", "163005.940000", "163006.727500", "163007.515000", "163008.302500", "163009.092500", "163009.880000", "163010.667500", "163011.455000", "163012.245000", "163013.032500", "163013.820000", "163014.607500", "163015.397500", "163016.185000", "163016.972500", "163017.760000", "163018.550000", "163019.337500", "163020.125000", "163020.915000", "163021.702500", "163022.490000", "163023.277500", "163024.067500", "163024.855000", "163025.642500", "163026.430000", "163027.220000", "163028.007500", "163028.795000", "163029.582500", "163030.372500", "163031.160000", "163031.947500", "163032.735000", "163033.525000", "163034.312500", "163035.100000", "163035.887500", "163036.677500", "163037.465000", "163038.252500", "163039.042500", "163039.830000", "163040.617500", "163041.405000", "163042.195000", "163042.982500", "163043.770000", "163044.557500", "163045.347500", "163046.135000", "163046.922500", "163047.710000", "163048.500000", "163049.287500", "163050.075000", "163050.862500", "163051.652500", "163052.440000", "163053.227500", "163054.015000", "163054.805000", "163055.592500", "163056.380000", "163057.170000", "163057.957500", "163058.745000", "163059.532500", "163100.322500", "163101.110000", "163101.897500", "163102.685000", "163103.475000", "163104.262500", "163105.050000", "163105.837500", "163106.627500", "163107.415000", "163108.202500", "163108.990000", "163109.780000", "163110.567500", "163111.355000", "163112.142500", "163112.932500", "163113.720000", "163114.507500", "163115.297500", "163116.085000", "163116.872500", "163117.660000", "163118.450000", "163119.237500", "163120.025000", "163120.812500", "163121.602500", "163122.390000", "163123.177500", "163123.965000", "163124.755000", "163125.542500", "163126.330000", "163127.117500", "163127.907500", "163128.695000", "163129.482500", "163130.270000", "163131.060000", "163131.847500", "163132.635000", "163133.425000", "163134.212500", "163135.000000", "163135.787500", "163136.577500", "163137.365000", "163138.152500", "163138.940000", "163139.730000", "163140.517500", "163141.305000", "163142.092500", "163142.882500", "163143.670000", "163144.457500", "163145.245000", "163146.035000", "163146.822500", "163147.610000", "163148.397500", "163149.187500", "163149.975000", "163150.762500", "163151.552500", "163152.340000", "163153.127500", "163153.915000", "163154.705000", "163155.492500", "163156.280000", "163157.067500", "163157.857500", "163158.645000", "163159.432500", "163200.220000", "163201.010000", "163201.797500", "163202.585000", "163203.372500", "163204.162500", "163204.950000", "163205.737500", "163206.525000", "163207.315000", "163208.102500", "163208.890000", "163209.680000", "163210.467500", "163211.255000", "163212.042500", "163212.832500", "163213.620000", "163214.407500", "163215.195000", "163215.985000", "163216.772500", "163217.560000", "163218.347500", "163219.137500", "163219.925000", "163220.712500", "163221.500000", "163222.290000", "163223.077500", "163223.865000", "163224.652500", "163225.442500", "163226.230000", "163227.017500", "163227.807500", "163228.595000", "163229.382500", "163230.170000", "163230.960000", "163231.747500", "163232.535000", "163233.322500", "163234.112500", "163234.900000", "163235.687500", "163236.475000", "163237.265000", "163238.052500", "163238.840000", "163239.627500", "163240.417500", "163241.205000", "163241.992500", "163242.780000", "163243.570000", "163244.357500", "163245.145000", "163245.935000", "163246.722500", "163247.510000", "163248.297500", "163249.087500", "163249.875000", "163250.662500", "163251.450000", "163252.240000", "163253.027500", "163253.815000", "163254.602500", "163255.392500", "163256.180000", "163256.967500", "163257.755000", "163258.545000", "163259.332500", "163300.120000", "163300.907500", "163301.697500", "163302.485000", "163303.272500", "163304.062500", "163304.850000", "163305.637500", "163306.425000", "163307.215000", "163308.002500", "163308.790000", "163309.577500", "163310.367500", "163311.155000", "163311.942500", "163312.730000", "163313.520000", "163314.307500", "163315.095000", "163315.882500", "163316.672500", "163317.460000", "163318.247500", "163319.035000", "163319.825000", "163320.612500", "163321.400000", "163322.190000", "163322.977500", "163323.765000", "163324.552500", "163325.342500", "163326.130000", "163326.917500", "163327.705000", "163328.495000", "163329.282500", "163330.070000", "163330.857500", "163331.647500", "163332.435000", "163333.222500", "163334.010000", "163334.800000", "163335.587500", "163336.375000", "163337.165000", "163337.952500", "163338.740000", "163339.527500", "163340.317500", "163341.105000", "163341.892500", "163342.680000", "163343.470000", "163344.257500", "163345.045000", "163345.832500", "163346.622500", "163347.410000", "163348.197500", "163348.985000", "163349.775000", "163350.562500", "163351.350000", "163352.137500", "163352.927500", "163353.715000", "163354.502500", "163355.292500", "163356.080000", "163356.867500", "163357.655000", "163358.445000", "163359.232500", "163400.020000", "163400.807500", "163401.597500", "163402.385000", "163403.172500", "163403.960000", "163404.750000", "163405.537500", "163406.325000", "163407.112500", "163407.902500", "163408.690000", "163409.477500", "163410.265000", "163411.055000", "163411.842500", "163412.630000", "163413.420000", "163414.207500", "163414.995000", "163415.782500", "163416.572500", "163417.360000", "163418.147500", "163418.935000", "163419.725000", "163420.512500", "163421.300000", "163422.087500", "163422.877500", "163423.665000", "163424.452500", "163425.240000", "163426.030000", "163426.817500", "163427.605000", "163428.392500", "163429.182500", "163429.970000", "163430.757500", "163431.547500", "163432.335000", "163433.122500", "163433.910000", "163434.700000", "163435.487500", "163436.275000", "163437.062500", "163437.852500", "163438.640000", "163439.427500", "163440.215000", "163441.005000", "163441.792500", "163442.580000", "163443.367500", "163444.157500", "163444.945000", "163445.732500", "163446.520000", "163447.310000", "163448.097500", "163448.885000", "163449.675000", "163450.462500", "163451.250000", "163452.037500", "163452.827500", "163453.615000", "163454.402500", "163455.190000", "163455.980000", "163456.767500", "163457.555000", "163458.342500", "163459.132500", "163459.920000", "163500.707500", "163501.495000", "163502.285000", "163503.072500", "163503.860000", "163504.647500", "163505.437500", "163506.225000", "163507.012500", "163507.802500", "163508.590000", "163509.377500", "163510.165000", "163510.955000", "163511.742500", "163512.530000", "163513.317500", "163514.107500", "163514.895000", "163515.682500", "163516.470000", "163517.260000", "163518.047500", "163518.835000", "163519.622500", "163520.412500", "163521.200000", "163521.987500", "163522.775000", "163523.565000", "163524.352500", "163525.140000", "163525.930000", "163526.717500", "163527.505000", "163528.292500", "163529.082500", "163529.870000", "163530.657500", "163531.445000", "163532.235000", "163533.022500", "163533.810000", "163534.597500", "163535.387500", "163536.175000", "163536.962500", "163537.750000", "163538.540000", "163539.327500", "163540.115000", "163540.902500", "163541.692500", "163542.480000", "163543.267500", "163544.057500", "163544.845000", "163545.632500", "163546.420000", "163547.210000", "163547.997500", "163548.785000", "163549.572500", "163550.362500", "163551.150000", "163551.937500", "163552.725000", "163553.515000", "163554.302500", "163555.090000", "163555.877500", "163556.667500", "163557.455000", "163558.242500", "163559.030000", "163559.820000"],
      "ContentTime": ["180413.953000", "180413.953000", "180513.921000", "180513.921000", "180513.921000", "180513.937000", "180513.937000", "180513.937000", "180513.937000", "180513.937000", "180513.937000", "180513.937000", "180513.953000", "180513.953000", "180513.953000", "180513.953000", "180513.953000", "180513.968000", "180513.968000", "180513.968000", "180513.984000", "180513.984000", "180513.984000", "180513.984000", "180513.984000", "180513.984000", "180513.984000", "180513.984000", "180514.000000", "180514.000000", "180514.000000", "180613.921000", "180613.921000", "180613.921000", "180613.937000", "180613.937000", "180613.937000", "180613.937000", "180613.937000", "180613.937000", "180613.937000", "180613.953000", "180613.953000", "180613.953000", "180613.953000", "180613.968000", "180613.968000", "180613.968000", "180613.968000", "180613.968000", "180613.968000", "180613.968000", "180613.984000", "180613.984000", "180613.984000", "180613.984000", "180613.984000", "180614.000000", "180614.000000", "180713.921000", "180713.921000", "180713.921000", "180713.937000", "180713.937000", "180713.937000", "180713.937000", "180713.937000", "180713.953000", "180713.953000", "180713.953000", "180713.953000", "180713.968000", "180713.968000", "180713.968000", "180713.968000", "180713.968000", "180713.968000", "180713.968000", "180713.984000", "180713.984000", "180713.984000", "180713.984000", "180714.000000", "180714.000000", "180714.000000", "180714.000000", "180714.000000", "180813.921000", "180813.921000", "180813.937000", "180813.937000", "180813.937000", "180813.937000", "180813.937000", "180813.937000", "180813.937000", "180813.953000", "180813.953000", "180813.953000", "180813.953000", "180813.953000", "180813.953000", "180813.953000", "180813.968000", "180813.968000", "180813.984000", "180813.984000", "180813.984000", "180813.984000", "180813.984000", "180813.984000", "180814.000000", "180814.000000", "180814.000000", "180814.000000", "180833.921000", "180833.921000", "180833.921000", "180833.937000", "180833.937000", "180833.937000", "180833.953000", "180833.953000", "180833.953000", "180933.921000", "180933.937000", "180933.937000", "180933.937000", "180933.937000", "180933.937000", "180933.937000", "180933.953000", "180933.953000", "180933.953000", "180933.953000", "180933.953000", "180933.953000", "180933.953000", "180933.968000", "180933.968000", "180933.968000", "180933.968000", "180933.984000", "180933.984000", "180933.984000", "180933.984000", "180933.984000", "180934.000000", "180934.000000", "180934.000000", "180934.000000", "180934.000000", "180934.000000", "181033.921000", "181033.921000", "181033.921000", "181033.937000", "181033.937000", "181033.937000", "181033.937000", "181033.937000", "181033.937000", "181033.937000", "181033.953000", "181033.953000", "181034.015000", "181034.015000", "181034.031000", "181034.031000", "181034.031000", "181034.031000", "181034.046000", "181034.046000", "181034.046000", "181034.062000", "181034.062000", "181034.062000", "181034.062000", "181034.062000", "181034.062000", "181034.062000", "181133.921000", "181133.921000", "181133.921000", "181133.937000", "181133.937000", "181133.937000", "181133.937000", "181133.937000", "181133.953000", "181133.953000", "181133.953000", "181133.953000", "181133.953000", "181133.953000", "181133.953000", "181133.968000", "181133.968000", "181133.968000", "181133.968000", "181133.968000", "181133.968000", "181133.968000", "181133.984000", "181133.984000", "181133.984000", "181134.000000", "181134.000000", "181134.000000", "181233.921000", "181233.921000", "181233.921000", "181233.937000", "181233.937000", "181233.937000", "181233.953000", "181233.953000", "181233.953000", "181233.953000", "181233.953000", "181233.953000", "181233.953000", "181233.968000", "181233.968000", "181233.968000", "181233.968000", "181233.968000", "181233.968000", "181233.968000", "181233.984000", "181233.984000", "181233.984000", "181234.000000", "181234.000000", "181234.000000", "181234.000000", "181234.000000", "181333.921000", "181333.921000", "181333.921000", "181333.937000", "181333.937000", "181333.937000", "181333.937000", "181333.937000", "181333.937000", "181333.937000", "181333.953000", "181333.953000", "181333.953000", "181333.953000", "181333.953000", "181333.953000", "181333.968000", "181333.968000", "181333.968000", "181333.968000", "181333.968000", "181333.984000", "181333.984000", "181333.984000", "181333.984000", "181333.984000", "181334.000000", "181334.000000", "181433.921000", "181433.921000", "181433.937000", "181433.937000", "181433.937000", "181433.937000", "181433.953000", "181433.953000", "181433.953000", "181433.953000", "181433.968000", "181433.968000", "181433.984000", "181433.984000", "181433.984000", "181434.000000", "181434.000000", "181434.000000", "181434.000000", "181434.000000", "181434.015000", "181434.015000", "181434.015000", "181434.015000", "181434.015000", "181434.015000", "181434.046000", "181434.046000", "181434.046000", "181533.921000", "181533.921000", "181533.921000", "181533.937000", "181533.937000", "181533.937000", "181533.937000", "181533.937000", "181533.953000", "181533.953000", "181533.953000", "181533.953000", "181533.953000", "181533.953000", "181533.953000", "181533.968000", "181533.968000", "181533.968000", "181533.968000", "181533.968000", "181533.968000", "181533.984000", "181533.984000", "181533.984000", "181534.000000", "181534.000000", "181534.000000", "181534.000000", "181633.921000", "181633.937000", "181633.937000", "181633.937000", "181633.937000", "181633.937000", "181633.953000", "181633.953000", "181633.953000", "181633.953000", "181633.953000", "181633.953000", "181633.953000", "181633.968000", "181633.968000", "181633.968000", "181633.968000", "181633.968000", "181633.984000", "181633.984000", "181633.984000", "181633.984000", "181633.984000", "181634.000000", "181634.000000", "181634.000000", "181634.000000", "181634.000000", "181733.921000", "181733.921000", "181733.921000", "181733.937000", "181733.937000", "181733.937000", "181733.937000", "181733.937000", "181733.953000", "181733.953000", "181733.953000", "181733.953000", "181733.953000", "181733.968000", "181733.968000", "181733.968000", "181733.968000", "181733.968000", "181733.984000", "181733.984000", "181733.984000", "181733.984000", "181733.984000", "181733.984000", "181733.984000", "181734.000000", "181734.000000", "181734.000000", "181813.921000", "181813.921000", "181813.921000", "181813.937000", "181813.937000", "181813.937000", "181813.937000", "181813.937000", "181813.937000", "181813.937000", "181813.953000", "181813.953000", "181813.953000", "181813.953000", "181813.953000", "181813.968000", "181813.968000", "181813.968000", "181813.968000", "181913.921000", "181913.921000", "181913.921000", "181913.937000", "181913.937000", "181913.937000", "181913.937000", "181913.937000", "181913.937000", "181913.937000", "181913.953000", "181913.953000", "181913.953000", "181913.953000", "181913.953000", "181913.953000", "181913.968000", "181913.968000", "181913.968000", "181913.968000", "181913.968000", "181913.984000", "181913.984000", "181913.984000", "181913.984000", "181913.984000", "181913.984000", "181913.984000", "182013.921000", "182013.921000", "182013.921000", "182013.937000", "182013.937000", "182013.937000", "182013.937000", "182013.937000", "182013.953000", "182013.953000", "182013.953000", "182013.968000", "182013.968000", "182013.968000", "182013.968000", "182013.968000", "182013.984000", "182013.984000", "182013.984000", "182013.984000", "182013.984000", "182014.000000", "182014.000000", "182014.000000", "182014.000000", "182014.000000", "182014.000000", "182014.015000", "182113.921000", "182113.921000", "182113.921000", "182113.937000", "182113.937000", "182113.937000", "182113.953000", "182113.953000", "182113.953000", "182113.953000", "182113.953000", "182113.968000", "182113.968000", "182113.968000", "182113.968000", "182113.968000", "182113.968000", "182113.968000", "182113.984000", "182113.984000", "182113.984000", "182113.984000", "182114.000000", "182114.000000", "182114.000000", "182114.000000", "182114.000000", "182114.000000", "182213.921000", "182213.921000", "182213.937000", "182213.937000", "182213.937000", "182213.953000", "182213.953000", "182213.953000", "182213.953000", "182213.953000", "182213.953000", "182213.968000", "182213.968000", "182213.968000", "182213.968000", "182213.968000", "182213.968000", "182213.968000", "182213.984000", "182213.984000", "182214.000000", "182214.000000", "182214.000000", "182214.000000", "182214.000000", "182214.000000", "182214.000000", "182214.015000", "182214.015000", "182313.921000", "182313.921000", "182313.921000", "182313.937000", "182313.937000", "182313.937000", "182313.937000", "182313.937000", "182313.937000", "182313.937000", "182313.953000", "182313.953000", "182313.953000", "182313.953000", "182313.968000", "182313.968000", "182313.968000", "182313.968000", "182313.968000", "182313.968000", "182313.968000", "182313.984000", "182313.984000", "182313.984000", "182313.984000", "182313.984000", "182313.984000", "182313.984000", "182413.921000", "182413.921000", "182413.921000", "182413.937000", "182413.937000", "182413.937000", "182413.937000", "182413.937000", "182413.937000", "182413.953000", "182413.953000", "182413.953000", "182413.968000", "182413.968000", "182413.968000", "182413.968000", "182413.968000", "182413.968000", "182413.984000", "182413.984000", "182413.984000", "182413.984000", "182413.984000", "182413.984000", "182413.984000", "182414.000000", "182414.000000", "182414.015000", "182444.453000", "182444.453000", "182444.468000", "182444.468000", "182444.468000", "182444.468000", "182444.468000", "182444.468000", "182444.484000", "182444.484000", "182444.484000", "182444.484000", "182444.484000", "182444.484000", "182444.484000"],
      "DataSetTrailingPadding": [
        "\u0000\u0000\u0000\u0000\u0000\u0000\u0000\u0000\u0000\u0000\u0000\u0000\u0000\u0000\u0000\u0000\u0000\u0000\u0000\u0000\u0000\u0000\u0000\u0000\u0000\u0000\u0000\u0000\u0000\u0000\u0000\u0000\u0000\u0000\u0000\u0000",
        "\u0000\u0000\u0000\u0000\u0000\u0000\u0000\u0000\u0000\u0000\u0000\u0000\u0000\u0000\u0000\u0000\u0000\u0000\u0000\u0000\u0000\u0000\u0000\u0000\u0000\u0000\u0000\u0000\u0000\u0000\u0000\u0000\u0000\u0000",
        "\u0000\u0000\u0000\u0000\u0000\u0000\u0000\u0000\u0000\u0000\u0000\u0000\u0000\u0000\u0000\u0000\u0000\u0000\u0000\u0000\u0000\u0000\u0000\u0000\u0000\u0000\u0000\u0000\u0000\u0000\u0000\u0000\u0000\u0000\u0000\u0000",
        "\u0000\u0000\u0000\u0000\u0000\u0000\u0000\u0000\u0000\u0000\u0000\u0000\u0000\u0000\u0000\u0000\u0000\u0000\u0000\u0000\u0000\u0000\u0000\u0000\u0000\u0000\u0000\u0000\u0000\u0000\u0000\u0000\u0000\u0000",
        "\u0000\u0000\u0000\u0000\u0000\u0000\u0000\u0000\u0000\u0000\u0000\u0000\u0000\u0000\u0000\u0000\u0000\u0000\u0000\u0000\u0000\u0000\u0000\u0000\u0000\u0000\u0000\u0000\u0000\u0000\u0000\u0000\u0000\u0000\u0000\u0000",
        "\u0000\u0000\u0000\u0000\u0000\u0000\u0000\u0000\u0000\u0000\u0000\u0000\u0000\u0000\u0000\u0000\u0000\u0000\u0000\u0000\u0000\u0000\u0000\u0000\u0000\u0000\u0000\u0000\u0000\u0000\u0000\u0000\u0000\u0000\u0000\u0000\u0000\u0000",
        "\u0000\u0000\u0000\u0000\u0000\u0000\u0000\u0000\u0000\u0000\u0000\u0000\u0000\u0000\u0000\u0000\u0000\u0000\u0000\u0000\u0000\u0000\u0000\u0000\u0000\u0000\u0000\u0000\u0000\u0000\u0000\u0000\u0000\u0000",
        "\u0000\u0000\u0000\u0000\u0000\u0000\u0000\u0000\u0000\u0000\u0000\u0000\u0000\u0000\u0000\u0000\u0000\u0000\u0000\u0000\u0000\u0000\u0000\u0000\u0000\u0000\u0000\u0000\u0000\u0000\u0000\u0000\u0000\u0000\u0000\u0000",
