{
  "AcquisitionMatrixPE": 104,
  "AcquisitionNumber": 1,
  "AcquisitionTime": "16:46:20.690000",
  "BandwidthPerPixelPhaseEncode": 13.935,
  "BaseResolution": 104,
  "CoilString": "C:HEA;HEP",
  "ConversionSoftware": "dcm2niix",
  "ConversionSoftwareVersion": "v1.0.20210317",
  "DerivedVendorReportedEchoSpacing": 0.000690017,
  "DeviceSerialNumber": "35450",
  "DwellTime": 2.5e-06,
  "EchoTime": 0.0348,
  "EffectiveEchoSpacing": 0.000690017,
  "FlipAngle": 55,
  "ImageComments": "Unaliased MB8/PE3",
  "ImageOrientationPatientDICOM": [1, 0, 0, 0, 0.989016, -0.147809],
  "ImageType": [
    "ORIGINAL",
    "PRIMARY",
    "M",
    "MB",
    "ND",
    "MOSAIC"
],
  "ImagingFrequency": 123.235,
  "InPlanePhaseEncodingDirectionDICOM": "COL",
  "InstitutionAddress": "Univeristy Ave. 197,Newark,North East,US,07102-1814",
  "InstitutionName": "RUBIC",
  "InstitutionalDepartmentName": "Department",
  "MRAcquisitionType": "2D",
  "MagneticFieldStrength": 3,
  "Manufacturer": "Siemens",
  "ManufacturersModelName": "TrioTim",
  "Modality": "MR",
  "MultibandAccelerationFactor": 8,
  "PartialFourier": 0.875,
  "PatientPosition": "HFS",
  "PercentPhaseFOV": 100,
  "PercentSampling": 100,
  "PhaseEncodingDirection": "j-",
  "PhaseEncodingSteps": 91,
  "PhaseResolution": 1,
  "PixelBandwidth": 1923,
  "ProcedureStepDescription": "Cole^Michael",
  "ProtocolName": "cmrr_mbep2d_bold_2mm_MB8_Task_8x",
  "PulseSequenceDetails": "%CustomerSeq%\\cmrr_mbep2d_bold",
  "ReceiveCoilName": "32Ch_Head",
  "ReconMatrixPE": 104,
  "RepetitionTime": 0.785,
  "SAR": 0.125509,
  "ScanOptions": "PFP\\FS",
  "ScanningSequence": "EP",
  "SequenceName": "epfid2d1_104",
  "SequenceVariant": "SK\\SS",
  "SeriesDescription": "cmrr_mbep2d_bold_2mm_MB8_Task_8x",
  "SeriesNumber": 27,
  "ShimSetting": [2115, -323, -7280, 637, -301, -524, -59, 39],
  "SliceThickness": 2,
  "SliceTiming": [0, 0.4375, 0.0875, 0.525, 0.175, 0.615, 0.2625, 0.7025, 0.35, 0, 0.4375, 0.0875, 0.525, 0.175, 0.615, 0.2625, 0.7025, 0.35, 0, 0.4375, 0.0875, 0.525, 0.175, 0.615, 0.2625, 0.7025, 0.35, 0, 0.4375, 0.0875, 0.525, 0.175, 0.615, 0.2625, 0.7025, 0.35, 0, 0.4375, 0.0875, 0.525, 0.175, 0.615, 0.2625, 0.7025, 0.35, 0, 0.4375, 0.0875, 0.525, 0.175, 0.615, 0.2625, 0.7025, 0.35, 0, 0.4375, 0.0875, 0.525, 0.175, 0.615, 0.2625, 0.7025, 0.35, 0, 0.4375, 0.0875, 0.525, 0.175, 0.615, 0.2625, 0.7025, 0.35],
  "SoftwareVersions": "syngo MR B19",
  "SpacingBetweenSlices": 2,
  "StationName": "MRC35450",
  "TaskName": "cpro",
  "TotalReadoutTime": 0.0710717,
  "TxRefAmp": 356.725,
  "dcmmeta_affine": [
    [-2.0, 0.0, 0.0, 105.3559341430664],
    [0.0, 1.9780317544937134, -0.29561883211135864, -76.20597076416016],
    [0.0, 0.29561883211135864, 1.9780317544937134, -108.96739196777344],
    [0.0, 0.0, 0.0, 1.0]
],
  "dcmmeta_reorient_transform": [
    [0.0, -1.0, 0.0, 103.0],
    [1.0, 0.0, 0.0, 0.0],
    [0.0, 0.0, 1.0, 0.0],
    [0.0, 0.0, 0.0, 1.0]
],
  "dcmmeta_shape": [104, 104, 72, 581],
  "dcmmeta_slice_dim": 2,
  "dcmmeta_version": 0.6,
  "global": {
    "const": {
      "AcquisitionMatrix": [104, 0, 0, 104],
      "AngioFlag": "N",
      "BitsAllocated": 16,
      "BitsStored": 12,
      "Columns": 936,
      "EchoNumbers": 1,
      "EchoTime": 34.8,
      "EchoTrainLength": 1,
      "FlipAngle": 55.0,
      "HighBit": 11,
      "ImageOrientationPatient": [1.0, 0.0, 0.0, 0.0, 0.98901586285082, -0.1478094145494],
      "ImagePositionPatient": [-937.35593223572, -950.3924926479, 44.458781024595],
      "ImageType": [
        "ORIGINAL",
        "PRIMARY",
        "M",
        "MB",
        "ND",
        "MOSAIC"
],
      "ImagedNucleus": "1H",
      "ImagingFrequency": 123.234593,
      "InPlanePhaseEncodingDirection": "COL",
      "MRAcquisitionType": "2D",
      "MagneticFieldStrength": 3.0,
      "Manufacturer": "SIEMENS",
      "ManufacturerModelName": "TrioTim",
      "Modality": "MR",
      "NumberOfAverages": 1.0,
      "NumberOfPhaseEncodingSteps": 91,
      "PercentPhaseFieldOfView": 100.0,
      "PercentSampling": 100.0,
      "PerformedProcedureStepStartTime": "143249.500000",
      "PhotometricInterpretation": "MONOCHROME2",
      "PixelBandwidth": 1923.0,
      "PixelRepresentation": 0,
      "PixelSpacing": [2.0, 2.0],
      "ProtocolName": "cmrr_mbep2d_bold_2mm_MB8_Task_8x",
      "RepetitionTime": 785.0,
      "Rows": 936,
      "SAR": 0.12550929979743,
      "SamplesPerPixel": 1,
      "ScanOptions": [
        "PFP",
        "FS"
],
      "ScanningSequence": "EP",
      "SequenceName": "epfid2d1_104",
      "SequenceVariant": [
        "SK",
        "SS"
],
      "SeriesDescription": "cmrr_mbep2d_bold_2mm_MB8_Task_8x",
      "SeriesNumber": 27,
      "SeriesTime": "184441.468000",
      "SliceLocation": -96.506518254105,
      "SliceThickness": 2.0,
      "SmallestImagePixelValue": 0,
      "SoftwareVersions": "syngo MR B19",
      "SpacingBetweenSlices": 2.0000000220781,
      "SpecificCharacterSet": "ISO_IR 100",
      "StudyID": "1",
      "StudyTime": "143249.453000",
      "TransmitCoilName": "Body",
      "VariableFlipAngleFlag": "N",
      "WindowCenterWidthExplanation": "Algo1",
      "dBdt": 0.0},
    "slices": {}
  },
  "time": {
    "samples": {
      "AcquisitionNumber": [1, 2, 3, 4, 5, 6, 7, 8, 9, 10, 11, 12, 13, 14, 15, 16, 17, 18, 19, 20, 21, 22, 23, 24, 25, 26, 27, 28, 29, 30, 31, 32, 33, 34, 35, 36, 37, 38, 39, 40, 41, 42, 43, 44, 45, 46, 47, 48, 49, 50, 51, 52, 53, 54, 55, 56, 57, 58, 59, 60, 61, 62, 63, 64, 65, 66, 67, 68, 69, 70, 71, 72, 73, 74, 75, 76, 77, 78, 79, 80, 81, 82, 83, 84, 85, 86, 87, 88, 89, 90, 91, 92, 93, 94, 95, 96, 97, 98, 99, 100, 101, 102, 103, 104, 105, 106, 107, 108, 109, 110, 111, 112, 113, 114, 115, 116, 117, 118, 119, 120, 121, 122, 123, 124, 125, 126, 127, 128, 129, 130, 131, 132, 133, 134, 135, 136, 137, 138, 139, 140, 141, 142, 143, 144, 145, 146, 147, 148, 149, 150, 151, 152, 153, 154, 155, 156, 157, 158, 159, 160, 161, 162, 163, 164, 165, 166, 167, 168, 169, 170, 171, 172, 173, 174, 175, 176, 177, 178, 179, 180, 181, 182, 183, 184, 185, 186, 187, 188, 189, 190, 191, 192, 193, 194, 195, 196, 197, 198, 199, 200, 201, 202, 203, 204, 205, 206, 207, 208, 209, 210, 211, 212, 213, 214, 215, 216, 217, 218, 219, 220, 221, 222, 223, 224, 225, 226, 227, 228, 229, 230, 231, 232, 233, 234, 235, 236, 237, 238, 239, 240, 241, 242, 243, 244, 245, 246, 247, 248, 249, 250, 251, 252, 253, 254, 255, 256, 257, 258, 259, 260, 261, 262, 263, 264, 265, 266, 267, 268, 269, 270, 271, 272, 273, 274, 275, 276, 277, 278, 279, 280, 281, 282, 283, 284, 285, 286, 287, 288, 289, 290, 291, 292, 293, 294, 295, 296, 297, 298, 299, 300, 301, 302, 303, 304, 305, 306, 307, 308, 309, 310, 311, 312, 313, 314, 315, 316, 317, 318, 319, 320, 321, 322, 323, 324, 325, 326, 327, 328, 329, 330, 331, 332, 333, 334, 335, 336, 337, 338, 339, 340, 341, 342, 343, 344, 345, 346, 347, 348, 349, 350, 351, 352, 353, 354, 355, 356, 357, 358, 359, 360, 361, 362, 363, 364, 365, 366, 367, 368, 369, 370, 371, 372, 373, 374, 375, 376, 377, 378, 379, 380, 381, 382, 383, 384, 385, 386, 387, 388, 389, 390, 391, 392, 393, 394, 395, 396, 397, 398, 399, 400, 401, 402, 403, 404, 405, 406, 407, 408, 409, 410, 411, 412, 413, 414, 415, 416, 417, 418, 419, 420, 421, 422, 423, 424, 425, 426, 427, 428, 429, 430, 431, 432, 433, 434, 435, 436, 437, 438, 439, 440, 441, 442, 443, 444, 445, 446, 447, 448, 449, 450, 451, 452, 453, 454, 455, 456, 457, 458, 459, 460, 461, 462, 463, 464, 465, 466, 467, 468, 469, 470, 471, 472, 473, 474, 475, 476, 477, 478, 479, 480, 481, 482, 483, 484, 485, 486, 487, 488, 489, 490, 491, 492, 493, 494, 495, 496, 497, 498, 499, 500, 501, 502, 503, 504, 505, 506, 507, 508, 509, 510, 511, 512, 513, 514, 515, 516, 517, 518, 519, 520, 521, 522, 523, 524, 525, 526, 527, 528, 529, 530, 531, 532, 533, 534, 535, 536, 537, 538, 539, 540, 541, 542, 543, 544, 545, 546, 547, 548, 549, 550, 551, 552, 553, 554, 555, 556, 557, 558, 559, 560, 561, 562, 563, 564, 565, 566, 567, 568, 569, 570, 571, 572, 573, 574, 575, 576, 577, 578, 579, 580, 581],
      "AcquisitionTime": ["164620.690000", "164621.480000", "164622.267500", "164623.055000", "164623.842500", "164624.632500", "164625.420000", "164626.207500", "164626.997500", "164627.785000", "164628.572500", "164629.360000", "164630.150000", "164630.937500", "164631.725000", "164632.512500", "164633.302500", "164634.090000", "164634.877500", "164635.665000", "164636.455000", "164637.242500", "164638.030000", "164638.817500", "164639.607500", "164640.395000", "164641.182500", "164641.970000", "164642.760000", "164643.547500", "164644.335000", "164645.125000", "164645.912500", "164646.700000", "164647.487500", "164648.277500", "164649.065000", "164649.852500", "164650.640000", "164651.430000", "164652.217500", "164653.005000", "164653.792500", "164654.582500", "164655.370000", "164656.157500", "164656.945000", "164657.735000", "164658.522500", "164659.310000", "164700.097500", "164700.887500", "164701.675000", "164702.462500", "164703.252500", "164704.040000", "164704.827500", "164705.615000", "164706.405000", "164707.192500", "164707.980000", "164708.767500", "164709.557500", "164710.345000", "164711.132500", "164711.920000", "164712.710000", "164713.497500", "164714.285000", "164715.072500", "164715.862500", "164716.650000", "164717.437500", "164718.225000", "164719.015000", "164719.802500", "164720.590000", "164721.380000", "164722.167500", "164722.955000", "164723.742500", "164724.532500", "164725.320000", "164726.107500", "164726.895000", "164727.685000", "164728.472500", "164729.260000", "164730.047500", "164730.837500", "164731.625000", "164732.412500", "164733.200000", "164733.990000", "164734.777500", "164735.565000", "164736.352500", "164737.142500", "164737.930000", "164738.717500", "164739.507500", "164740.295000", "164741.082500", "164741.870000", "164742.660000", "164743.447500", "164744.235000", "164745.022500", "164745.812500", "164746.600000", "164747.387500", "164748.175000", "164748.965000", "164749.752500", "164750.540000", "164751.327500", "164752.117500", "164752.905000", "164753.692500", "164754.480000", "164755.270000", "164756.057500", "164756.845000", "164757.635000", "164758.422500", "164759.210000", "164759.997500", "164800.787500", "164801.575000", "164802.362500", "164803.150000", "164803.940000", "164804.727500", "164805.515000", "164806.302500", "164807.092500", "164807.880000", "164808.667500", "164809.455000", "164810.245000", "164811.032500", "164811.820000", "164812.607500", "164813.397500", "164814.185000", "164814.972500", "164815.762500", "164816.550000", "164817.337500", "164818.125000", "164818.915000", "164819.702500", "164820.490000", "164821.277500", "164822.067500", "164822.855000", "164823.642500", "164824.430000", "164825.220000", "164826.007500", "164826.795000", "164827.582500", "164828.372500", "164829.160000", "164829.947500", "164830.735000", "164831.525000", "164832.312500", "164833.100000", "164833.890000", "164834.677500", "164835.465000", "164836.252500", "164837.042500", "164837.830000", "164838.617500", "164839.405000", "164840.195000", "164840.982500", "164841.770000", "164842.557500", "164843.347500", "164844.135000", "164844.922500", "164845.710000", "164846.500000", "164847.287500", "164848.075000", "164848.862500", "164849.652500", "164850.440000", "164851.227500", "164852.017500", "164852.805000", "164853.592500", "164854.380000", "164855.170000", "164855.957500", "164856.745000", "164857.532500", "164858.322500", "164859.110000", "164859.897500", "164900.685000", "164901.475000", "164902.262500", "164903.050000", "164903.837500", "164904.627500", "164905.415000", "164906.202500", "164906.990000", "164907.780000", "164908.567500", "164909.355000", "164910.145000", "164910.932500", "164911.720000", "164912.507500", "164913.297500", "164914.085000", "164914.872500", "164915.660000", "164916.450000", "164917.237500", "164918.025000", "164918.812500", "164919.602500", "164920.390000", "164921.177500", "164921.965000", "164922.755000", "164923.542500", "164924.330000", "164925.120000", "164925.907500", "164926.695000", "164927.482500", "164928.272500", "164929.060000", "164929.847500", "164930.635000", "164931.425000", "164932.212500", "164933.000000", "164933.787500", "164934.577500", "164935.365000", "164936.152500", "164936.940000", "164937.730000", "164938.517500", "164939.305000", "164940.092500", "164940.882500", "164941.670000", "164942.457500", "164943.247500", "164944.035000", "164944.822500", "164945.610000", "164946.400000", "164947.187500", "164947.975000", "164948.762500", "164949.552500", "164950.340000", "164951.127500", "164951.915000", "164952.705000", "164953.492500", "164954.280000", "164955.067500", "164955.857500", "164956.645000", "164957.432500", "164958.220000", "164959.010000", "164959.797500", "165000.585000", "165001.375000", "165002.162500", "165002.950000", "165003.737500", "165004.527500", "165005.315000", "165006.102500", "165006.890000", "165007.680000", "165008.467500", "165009.255000", "165010.042500", "165010.832500", "165011.620000", "165012.407500", "165013.195000", "165013.985000", "165014.772500", "165015.560000", "165016.347500", "165017.137500", "165017.925000", "165018.712500", "165019.502500", "165020.290000", "165021.077500", "165021.865000", "165022.655000", "165023.442500", "165024.230000", "165025.017500", "165025.807500", "165026.595000", "165027.382500", "165028.170000", "165028.960000", "165029.747500", "165030.535000", "165031.322500", "165032.112500", "165032.900000", "165033.687500", "165034.475000", "165035.265000", "165036.052500", "165036.840000", "165037.630000", "165038.417500", "165039.205000", "165039.992500", "165040.782500", "165041.570000", "165042.357500", "165043.145000", "165043.935000", "165044.722500", "165045.510000", "165046.297500", "165047.087500", "165047.875000", "165048.662500", "165049.450000", "165050.240000", "165051.027500", "165051.815000", "165052.602500", "165053.392500", "165054.180000", "165054.967500", "165055.757500", "165056.545000", "165057.332500", "165058.120000", "165058.910000", "165059.697500", "165100.485000", "165101.272500", "165102.062500", "165102.850000", "165103.637500", "165104.425000", "165105.215000", "165106.002500", "165106.790000", "165107.577500", "165108.367500", "165109.155000", "165109.942500", "165110.730000", "165111.520000", "165112.307500", "165113.095000", "165113.885000", "165114.672500", "165115.460000", "165116.247500", "165117.037500", "165117.825000", "165118.612500", "165119.400000", "165120.190000", "165120.977500", "165121.765000", "165122.552500", "165123.342500", "165124.130000", "165124.917500", "165125.705000", "165126.495000", "165127.282500", "165128.070000", "165128.857500", "165129.647500", "165130.435000", "165131.222500", "165132.012500", "165132.800000", "165133.587500", "165134.375000", "165135.165000", "165135.952500", "165136.740000", "165137.527500", "165138.317500", "165139.105000", "165139.892500", "165140.680000", "165141.470000", "165142.257500", "165143.045000", "165143.832500", "165144.622500", "165145.410000", "165146.197500", "165146.985000", "165147.775000", "165148.562500", "165149.350000", "165150.140000", "165150.927500", "165151.715000", "165152.502500", "165153.292500", "165154.080000", "165154.867500", "165155.655000", "165156.445000", "165157.232500", "165158.020000", "165158.807500", "165159.597500", "165200.385000", "165201.172500", "165201.960000", "165202.750000", "165203.537500", "165204.325000", "165205.112500", "165205.902500", "165206.690000", "165207.477500", "165208.267500", "165209.055000", "165209.842500", "165210.630000", "165211.420000", "165212.207500", "165212.995000", "165213.782500", "165214.572500", "165215.360000", "165216.147500", "165216.935000", "165217.725000", "165218.512500", "165219.300000", "165220.087500", "165220.877500", "165221.665000", "165222.452500", "165223.240000", "165224.030000", "165224.817500", "165225.605000", "165226.395000", "165227.182500", "165227.970000", "165228.757500", "165229.547500", "165230.335000", "165231.122500", "165231.910000", "165232.700000", "165233.487500", "165234.275000", "165235.062500", "165235.852500", "165236.640000", "165237.427500", "165238.215000", "165239.005000", "165239.792500", "165240.580000", "165241.370000", "165242.157500", "165242.945000", "165243.732500", "165244.522500", "165245.310000", "165246.097500", "165246.885000", "165247.675000", "165248.462500", "165249.250000", "165250.037500", "165250.827500", "165251.615000", "165252.402500", "165253.190000", "165253.980000", "165254.767500", "165255.555000", "165256.342500", "165257.132500", "165257.920000", "165258.707500", "165259.497500", "165300.285000", "165301.072500", "165301.860000", "165302.650000", "165303.437500", "165304.225000", "165305.012500", "165305.802500", "165306.590000", "165307.377500", "165308.165000", "165308.955000", "165309.742500", "165310.530000", "165311.317500", "165312.107500", "165312.895000", "165313.682500", "165314.470000", "165315.260000", "165316.047500", "165316.835000", "165317.625000", "165318.412500", "165319.200000", "165319.987500", "165320.777500", "165321.565000", "165322.352500", "165323.140000", "165323.930000", "165324.717500", "165325.505000", "165326.292500", "165327.082500", "165327.870000", "165328.657500", "165329.445000", "165330.235000", "165331.022500", "165331.810000", "165332.597500", "165333.387500", "165334.175000", "165334.962500", "165335.752500", "165336.540000", "165337.327500", "165338.115000", "165338.905000", "165339.692500", "165340.480000", "165341.267500", "165342.057500", "165342.845000", "165343.632500", "165344.420000", "165345.210000", "165345.997500", "165346.785000", "165347.572500", "165348.362500", "165349.150000", "165349.937500", "165350.725000", "165351.515000", "165352.302500", "165353.090000", "165353.880000", "165354.667500", "165355.455000", "165356.242500", "165357.032500", "165357.820000"],
      "ContentTime": ["184441.468000", "184441.468000", "184441.468000", "184541.437000", "184541.437000", "184541.437000", "184541.437000", "184541.453000", "184541.453000", "184541.453000", "184541.453000", "184541.453000", "184541.453000", "184541.453000", "184541.468000", "184541.468000", "184541.468000", "184541.468000", "184541.468000", "184541.468000", "184541.468000", "184541.484000", "184541.484000", "184541.484000", "184541.484000", "184541.484000", "184541.484000", "184541.484000", "184541.500000", "184541.500000", "184541.500000", "184641.437000", "184641.437000", "184641.437000", "184641.437000", "184641.453000", "184641.453000", "184641.453000", "184641.453000", "184641.453000", "184641.453000", "184641.453000", "184641.468000", "184641.468000", "184641.468000", "184641.468000", "184641.468000", "184641.468000", "184641.468000", "184641.484000", "184641.484000", "184641.484000", "184641.484000", "184641.484000", "184641.500000", "184641.500000", "184641.500000", "184641.500000", "184641.500000", "184741.437000", "184741.437000", "184741.437000", "184741.437000", "184741.453000", "184741.453000", "184741.453000", "184741.453000", "184741.453000", "184741.453000", "184741.453000", "184741.468000", "184741.468000", "184741.468000", "184741.468000", "184741.468000", "184741.468000", "184741.468000", "184741.484000", "184741.484000", "184741.484000", "184741.484000", "184741.484000", "184741.484000", "184741.484000", "184741.500000", "184741.500000", "184741.500000", "184841.437000", "184841.437000", "184841.437000", "184841.437000", "184841.453000", "184841.453000", "184841.453000", "184841.453000", "184841.453000", "184841.453000", "184841.468000", "184841.468000", "184841.468000", "184841.468000", "184841.468000", "184841.468000", "184841.468000", "184841.484000", "184841.484000", "184841.484000", "184841.484000", "184841.484000", "184841.484000", "184841.484000", "184841.500000", "184841.500000", "184841.500000", "184841.500000", "184941.437000", "184941.437000", "184941.437000", "184941.437000", "184941.453000", "184941.453000", "184941.453000", "184941.453000", "184941.453000", "184941.453000", "184941.453000", "184941.468000", "184941.468000", "184941.468000", "184941.468000", "184941.468000", "184941.468000", "184941.468000", "184941.484000", "184941.484000", "184941.484000", "184941.484000", "184941.484000", "184941.484000", "184941.484000", "184941.500000", "184941.500000", "184941.500000", "185041.437000", "185041.437000", "185041.437000", "185041.437000", "185041.453000", "185041.453000", "185041.453000", "185041.453000", "185041.453000", "185041.453000", "185041.453000", "185041.468000", "185041.468000", "185041.468000", "185041.468000", "185041.468000", "185041.468000", "185041.468000", "185041.484000", "185041.484000", "185041.484000", "185041.484000", "185041.484000", "185041.484000", "185041.484000", "185041.500000", "185041.500000", "185041.500000", "185041.500000", "185141.437000", "185141.437000", "185141.437000", "185141.437000", "185141.453000", "185141.453000", "185141.453000", "185141.453000", "185141.453000", "185141.453000", "185141.453000", "185141.468000", "185141.468000", "185141.468000", "185141.468000", "185141.468000", "185141.468000", "185141.468000", "185141.484000", "185141.484000", "185141.484000", "185141.484000", "185141.484000", "185141.484000", "185141.484000", "185141.500000", "185141.500000", "185141.500000", "185241.437000", "185241.437000", "185241.437000", "185241.437000", "185241.453000", "185241.453000", "185241.453000", "185241.453000", "185241.453000", "185241.453000", "185241.453000", "185241.468000", "185241.468000", "185241.468000", "185241.468000", "185241.468000", "185241.468000", "185241.468000", "185241.484000", "185241.484000", "185241.484000", "185241.484000", "185241.484000", "185241.484000", "185241.484000", "185241.500000", "185241.500000", "185241.500000", "185341.437000", "185341.437000", "185341.437000", "185341.437000", "185341.453000", "185341.453000", "185341.453000", "185341.453000", "185341.453000", "185341.453000", "185341.453000", "185341.468000", "185341.468000", "185341.468000", "185341.468000", "185341.468000", "185341.468000", "185341.468000", "185341.484000", "185341.484000", "185341.484000", "185341.484000", "185341.484000", "185341.500000", "185341.500000", "185341.500000", "185341.500000", "185341.500000", "185441.437000", "185441.437000", "185441.453000", "185441.453000", "185441.453000", "185441.453000", "185441.453000", "185441.453000", "185441.468000", "185441.468000", "185441.468000", "185441.468000", "185441.484000", "185441.484000", "185441.484000", "185441.484000", "185441.484000", "185441.484000", "185441.484000", "185441.500000", "185441.500000", "185441.500000", "185441.500000", "185441.500000", "185441.500000", "185441.515000", "185441.515000", "185441.515000", "185541.437000", "185541.437000", "185541.437000", "185541.437000", "185541.453000", "185541.453000", "185541.453000", "185541.453000", "185541.453000", "185541.453000", "185541.453000", "185541.468000", "185541.468000", "185541.468000", "185541.468000", "185541.468000", "185541.468000", "185541.468000", "185541.484000", "185541.484000", "185541.484000", "185541.484000", "185541.484000", "185541.484000", "185541.484000", "185541.500000", "185541.500000", "185541.500000", "185541.500000", "185641.437000", "185641.437000", "185641.437000", "185641.437000", "185641.453000", "185641.453000", "185641.453000", "185641.453000", "185641.453000", "185641.453000", "185641.453000", "185641.468000", "185641.468000", "185641.468000", "185641.468000", "185641.468000", "185641.468000", "185641.468000", "185641.484000", "185641.484000", "185641.484000", "185641.484000", "185641.484000", "185641.484000", "185641.484000", "185641.500000", "185641.500000", "185641.500000", "185741.437000", "185741.437000", "185741.437000", "185741.437000", "185741.453000", "185741.453000", "185741.453000", "185741.453000", "185741.453000", "185741.453000", "185741.468000", "185741.468000", "185741.468000", "185741.468000", "185741.468000", "185741.468000", "185741.484000", "185741.484000", "185741.484000", "185741.484000", "185741.484000", "185741.484000", "185741.484000", "185741.500000", "185741.500000", "185741.500000", "185741.500000", "185741.500000", "185841.437000", "185841.437000", "185841.437000", "185841.437000", "185841.453000", "185841.453000", "185841.453000", "185841.453000", "185841.453000", "185841.453000", "185841.453000", "185841.468000", "185841.468000", "185841.468000", "185841.468000", "185841.468000", "185841.468000", "185841.484000", "185841.484000", "185841.484000", "185841.484000", "185841.484000", "185841.484000", "185841.500000", "185841.500000", "185841.500000", "185841.515000", "185841.515000", "185941.437000", "185941.437000", "185941.437000", "185941.437000", "185941.453000", "185941.453000", "185941.453000", "185941.453000", "185941.453000", "185941.453000", "185941.453000", "185941.468000", "185941.468000", "185941.468000", "185941.468000", "185941.468000", "185941.468000", "185941.468000", "185941.484000", "185941.484000", "185941.484000", "185941.484000", "185941.484000", "185941.500000", "185941.500000", "185941.500000", "185941.500000", "185941.500000", "190041.437000", "190041.437000", "190041.437000", "190041.437000", "190041.453000", "190041.453000", "190041.453000", "190041.453000", "190041.453000", "190041.453000", "190041.453000", "190041.468000", "190041.468000", "190041.468000", "190041.468000", "190041.468000", "190041.468000", "190041.468000", "190041.484000", "190041.484000", "190041.484000", "190041.484000", "190041.484000", "190041.484000", "190041.500000", "190041.500000", "190041.500000", "190041.500000", "190041.500000", "190141.437000", "190141.437000", "190141.437000", "190141.437000", "190141.453000", "190141.453000", "190141.453000", "190141.453000", "190141.453000", "190141.453000", "190141.453000", "190141.468000", "190141.468000", "190141.468000", "190141.468000", "190141.468000", "190141.468000", "190141.468000", "190141.484000", "190141.484000", "190141.484000", "190141.484000", "190141.484000", "190141.484000", "190141.484000", "190141.500000", "190141.500000", "190141.500000", "190241.437000", "190241.437000", "190241.437000", "190241.437000", "190241.453000", "190241.453000", "190241.453000", "190241.453000", "190241.453000", "190241.453000", "190241.453000", "190241.468000", "190241.468000", "190241.468000", "190241.468000", "190241.468000", "190241.468000", "190241.468000", "190241.484000", "190241.484000", "190241.484000", "190241.484000", "190241.484000", "190241.500000", "190241.500000", "190241.500000", "190241.500000", "190241.500000", "190341.437000", "190341.437000", "190341.437000", "190341.437000", "190341.453000", "190341.453000", "190341.453000", "190341.453000", "190341.453000", "190341.453000", "190341.453000", "190341.468000", "190341.468000", "190341.468000", "190341.468000", "190341.468000", "190341.468000", "190341.468000", "190341.484000", "190341.484000", "190341.484000", "190341.484000", "190341.484000", "190341.484000", "190341.500000", "190341.500000", "190341.500000", "190341.500000", "190441.437000", "190441.437000", "190441.437000", "190441.437000", "190441.453000", "190441.453000", "190441.453000", "190441.453000", "190441.453000", "190441.453000", "190441.453000", "190441.468000", "190441.468000", "190441.468000", "190441.468000", "190441.468000", "190441.468000", "190441.468000", "190441.484000", "190441.484000", "190441.484000", "190441.484000", "190441.484000", "190441.484000", "190441.484000", "190441.500000", "190441.500000", "190441.500000", "190511.015000", "190511.015000", "190511.015000", "190511.015000", "190511.015000", "190511.015000", "190511.031000", "190511.031000", "190511.031000", "190511.031000", "190511.031000", "190511.031000", "190511.031000", "190511.046000", "190511.046000"],
      "DataSetTrailingPadding": [
        "\u0000\u0000\u0000\u0000\u0000\u0000\u0000\u0000\u0000\u0000\u0000\u0000\u0000\u0000\u0000\u0000\u0000\u0000\u0000\u0000\u0000\u0000\u0000\u0000\u0000\u0000\u0000\u0000\u0000\u0000\u0000\u0000\u0000\u0000\u0000\u0000\u0000\u0000\u0000\u0000\u0000\u0000\u0000\u0000\u0000\u0000\u0000\u0000\u0000\u0000\u0000\u0000\u0000\u0000\u0000\u0000\u0000\u0000\u0000\u0000\u0000\u0000\u0000\u0000\u0000\u0000\u0000\u0000\u0000\u0000\u0000\u0000\u0000\u0000\u0000\u0000\u0000\u0000\u0000\u0000\u0000\u0000\u0000\u0000\u0000\u0000\u0000\u0000\u0000\u0000\u0000\u0000\u0000\u0000\u0000\u0000\u0000\u0000\u0000\u0000\u0000\u0000\u0000\u0000\u0000\u0000\u0000\u0000\u0000\u0000\u0000\u0000\u0000\u0000\u0000\u0000\u0000\u0000\u0000\u0000\u0000\u0000\u0000\u0000\u0000\u0000\u0000\u0000\u0000\u0000\u0000\u0000\u0000\u0000\u0000\u0000\u0000\u0000\u0000\u0000\u0000\u0000\u0000\u0000\u0000\u0000\u0000\u0000\u0000\u0000\u0000\u0000\u0000\u0000\u0000\u0000\u0000\u0000\u0000\u0000\u0000\u0000\u0000\u0000\u0000\u0000\u0000\u0000\u0000\u0000\u0000\u0000\u0000\u0000\u0000\u0000\u0000\u0000\u0000\u0000\u0000\u0000\u0000\u0000\u0000\u0000\u0000\u0000\u0000\u0000\u0000\u0000\u0000\u0000\u0000\u0000\u0000\u0000\u0000\u0000\u0000\u0000\u0000\u0000\u0000\u0000\u0000\u0000\u0000\u0000\u0000\u0000\u0000\u0000\u0000\u0000\u0000\u0000\u0000\u0000\u0000\u0000\u0000\u0000\u0000\u0000\u0000\u0000\u0000\u0000\u0000\u0000\u0000\u0000\u0000\u0000\u0000\u0000\u0000\u0000\u0000\u0000\u0000\u0000\u0000\u0000\u0000\u0000\u0000\u0000\u0000\u0000\u0000\u0000\u0000\u0000\u0000\u0000\u0000\u0000\u0000\u0000\u0000\u0000\u0000\u0000\u0000\u0000\u0000\u0000\u0000\u0000\u0000\u0000\u0000\u0000\u0000\u0000\u0000\u0000\u0000\u0000\u0000\u0000\u0000\u0000\u0000\u0000\u0000\u0000\u0000\u0000\u0000\u0000\u0000\u0000\u0000\u0000\u0000\u0000\u0000\u0000\u0000\u0000\u0000\u0000\u0000\u0000\u0000\u0000\u0000\u0000\u0000\u0000\u0000\u0000\u0000\u0000\u0000\u0000\u0000\u0000\u0000\u0000\u0000\u0000\u0000\u0000\u0000\u0000\u0000\u0000\u0000\u0000\u0000\u0000\u0000\u0000",
