{
  "AcquisitionMatrixPE": 104,
  "AcquisitionNumber": 1,
  "AcquisitionTime": "15:56:8.825000",
  "BandwidthPerPixelPhaseEncode": 13.935,
  "BaseResolution": 104,
  "CoilString": "C:HEA;HEP",
  "ConversionSoftware": "dcm2niix",
  "ConversionSoftwareVersion": "v1.0.20210317",
  "DerivedVendorReportedEchoSpacing": 0.000690017,
  "DeviceSerialNumber": "35450",
  "DwellTime": 2.5e-06,
  "EchoTime": 0.0348,
  "EffectiveEchoSpacing": 0.000690017,
  "FlipAngle": 55,
  "ImageComments": "Unaliased MB8/PE3",
  "ImageOrientationPatientDICOM": [1, 0, 0, 0, 0.989016, -0.147809],
  "ImageType": [
    "ORIGINAL",
    "PRIMARY",
    "M",
    "MB",
    "ND",
    "MOSAIC"
],
  "ImagingFrequency": 123.235,
  "InPlanePhaseEncodingDirectionDICOM": "COL",
  "InstitutionAddress": "Univeristy Ave. 197,Newark,North East,US,07102-1814",
  "InstitutionName": "RUBIC",
  "InstitutionalDepartmentName": "Department",
  "MRAcquisitionType": "2D",
  "MagneticFieldStrength": 3,
  "Manufacturer": "Siemens",
  "ManufacturersModelName": "TrioTim",
  "Modality": "MR",
  "MultibandAccelerationFactor": 8,
  "PartialFourier": 0.875,
  "PatientPosition": "HFS",
  "PercentPhaseFOV": 100,
  "PercentSampling": 100,
  "PhaseEncodingDirection": "j-",
  "PhaseEncodingSteps": 91,
  "PhaseResolution": 1,
  "PixelBandwidth": 1923,
  "ProcedureStepDescription": "Cole^Michael",
  "ProtocolName": "cmrr_mbep2d_bold_2mm_MB8_Task_8x",
  "PulseSequenceDetails": "%CustomerSeq%\\cmrr_mbep2d_bold",
  "ReceiveCoilName": "32Ch_Head",
  "ReconMatrixPE": 104,
  "RepetitionTime": 0.785,
  "SAR": 0.125509,
  "ScanOptions": "PFP\\FS",
  "ScanningSequence": "EP",
  "SequenceName": "epfid2d1_104",
  "SequenceVariant": "SK\\SS",
  "SeriesDescription": "cmrr_mbep2d_bold_2mm_MB8_Task_8x",
  "SeriesNumber": 15,
  "ShimSetting": [2115, -323, -7280, 637, -301, -524, -59, 39],
  "SliceThickness": 2,
  "SliceTiming": [0, 0.4375, 0.0875, 0.525, 0.175, 0.6125, 0.2625, 0.7, 0.35, 0, 0.4375, 0.0875, 0.525, 0.175, 0.6125, 0.2625, 0.7, 0.35, 0, 0.4375, 0.0875, 0.525, 0.175, 0.6125, 0.2625, 0.7, 0.35, 0, 0.4375, 0.0875, 0.525, 0.175, 0.6125, 0.2625, 0.7, 0.35, 0, 0.4375, 0.0875, 0.525, 0.175, 0.6125, 0.2625, 0.7, 0.35, 0, 0.4375, 0.0875, 0.525, 0.175, 0.6125, 0.2625, 0.7, 0.35, 0, 0.4375, 0.0875, 0.525, 0.175, 0.6125, 0.2625, 0.7, 0.35, 0, 0.4375, 0.0875, 0.525, 0.175, 0.6125, 0.2625, 0.7, 0.35],
  "SoftwareVersions": "syngo MR B19",
  "SpacingBetweenSlices": 2,
  "StationName": "MRC35450",
  "TaskName": "cpro",
  "TotalReadoutTime": 0.0710717,
  "TxRefAmp": 356.725,
  "dcmmeta_affine": [
    [-2.0, 0.0, 0.0, 105.3559341430664],
    [0.0, 1.9780317544937134, -0.29561883211135864, -76.20597076416016],
    [0.0, 0.29561883211135864, 1.9780317544937134, -108.96739196777344],
    [0.0, 0.0, 0.0, 1.0]
],
  "dcmmeta_reorient_transform": [
    [0.0, -1.0, 0.0, 103.0],
    [1.0, 0.0, 0.0, 0.0],
    [0.0, 0.0, 1.0, 0.0],
    [0.0, 0.0, 0.0, 1.0]
],
  "dcmmeta_shape": [104, 104, 72, 581],
  "dcmmeta_slice_dim": 2,
  "dcmmeta_version": 0.6,
  "global": {
    "const": {
      "AcquisitionMatrix": [104, 0, 0, 104],
      "AngioFlag": "N",
      "BitsAllocated": 16,
      "BitsStored": 12,
      "Columns": 936,
      "EchoNumbers": 1,
      "EchoTime": 34.8,
      "EchoTrainLength": 1,
      "FlipAngle": 55.0,
      "HighBit": 11,
      "ImageOrientationPatient": [1.0, 0.0, 0.0, 0.0, 0.98901586285082, -0.1478094145494],
      "ImagePositionPatient": [-937.35593223572, -950.3924926479, 44.458781024595],
      "ImageType": [
        "ORIGINAL",
        "PRIMARY",
        "M",
        "MB",
        "ND",
        "MOSAIC"
],
      "ImagedNucleus": "1H",
      "ImagingFrequency": 123.234593,
      "InPlanePhaseEncodingDirection": "COL",
      "MRAcquisitionType": "2D",
      "MagneticFieldStrength": 3.0,
      "Manufacturer": "SIEMENS",
      "ManufacturerModelName": "TrioTim",
      "Modality": "MR",
      "NumberOfAverages": 1.0,
      "NumberOfPhaseEncodingSteps": 91,
      "PercentPhaseFieldOfView": 100.0,
      "PercentSampling": 100.0,
      "PerformedProcedureStepStartTime": "143249.500000",
      "PhotometricInterpretation": "MONOCHROME2",
      "PixelBandwidth": 1923.0,
      "PixelRepresentation": 0,
      "PixelSpacing": [2.0, 2.0],
      "ProtocolName": "cmrr_mbep2d_bold_2mm_MB8_Task_8x",
      "RepetitionTime": 785.0,
      "Rows": 936,
      "SAR": 0.12550929979743,
      "SamplesPerPixel": 1,
      "ScanOptions": [
        "PFP",
        "FS"
],
      "ScanningSequence": "EP",
      "SequenceName": "epfid2d1_104",
      "SequenceVariant": [
        "SK",
        "SS"
],
      "SeriesDescription": "cmrr_mbep2d_bold_2mm_MB8_Task_8x",
      "SeriesNumber": 15,
      "SeriesTime": "163859.875000",
      "SliceLocation": -96.506518254105,
      "SliceThickness": 2.0,
      "SmallestImagePixelValue": 0,
      "SoftwareVersions": "syngo MR B19",
      "SpacingBetweenSlices": 2.0000000220781,
      "SpecificCharacterSet": "ISO_IR 100",
      "StudyID": "1",
      "StudyTime": "143249.453000",
      "TransmitCoilName": "Body",
      "VariableFlipAngleFlag": "N",
      "WindowCenterWidthExplanation": "Algo1",
      "dBdt": 0.0},
    "slices": {}
  },
  "time": {
    "samples": {
      "AcquisitionNumber": [1, 2, 3, 4, 5, 6, 7, 8, 9, 10, 11, 12, 13, 14, 15, 16, 17, 18, 19, 20, 21, 22, 23, 24, 25, 26, 27, 28, 29, 30, 31, 32, 33, 34, 35, 36, 37, 38, 39, 40, 41, 42, 43, 44, 45, 46, 47, 48, 49, 50, 51, 52, 53, 54, 55, 56, 57, 58, 59, 60, 61, 62, 63, 64, 65, 66, 67, 68, 69, 70, 71, 72, 73, 74, 75, 76, 77, 78, 79, 80, 81, 82, 83, 84, 85, 86, 87, 88, 89, 90, 91, 92, 93, 94, 95, 96, 97, 98, 99, 100, 101, 102, 103, 104, 105, 106, 107, 108, 109, 110, 111, 112, 113, 114, 115, 116, 117, 118, 119, 120, 121, 122, 123, 124, 125, 126, 127, 128, 129, 130, 131, 132, 133, 134, 135, 136, 137, 138, 139, 140, 141, 142, 143, 144, 145, 146, 147, 148, 149, 150, 151, 152, 153, 154, 155, 156, 157, 158, 159, 160, 161, 162, 163, 164, 165, 166, 167, 168, 169, 170, 171, 172, 173, 174, 175, 176, 177, 178, 179, 180, 181, 182, 183, 184, 185, 186, 187, 188, 189, 190, 191, 192, 193, 194, 195, 196, 197, 198, 199, 200, 201, 202, 203, 204, 205, 206, 207, 208, 209, 210, 211, 212, 213, 214, 215, 216, 217, 218, 219, 220, 221, 222, 223, 224, 225, 226, 227, 228, 229, 230, 231, 232, 233, 234, 235, 236, 237, 238, 239, 240, 241, 242, 243, 244, 245, 246, 247, 248, 249, 250, 251, 252, 253, 254, 255, 256, 257, 258, 259, 260, 261, 262, 263, 264, 265, 266, 267, 268, 269, 270, 271, 272, 273, 274, 275, 276, 277, 278, 279, 280, 281, 282, 283, 284, 285, 286, 287, 288, 289, 290, 291, 292, 293, 294, 295, 296, 297, 298, 299, 300, 301, 302, 303, 304, 305, 306, 307, 308, 309, 310, 311, 312, 313, 314, 315, 316, 317, 318, 319, 320, 321, 322, 323, 324, 325, 326, 327, 328, 329, 330, 331, 332, 333, 334, 335, 336, 337, 338, 339, 340, 341, 342, 343, 344, 345, 346, 347, 348, 349, 350, 351, 352, 353, 354, 355, 356, 357, 358, 359, 360, 361, 362, 363, 364, 365, 366, 367, 368, 369, 370, 371, 372, 373, 374, 375, 376, 377, 378, 379, 380, 381, 382, 383, 384, 385, 386, 387, 388, 389, 390, 391, 392, 393, 394, 395, 396, 397, 398, 399, 400, 401, 402, 403, 404, 405, 406, 407, 408, 409, 410, 411, 412, 413, 414, 415, 416, 417, 418, 419, 420, 421, 422, 423, 424, 425, 426, 427, 428, 429, 430, 431, 432, 433, 434, 435, 436, 437, 438, 439, 440, 441, 442, 443, 444, 445, 446, 447, 448, 449, 450, 451, 452, 453, 454, 455, 456, 457, 458, 459, 460, 461, 462, 463, 464, 465, 466, 467, 468, 469, 470, 471, 472, 473, 474, 475, 476, 477, 478, 479, 480, 481, 482, 483, 484, 485, 486, 487, 488, 489, 490, 491, 492, 493, 494, 495, 496, 497, 498, 499, 500, 501, 502, 503, 504, 505, 506, 507, 508, 509, 510, 511, 512, 513, 514, 515, 516, 517, 518, 519, 520, 521, 522, 523, 524, 525, 526, 527, 528, 529, 530, 531, 532, 533, 534, 535, 536, 537, 538, 539, 540, 541, 542, 543, 544, 545, 546, 547, 548, 549, 550, 551, 552, 553, 554, 555, 556, 557, 558, 559, 560, 561, 562, 563, 564, 565, 566, 567, 568, 569, 570, 571, 572, 573, 574, 575, 576, 577, 578, 579, 580, 581],
      "AcquisitionTime": ["155608.825000", "155609.615000", "155610.402500", "155611.190000", "155611.977500", "155612.767500", "155613.555000", "155614.342500", "155615.130000", "155615.920000", "155616.707500", "155617.495000", "155618.282500", "155619.072500", "155619.860000", "155620.647500", "155621.437500", "155622.225000", "155623.012500", "155623.800000", "155624.590000", "155625.377500", "155626.165000", "155626.952500", "155627.742500", "155628.530000", "155629.317500", "155630.105000", "155630.895000", "155631.682500", "155632.470000", "155633.257500", "155634.047500", "155634.835000", "155635.622500", "155636.410000", "155637.200000", "155637.987500", "155638.775000", "155639.565000", "155640.352500", "155641.140000", "155641.927500", "155642.717500", "155643.505000", "155644.292500", "155645.080000", "155645.870000", "155646.657500", "155647.445000", "155648.232500", "155649.022500", "155649.810000", "155650.597500", "155651.385000", "155652.175000", "155652.962500", "155653.750000", "155654.537500", "155655.327500", "155656.115000", "155656.902500", "155657.692500", "155658.480000", "155659.267500", "155700.055000", "155700.845000", "155701.632500", "155702.420000", "155703.207500", "155703.997500", "155704.785000", "155705.572500", "155706.360000", "155707.150000", "155707.937500", "155708.725000", "155709.512500", "155710.302500", "155711.090000", "155711.877500", "155712.665000", "155713.455000", "155714.242500", "155715.030000", "155715.820000", "155716.607500", "155717.395000", "155718.182500", "155718.972500", "155719.760000", "155720.547500", "155721.335000", "155722.125000", "155722.912500", "155723.700000", "155724.487500", "155725.277500", "155726.065000", "155726.852500", "155727.640000", "155728.430000", "155729.217500", "155730.005000", "155730.792500", "155731.582500", "155732.370000", "155733.157500", "155733.947500", "155734.735000", "155735.522500", "155736.310000", "155737.100000", "155737.887500", "155738.675000", "155739.462500", "155740.252500", "155741.040000", "155741.827500", "155742.615000", "155743.405000", "155744.192500", "155744.980000", "155745.767500", "155746.557500", "155747.345000", "155748.132500", "155748.920000", "155749.710000", "155750.497500", "155751.285000", "155752.075000", "155752.862500", "155753.650000", "155754.437500", "155755.227500", "155756.015000", "155756.802500", "155757.590000", "155758.380000", "155759.167500", "155759.955000", "155800.742500", "155801.532500", "155802.320000", "155803.107500", "155803.895000", "155804.685000", "155805.472500", "155806.260000", "155807.047500", "155807.837500", "155808.625000", "155809.412500", "155810.202500", "155810.990000", "155811.777500", "155812.565000", "155813.355000", "155814.142500", "155814.930000", "155815.717500", "155816.507500", "155817.295000", "155818.082500", "155818.870000", "155819.660000", "155820.447500", "155821.235000", "155822.022500", "155822.812500", "155823.600000", "155824.387500", "155825.177500", "155825.965000", "155826.752500", "155827.540000", "155828.330000", "155829.117500", "155829.905000", "155830.692500", "155831.482500", "155832.270000", "155833.057500", "155833.845000", "155834.635000", "155835.422500", "155836.210000", "155836.997500", "155837.787500", "155838.575000", "155839.362500", "155840.150000", "155840.940000", "155841.727500", "155842.515000", "155843.305000", "155844.092500", "155844.880000", "155845.667500", "155846.457500", "155847.245000", "155848.032500", "155848.820000", "155849.610000", "155850.397500", "155851.185000", "155851.972500", "155852.762500", "155853.550000", "155854.337500", "155855.125000", "155855.915000", "155856.702500", "155857.490000", "155858.277500", "155859.067500", "155859.855000", "155900.642500", "155901.432500", "155902.220000", "155903.007500", "155903.795000", "155904.585000", "155905.372500", "155906.160000", "155906.947500", "155907.737500", "155908.525000", "155909.312500", "155910.100000", "155910.890000", "155911.677500", "155912.465000", "155913.252500", "155914.042500", "155914.830000", "155915.617500", "155916.405000", "155917.195000", "155917.982500", "155918.770000", "155919.560000", "155920.347500", "155921.135000", "155921.922500", "155922.712500", "155923.500000", "155924.287500", "155925.075000", "155925.865000", "155926.652500", "155927.440000", "155928.227500", "155929.017500", "155929.805000", "155930.592500", "155931.380000", "155932.170000", "155932.957500", "155933.745000", "155934.532500", "155935.322500", "155936.110000", "155936.897500", "155937.687500", "155938.475000", "155939.262500", "155940.050000", "155940.840000", "155941.627500", "155942.415000", "155943.202500", "155943.992500", "155944.780000", "155945.567500", "155946.355000", "155947.145000", "155947.932500", "155948.720000", "155949.507500", "155950.297500", "155951.085000", "155951.872500", "155952.660000", "155953.450000", "155954.237500", "155955.025000", "155955.815000", "155956.602500", "155957.390000", "155958.177500", "155958.967500", "155959.755000", "160000.542500", "160001.330000", "160002.120000", "160002.907500", "160003.695000", "160004.482500", "160005.272500", "160006.060000", "160006.847500", "160007.635000", "160008.425000", "160009.212500", "160010.000000", "160010.787500", "160011.577500", "160012.365000", "160013.152500", "160013.942500", "160014.730000", "160015.517500", "160016.305000", "160017.095000", "160017.882500", "160018.670000", "160019.457500", "160020.247500", "160021.035000", "160021.822500", "160022.610000", "160023.400000", "160024.187500", "160024.975000", "160025.762500", "160026.552500", "160027.340000", "160028.127500", "160028.915000", "160029.705000", "160030.492500", "160031.280000", "160032.070000", "160032.857500", "160033.645000", "160034.432500", "160035.222500", "160036.010000", "160036.797500", "160037.585000", "160038.375000", "160039.162500", "160039.950000", "160040.737500", "160041.527500", "160042.315000", "160043.102500", "160043.890000", "160044.680000", "160045.467500", "160046.255000", "160047.042500", "160047.832500", "160048.620000", "160049.407500", "160050.197500", "160050.985000", "160051.772500", "160052.560000", "160053.350000", "160054.137500", "160054.925000", "160055.712500", "160056.502500", "160057.290000", "160058.077500", "160058.865000", "160059.655000", "160100.442500", "160101.230000", "160102.017500", "160102.807500", "160103.595000", "160104.382500", "160105.170000", "160105.960000", "160106.747500", "160107.535000", "160108.325000", "160109.112500", "160109.900000", "160110.687500", "160111.477500", "160112.265000", "160113.052500", "160113.840000", "160114.630000", "160115.417500", "160116.205000", "160116.992500", "160117.782500", "160118.570000", "160119.357500", "160120.145000", "160120.935000", "160121.722500", "160122.510000", "160123.297500", "160124.087500", "160124.875000", "160125.662500", "160126.452500", "160127.240000", "160128.027500", "160128.815000", "160129.605000", "160130.392500", "160131.180000", "160131.967500", "160132.757500", "160133.545000", "160134.332500", "160135.120000", "160135.910000", "160136.697500", "160137.485000", "160138.272500", "160139.062500", "160139.850000", "160140.637500", "160141.427500", "160142.215000", "160143.002500", "160143.790000", "160144.580000", "160145.367500", "160146.155000", "160146.942500", "160147.732500", "160148.520000", "160149.307500", "160150.095000", "160150.885000", "160151.672500", "160152.460000", "160153.247500", "160154.037500", "160154.825000", "160155.612500", "160156.400000", "160157.190000", "160157.977500", "160158.765000", "160159.555000", "160200.342500", "160201.130000", "160201.917500", "160202.707500", "160203.495000", "160204.282500", "160205.070000", "160205.860000", "160206.647500", "160207.435000", "160208.222500", "160209.012500", "160209.800000", "160210.587500", "160211.375000", "160212.165000", "160212.952500", "160213.740000", "160214.527500", "160215.317500", "160216.105000", "160216.892500", "160217.682500", "160218.470000", "160219.257500", "160220.045000", "160220.835000", "160221.622500", "160222.410000", "160223.197500", "160223.987500", "160224.775000", "160225.562500", "160226.350000", "160227.140000", "160227.927500", "160228.715000", "160229.502500", "160230.292500", "160231.080000", "160231.867500", "160232.655000", "160233.445000", "160234.232500", "160235.020000", "160235.810000", "160236.597500", "160237.385000", "160238.172500", "160238.962500", "160239.750000", "160240.537500", "160241.325000", "160242.115000", "160242.902500", "160243.690000", "160244.477500", "160245.267500", "160246.055000", "160246.842500", "160247.630000", "160248.420000", "160249.207500", "160249.995000", "160250.782500", "160251.572500", "160252.360000", "160253.147500", "160253.937500", "160254.725000", "160255.512500", "160256.300000", "160257.090000", "160257.877500", "160258.665000", "160259.452500", "160300.242500", "160301.030000", "160301.817500", "160302.605000", "160303.395000", "160304.182500", "160304.970000", "160305.757500", "160306.547500", "160307.335000", "160308.122500", "160308.910000", "160309.700000", "160310.487500", "160311.275000", "160312.065000", "160312.852500", "160313.640000", "160314.427500", "160315.217500", "160316.005000", "160316.792500", "160317.580000", "160318.370000", "160319.157500", "160319.945000", "160320.732500", "160321.522500", "160322.310000", "160323.097500", "160323.885000", "160324.675000", "160325.462500", "160326.250000", "160327.037500", "160327.827500", "160328.615000", "160329.402500", "160330.192500", "160330.980000", "160331.767500", "160332.555000", "160333.345000", "160334.132500", "160334.920000", "160335.707500", "160336.497500", "160337.285000", "160338.072500", "160338.860000", "160339.650000", "160340.437500", "160341.225000", "160342.012500", "160342.802500", "160343.590000", "160344.377500", "160345.165000", "160345.955000"],
      "ContentTime": ["163859.875000", "163859.875000", "163859.890000", "163959.859000", "163959.859000", "163959.859000", "163959.859000", "163959.859000", "163959.859000", "163959.875000", "163959.875000", "163959.875000", "163959.875000", "163959.875000", "163959.875000", "163959.875000", "163959.890000", "163959.890000", "163959.890000", "163959.890000", "163959.890000", "163959.890000", "163959.890000", "163959.906000", "163959.906000", "163959.906000", "163959.906000", "163959.906000", "163959.906000", "163959.921000", "164059.859000", "164059.859000", "164059.859000", "164059.859000", "164059.859000", "164059.859000", "164059.875000", "164059.875000", "164059.875000", "164059.875000", "164059.875000", "164059.875000", "164059.875000", "164059.890000", "164059.890000", "164059.890000", "164059.890000", "164059.890000", "164059.890000", "164059.890000", "164059.906000", "164059.906000", "164059.906000", "164059.906000", "164059.906000", "164059.906000", "164059.921000", "164059.921000", "164159.859000", "164159.859000", "164159.859000", "164159.859000", "164159.859000", "164159.859000", "164159.875000", "164159.875000", "164159.875000", "164159.875000", "164159.875000", "164159.875000", "164159.875000", "164159.890000", "164159.890000", "164159.890000", "164159.890000", "164159.890000", "164159.890000", "164159.890000", "164159.906000", "164159.906000", "164159.906000", "164159.906000", "164159.906000", "164159.906000", "164159.906000", "164259.859000", "164259.859000", "164259.859000", "164259.859000", "164259.859000", "164259.875000", "164259.875000", "164259.875000", "164259.875000", "164259.875000", "164259.890000", "164259.890000", "164259.890000", "164259.890000", "164259.890000", "164259.906000", "164259.906000", "164259.906000", "164259.906000", "164259.906000", "164259.906000", "164259.906000", "164259.921000", "164259.921000", "164259.921000", "164259.921000", "164259.921000", "164359.859000", "164359.859000", "164359.859000", "164359.859000", "164359.859000", "164359.859000", "164359.875000", "164359.875000", "164359.875000", "164359.875000", "164359.875000", "164359.875000", "164359.875000", "164359.890000", "164359.890000", "164359.890000", "164359.890000", "164359.890000", "164359.890000", "164359.890000", "164359.906000", "164359.906000", "164359.906000", "164359.906000", "164359.906000", "164359.921000", "164359.921000", "164359.921000", "164459.859000", "164459.859000", "164459.859000", "164459.859000", "164459.859000", "164459.859000", "164459.875000", "164459.875000", "164459.875000", "164459.875000", "164459.875000", "164459.875000", "164459.875000", "164459.890000", "164459.890000", "164459.890000", "164459.890000", "164459.890000", "164459.890000", "164459.906000", "164459.906000", "164459.906000", "164459.906000", "164459.906000", "164459.921000", "164459.921000", "164459.921000", "164559.859000", "164559.859000", "164559.859000", "164559.859000", "164559.859000", "164559.859000", "164559.875000", "164559.875000", "164559.875000", "164559.875000", "164559.875000", "164559.875000", "164559.875000", "164559.890000", "164559.890000", "164559.890000", "164559.890000", "164559.890000", "164559.890000", "164559.906000", "164559.906000", "164559.906000", "164559.906000", "164559.906000", "164559.906000", "164559.906000", "164559.921000", "164559.921000", "164619.859000", "164619.859000", "164619.859000", "164619.859000", "164619.859000", "164619.859000", "164619.875000", "164619.875000", "164619.875000", "164719.859000", "164719.859000", "164719.859000", "164719.859000", "164719.859000", "164719.859000", "164719.875000", "164719.875000", "164719.875000", "164719.875000", "164719.875000", "164719.875000", "164719.875000", "164719.890000", "164719.890000", "164719.890000", "164719.890000", "164719.890000", "164719.906000", "164719.906000", "164719.906000", "164719.906000", "164719.906000", "164719.906000", "164719.906000", "164719.921000", "164719.921000", "164719.921000", "164819.859000", "164819.859000", "164819.859000", "164819.859000", "164819.859000", "164819.859000", "164819.875000", "164819.875000", "164819.875000", "164819.875000", "164819.875000", "164819.875000", "164819.875000", "164819.890000", "164819.890000", "164819.890000", "164819.890000", "164819.890000", "164819.890000", "164819.890000", "164819.906000", "164819.906000", "164819.906000", "164819.906000", "164819.906000", "164819.921000", "164819.921000", "164919.859000", "164919.859000", "164919.859000", "164919.859000", "164919.859000", "164919.859000", "164919.875000", "164919.875000", "164919.875000", "164919.875000", "164919.875000", "164919.875000", "164919.875000", "164919.890000", "164919.890000", "164919.890000", "164919.890000", "164919.890000", "164919.890000", "164919.890000", "164919.906000", "164919.906000", "164919.906000", "164919.906000", "164919.906000", "164919.906000", "164919.906000", "165019.859000", "165019.859000", "165019.859000", "165019.859000", "165019.859000", "165019.859000", "165019.875000", "165019.875000", "165019.875000", "165019.875000", "165019.890000", "165019.890000", "165019.890000", "165019.890000", "165019.890000", "165019.890000", "165019.890000", "165019.906000", "165019.906000", "165019.906000", "165019.906000", "165019.906000", "165019.906000", "165019.906000", "165019.921000", "165019.921000", "165019.921000", "165019.921000", "165119.859000", "165119.859000", "165119.859000", "165119.859000", "165119.859000", "165119.859000", "165119.875000", "165119.875000", "165119.875000", "165119.875000", "165119.875000", "165119.875000", "165119.875000", "165119.890000", "165119.890000", "165119.890000", "165119.890000", "165119.890000", "165119.890000", "165119.890000", "165119.906000", "165119.906000", "165119.906000", "165119.906000", "165119.906000", "165119.906000", "165119.906000", "165219.859000", "165219.859000", "165219.859000", "165219.859000", "165219.859000", "165219.859000", "165219.875000", "165219.875000", "165219.875000", "165219.875000", "165219.875000", "165219.875000", "165219.875000", "165219.890000", "165219.890000", "165219.890000", "165219.890000", "165219.890000", "165219.890000", "165219.890000", "165219.906000", "165219.906000", "165219.906000", "165219.906000", "165219.921000", "165219.921000", "165219.921000", "165219.921000", "165319.859000", "165319.859000", "165319.859000", "165319.859000", "165319.859000", "165319.859000", "165319.875000", "165319.875000", "165319.875000", "165319.875000", "165319.875000", "165319.875000", "165319.875000", "165319.890000", "165319.890000", "165319.890000", "165319.890000", "165319.890000", "165319.890000", "165319.890000", "165319.906000", "165319.906000", "165319.906000", "165319.906000", "165319.906000", "165319.906000", "165319.906000", "165419.859000", "165419.859000", "165419.859000", "165419.859000", "165419.859000", "165419.859000", "165419.875000", "165419.875000", "165419.875000", "165419.875000", "165419.875000", "165419.890000", "165419.890000", "165419.890000", "165419.890000", "165419.890000", "165419.906000", "165419.906000", "165419.906000", "165419.906000", "165419.906000", "165419.906000", "165419.906000", "165419.921000", "165419.921000", "165419.921000", "165419.921000", "165419.921000", "165519.859000", "165519.859000", "165519.859000", "165519.875000", "165519.875000", "165519.875000", "165519.875000", "165519.875000", "165519.875000", "165519.875000", "165519.890000", "165519.890000", "165519.890000", "165519.890000", "165519.890000", "165519.890000", "165519.906000", "165519.906000", "165519.906000", "165519.906000", "165519.906000", "165519.921000", "165519.921000", "165519.921000", "165519.921000", "165519.921000", "165519.921000", "165559.859000", "165559.859000", "165559.859000", "165559.875000", "165559.875000", "165559.875000", "165559.875000", "165559.875000", "165559.875000", "165559.875000", "165559.890000", "165559.890000", "165559.890000", "165559.890000", "165559.890000", "165559.890000", "165559.890000", "165559.906000", "165559.906000", "165659.859000", "165659.859000", "165659.859000", "165659.875000", "165659.875000", "165659.875000", "165659.875000", "165659.875000", "165659.875000", "165659.875000", "165659.890000", "165659.890000", "165659.890000", "165659.890000", "165659.890000", "165659.890000", "165659.890000", "165659.906000", "165659.906000", "165659.906000", "165659.906000", "165659.906000", "165659.906000", "165659.906000", "165659.921000", "165659.921000", "165659.921000", "165659.921000", "165759.859000", "165759.859000", "165759.859000", "165759.875000", "165759.875000", "165759.875000", "165759.875000", "165759.875000", "165759.875000", "165759.890000", "165759.890000", "165759.890000", "165759.890000", "165759.890000", "165759.890000", "165759.890000", "165759.906000", "165759.906000", "165759.906000", "165759.906000", "165759.906000", "165759.906000", "165759.906000", "165759.921000", "165759.921000", "165759.921000", "165759.921000", "165859.859000", "165859.859000", "165859.859000", "165859.875000", "165859.875000", "165859.875000", "165859.875000", "165859.875000", "165859.875000", "165859.875000", "165859.890000", "165859.890000", "165859.890000", "165859.890000", "165859.890000", "165859.890000", "165859.906000", "165859.906000", "165859.906000", "165859.906000", "165859.906000", "165859.906000", "165859.906000", "165859.921000", "165859.921000", "165859.921000", "165859.921000", "165859.921000", "165958.500000", "165958.500000", "165958.500000", "165958.515000", "165958.515000", "165958.515000", "165958.515000", "165958.515000", "165958.515000", "165958.515000", "165958.531000", "165958.531000", "165958.531000", "165958.531000", "165958.531000", "165958.531000", "165958.531000", "165958.546000", "165958.546000", "165958.546000", "165958.546000", "165958.546000", "165958.546000", "165958.546000", "165958.562000", "165958.562000", "165958.562000", "165958.562000"],
      "DataSetTrailingPadding": [
        "\u0000\u0000\u0000\u0000\u0000\u0000\u0000\u0000\u0000\u0000\u0000\u0000\u0000\u0000\u0000\u0000\u0000\u0000\u0000\u0000\u0000\u0000\u0000\u0000\u0000\u0000\u0000\u0000\u0000\u0000\u0000\u0000\u0000\u0000\u0000\u0000\u0000\u0000\u0000\u0000\u0000\u0000\u0000\u0000\u0000\u0000\u0000\u0000\u0000\u0000\u0000\u0000\u0000\u0000\u0000\u0000\u0000\u0000\u0000\u0000\u0000\u0000\u0000\u0000\u0000\u0000\u0000\u0000\u0000\u0000\u0000\u0000\u0000\u0000\u0000\u0000\u0000\u0000\u0000\u0000\u0000\u0000\u0000\u0000\u0000\u0000\u0000\u0000\u0000\u0000\u0000\u0000\u0000\u0000\u0000\u0000\u0000\u0000\u0000\u0000\u0000\u0000\u0000\u0000\u0000\u0000\u0000\u0000\u0000\u0000\u0000\u0000\u0000\u0000\u0000\u0000\u0000\u0000\u0000\u0000\u0000\u0000\u0000\u0000\u0000\u0000\u0000\u0000\u0000\u0000\u0000\u0000\u0000\u0000\u0000\u0000\u0000\u0000\u0000\u0000\u0000\u0000\u0000\u0000\u0000\u0000\u0000\u0000\u0000\u0000\u0000\u0000\u0000\u0000\u0000\u0000\u0000\u0000\u0000\u0000\u0000\u0000\u0000\u0000\u0000\u0000\u0000\u0000\u0000\u0000\u0000\u0000\u0000\u0000\u0000\u0000\u0000\u0000\u0000\u0000\u0000\u0000\u0000\u0000\u0000\u0000\u0000\u0000\u0000\u0000\u0000\u0000\u0000\u0000\u0000\u0000\u0000\u0000\u0000\u0000\u0000\u0000\u0000\u0000\u0000\u0000\u0000\u0000\u0000\u0000\u0000\u0000\u0000\u0000\u0000\u0000\u0000\u0000\u0000\u0000\u0000\u0000\u0000\u0000\u0000\u0000\u0000\u0000\u0000\u0000\u0000\u0000\u0000\u0000\u0000\u0000\u0000\u0000\u0000\u0000\u0000\u0000\u0000\u0000\u0000\u0000\u0000\u0000\u0000\u0000\u0000\u0000\u0000\u0000\u0000\u0000\u0000\u0000\u0000\u0000\u0000\u0000\u0000\u0000\u0000\u0000\u0000\u0000\u0000\u0000\u0000\u0000\u0000\u0000\u0000\u0000\u0000\u0000\u0000\u0000\u0000\u0000\u0000\u0000\u0000\u0000\u0000\u0000\u0000\u0000\u0000\u0000\u0000\u0000\u0000\u0000\u0000\u0000\u0000\u0000\u0000\u0000\u0000\u0000\u0000\u0000\u0000\u0000\u0000\u0000\u0000\u0000\u0000\u0000\u0000\u0000\u0000\u0000\u0000\u0000\u0000\u0000\u0000\u0000\u0000\u0000\u0000\u0000\u0000\u0000\u0000\u0000\u0000\u0000\u0000\u0000\u0000\u0000",
