{
  "AcquisitionMatrixPE": 104,
  "AcquisitionNumber": 1,
  "AcquisitionTime": "15:38:58.710000",
  "BandwidthPerPixelPhaseEncode": 13.935,
  "BaseResolution": 104,
  "CoilString": "C:HEA;HEP",
  "ConversionSoftware": "dcm2niix",
  "ConversionSoftwareVersion": "v1.0.20210317",
  "DerivedVendorReportedEchoSpacing": 0.000690017,
  "DeviceSerialNumber": "35450",
  "DwellTime": 2.5e-06,
  "EchoTime": 0.0348,
  "EffectiveEchoSpacing": 0.000690017,
  "FlipAngle": 55,
  "ImageComments": "Unaliased MB8/PE3 (remote)",
  "ImageOrientationPatientDICOM": [1, 6.84196e-05, -0.000955351, 1.68566e-08, 0.997444, 0.0714518],
  "ImageType": [
    "ORIGINAL",
    "PRIMARY",
    "M",
    "MB",
    "ND",
    "MOSAIC"
],
  "ImagingFrequency": 123.234,
  "InPlanePhaseEncodingDirectionDICOM": "COL",
  "InstitutionAddress": "Univeristy Ave. 197,Newark,North East,US,07102-1814",
  "InstitutionName": "RUBIC",
  "InstitutionalDepartmentName": "Department",
  "MRAcquisitionType": "2D",
  "MagneticFieldStrength": 3,
  "Manufacturer": "Siemens",
  "ManufacturersModelName": "TrioTim",
  "Modality": "MR",
  "MultibandAccelerationFactor": 8,
  "PartialFourier": 0.875,
  "PatientPosition": "HFS",
  "PercentPhaseFOV": 100,
  "PercentSampling": 100,
  "PhaseEncodingDirection": "j-",
  "PhaseEncodingSteps": 91,
  "PhaseResolution": 1,
  "PixelBandwidth": 1923,
  "ProcedureStepDescription": "Cole^Michael",
  "ProtocolName": "cmrr_mbep2d_bold_2mm_MB8_Task_8x",
  "PulseSequenceDetails": "%CustomerSeq%\\cmrr_mbep2d_bold",
  "ReceiveCoilName": "32Ch_Head",
  "ReconMatrixPE": 104,
  "RepetitionTime": 0.785,
  "SAR": 0.135941,
  "ScanOptions": "PFP\\FS",
  "ScanningSequence": "EP",
  "SequenceName": "epfid2d1_104",
  "SequenceVariant": "SK\\SS",
  "SeriesDescription": "cmrr_mbep2d_bold_2mm_MB8_Task_8x",
  "SeriesNumber": 27,
  "ShimSetting": [2146, -462, -7262, 656, 43, -217, 95, -110],
  "SliceThickness": 2,
  "SliceTiming": [0, 0.4375, 0.0875, 0.525, 0.175, 0.6125, 0.2625, 0.7, 0.35, 0, 0.4375, 0.0875, 0.525, 0.175, 0.6125, 0.2625, 0.7, 0.35, 0, 0.4375, 0.0875, 0.525, 0.175, 0.6125, 0.2625, 0.7, 0.35, 0, 0.4375, 0.0875, 0.525, 0.175, 0.6125, 0.2625, 0.7, 0.35, 0, 0.4375, 0.0875, 0.525, 0.175, 0.6125, 0.2625, 0.7, 0.35, 0, 0.4375, 0.0875, 0.525, 0.175, 0.6125, 0.2625, 0.7, 0.35, 0, 0.4375, 0.0875, 0.525, 0.175, 0.6125, 0.2625, 0.7, 0.35, 0, 0.4375, 0.0875, 0.525, 0.175, 0.6125, 0.2625, 0.7, 0.35],
  "SoftwareVersions": "syngo MR B19",
  "SpacingBetweenSlices": 2,
  "StationName": "MRC35450",
  "TaskName": "cpro",
  "TotalReadoutTime": 0.0710717,
  "TxRefAmp": 319.123,
  "dcmmeta_affine": [
    [-1.9999990463256836, 3.371319223788305e-08, -0.0019155960762873292, 103.4375228881836],
    [-0.00013683915312867612, 1.9948880672454834, 0.14290353655815125, -90.49109649658203],
    [-0.0019107023254036903, -0.14290359616279602, 1.9948872327804565, -76.42567443847656],
    [0.0, 0.0, 0.0, 1.0]
],
  "dcmmeta_reorient_transform": [
    [0.0, -1.0, 0.0, 103.0],
    [1.0, 0.0, 0.0, 0.0],
    [0.0, 0.0, 1.0, 0.0],
    [0.0, 0.0, 0.0, 1.0]
],
  "dcmmeta_shape": [104, 104, 72, 581],
  "dcmmeta_slice_dim": 2,
  "dcmmeta_version": 0.6,
  "global": {
    "const": {
      "AcquisitionMatrix": [104, 0, 0, 104],
      "AngioFlag": "N",
      "BitsAllocated": 16,
      "BitsStored": 12,
      "Columns": 936,
      "EchoNumbers": 1,
      "EchoTime": 34.8,
      "EchoTrainLength": 1,
      "FlipAngle": 55.0,
      "HighBit": 11,
      "ImageOrientationPatient": [0.99999954131135, 6.841958003e-05, -0.0009553511626, 1.6856596e-08, 0.99744405373379, 0.07145179963515],
      "ImagePositionPatient": [-935.43715761314, -944.91275530586, -149.79779375128],
      "ImageType": [
        "ORIGINAL",
        "PRIMARY",
        "M",
        "MB",
        "ND",
        "MOSAIC"
],
      "ImagedNucleus": "1H",
      "ImagingFrequency": 123.234447,
      "InPlanePhaseEncodingDirection": "COL",
      "MRAcquisitionType": "2D",
      "MagneticFieldStrength": 3.0,
      "Manufacturer": "SIEMENS",
      "ManufacturerModelName": "TrioTim",
      "Modality": "MR",
      "NumberOfAverages": 1.0,
      "NumberOfPhaseEncodingSteps": 91,
      "PercentPhaseFieldOfView": 100.0,
      "PercentSampling": 100.0,
      "PerformedProcedureStepStartTime": "135118.468000",
      "PhotometricInterpretation": "MONOCHROME2",
      "PixelBandwidth": 1923.0,
      "PixelRepresentation": 0,
      "PixelSpacing": [2.0, 2.0],
      "ProtocolName": "cmrr_mbep2d_bold_2mm_MB8_Task_8x",
      "RepetitionTime": 785.0,
      "Rows": 936,
      "SAR": 0.13594079322916,
      "SamplesPerPixel": 1,
      "ScanOptions": [
        "PFP",
        "FS"
],
      "ScanningSequence": "EP",
      "SequenceName": "epfid2d1_104",
      "SequenceVariant": [
        "SK",
        "SS"
],
      "SeriesDescription": "cmrr_mbep2d_bold_2mm_MB8_Task_8x",
      "SeriesNumber": 27,
      "SeriesTime": "153934.203000",
      "SliceLocation": -82.795124067893,
      "SliceThickness": 2.0,
      "SmallestImagePixelValue": 0,
      "SoftwareVersions": "syngo MR B19",
      "SpacingBetweenSlices": 1.9999999856299,
      "SpecificCharacterSet": "ISO_IR 100",
      "StudyID": "1",
      "StudyTime": "135118.390000",
      "TransmitCoilName": "Body",
      "VariableFlipAngleFlag": "N",
      "WindowCenterWidthExplanation": "Algo1",
      "dBdt": 0.0},
    "slices": {}
  },
  "time": {
    "samples": {
      "AcquisitionNumber": [1, 2, 3, 4, 5, 6, 7, 8, 9, 10, 11, 12, 13, 14, 15, 16, 17, 18, 19, 20, 21, 22, 23, 24, 25, 26, 27, 28, 29, 30, 31, 32, 33, 34, 35, 36, 37, 38, 39, 40, 41, 42, 43, 44, 45, 46, 47, 48, 49, 50, 51, 52, 53, 54, 55, 56, 57, 58, 59, 60, 61, 62, 63, 64, 65, 66, 67, 68, 69, 70, 71, 72, 73, 74, 75, 76, 77, 78, 79, 80, 81, 82, 83, 84, 85, 86, 87, 88, 89, 90, 91, 92, 93, 94, 95, 96, 97, 98, 99, 100, 101, 102, 103, 104, 105, 106, 107, 108, 109, 110, 111, 112, 113, 114, 115, 116, 117, 118, 119, 120, 121, 122, 123, 124, 125, 126, 127, 128, 129, 130, 131, 132, 133, 134, 135, 136, 137, 138, 139, 140, 141, 142, 143, 144, 145, 146, 147, 148, 149, 150, 151, 152, 153, 154, 155, 156, 157, 158, 159, 160, 161, 162, 163, 164, 165, 166, 167, 168, 169, 170, 171, 172, 173, 174, 175, 176, 177, 178, 179, 180, 181, 182, 183, 184, 185, 186, 187, 188, 189, 190, 191, 192, 193, 194, 195, 196, 197, 198, 199, 200, 201, 202, 203, 204, 205, 206, 207, 208, 209, 210, 211, 212, 213, 214, 215, 216, 217, 218, 219, 220, 221, 222, 223, 224, 225, 226, 227, 228, 229, 230, 231, 232, 233, 234, 235, 236, 237, 238, 239, 240, 241, 242, 243, 244, 245, 246, 247, 248, 249, 250, 251, 252, 253, 254, 255, 256, 257, 258, 259, 260, 261, 262, 263, 264, 265, 266, 267, 268, 269, 270, 271, 272, 273, 274, 275, 276, 277, 278, 279, 280, 281, 282, 283, 284, 285, 286, 287, 288, 289, 290, 291, 292, 293, 294, 295, 296, 297, 298, 299, 300, 301, 302, 303, 304, 305, 306, 307, 308, 309, 310, 311, 312, 313, 314, 315, 316, 317, 318, 319, 320, 321, 322, 323, 324, 325, 326, 327, 328, 329, 330, 331, 332, 333, 334, 335, 336, 337, 338, 339, 340, 341, 342, 343, 344, 345, 346, 347, 348, 349, 350, 351, 352, 353, 354, 355, 356, 357, 358, 359, 360, 361, 362, 363, 364, 365, 366, 367, 368, 369, 370, 371, 372, 373, 374, 375, 376, 377, 378, 379, 380, 381, 382, 383, 384, 385, 386, 387, 388, 389, 390, 391, 392, 393, 394, 395, 396, 397, 398, 399, 400, 401, 402, 403, 404, 405, 406, 407, 408, 409, 410, 411, 412, 413, 414, 415, 416, 417, 418, 419, 420, 421, 422, 423, 424, 425, 426, 427, 428, 429, 430, 431, 432, 433, 434, 435, 436, 437, 438, 439, 440, 441, 442, 443, 444, 445, 446, 447, 448, 449, 450, 451, 452, 453, 454, 455, 456, 457, 458, 459, 460, 461, 462, 463, 464, 465, 466, 467, 468, 469, 470, 471, 472, 473, 474, 475, 476, 477, 478, 479, 480, 481, 482, 483, 484, 485, 486, 487, 488, 489, 490, 491, 492, 493, 494, 495, 496, 497, 498, 499, 500, 501, 502, 503, 504, 505, 506, 507, 508, 509, 510, 511, 512, 513, 514, 515, 516, 517, 518, 519, 520, 521, 522, 523, 524, 525, 526, 527, 528, 529, 530, 531, 532, 533, 534, 535, 536, 537, 538, 539, 540, 541, 542, 543, 544, 545, 546, 547, 548, 549, 550, 551, 552, 553, 554, 555, 556, 557, 558, 559, 560, 561, 562, 563, 564, 565, 566, 567, 568, 569, 570, 571, 572, 573, 574, 575, 576, 577, 578, 579, 580, 581],
      "AcquisitionTime": ["153858.710000", "153859.497500", "153900.285000", "153901.072500", "153901.862500", "153902.650000", "153903.437500", "153904.227500", "153905.015000", "153905.802500", "153906.590000", "153907.380000", "153908.167500", "153908.955000", "153909.742500", "153910.532500", "153911.320000", "153912.107500", "153912.895000", "153913.685000", "153914.472500", "153915.260000", "153916.047500", "153916.837500", "153917.625000", "153918.412500", "153919.200000", "153919.990000", "153920.777500", "153921.565000", "153922.355000", "153923.142500", "153923.930000", "153924.717500", "153925.507500", "153926.295000", "153927.082500", "153927.870000", "153928.660000", "153929.447500", "153930.235000", "153931.022500", "153931.812500", "153932.600000", "153933.387500", "153934.175000", "153934.965000", "153935.752500", "153936.540000", "153937.327500", "153938.117500", "153938.905000", "153939.692500", "153940.482500", "153941.270000", "153942.057500", "153942.845000", "153943.635000", "153944.422500", "153945.210000", "153945.997500", "153946.787500", "153947.575000", "153948.362500", "153949.150000", "153949.940000", "153950.727500", "153951.515000", "153952.302500", "153953.092500", "153953.880000", "153954.667500", "153955.455000", "153956.245000", "153957.032500", "153957.820000", "153958.610000", "153959.397500", "154000.185000", "154000.972500", "154001.762500", "154002.550000", "154003.337500", "154004.125000", "154004.915000", "154005.702500", "154006.490000", "154007.277500", "154008.067500", "154008.855000", "154009.642500", "154010.430000", "154011.220000", "154012.007500", "154012.795000", "154013.585000", "154014.372500", "154015.160000", "154015.947500", "154016.737500", "154017.525000", "154018.312500", "154019.100000", "154019.890000", "154020.677500", "154021.465000", "154022.252500", "154023.042500", "154023.830000", "154024.617500", "154025.405000", "154026.195000", "154026.982500", "154027.770000", "154028.557500", "154029.347500", "154030.135000", "154030.922500", "154031.712500", "154032.500000", "154033.287500", "154034.075000", "154034.865000", "154035.652500", "154036.440000", "154037.227500", "154038.017500", "154038.805000", "154039.592500", "154040.380000", "154041.170000", "154041.957500", "154042.745000", "154043.532500", "154044.322500", "154045.110000", "154045.897500", "154046.685000", "154047.475000", "154048.262500", "154049.050000", "154049.840000", "154050.627500", "154051.415000", "154052.202500", "154052.992500", "154053.780000", "154054.567500", "154055.355000", "154056.145000", "154056.932500", "154057.720000", "154058.507500", "154059.297500", "154100.085000", "154100.872500", "154101.660000", "154102.450000", "154103.237500", "154104.025000", "154104.812500", "154105.602500", "154106.390000", "154107.177500", "154107.967500", "154108.755000", "154109.542500", "154110.330000", "154111.120000", "154111.907500", "154112.695000", "154113.482500", "154114.272500", "154115.060000", "154115.847500", "154116.635000", "154117.425000", "154118.212500", "154119.000000", "154119.787500", "154120.577500", "154121.365000", "154122.152500", "154122.940000", "154123.730000", "154124.517500", "154125.305000", "154126.095000", "154126.882500", "154127.670000", "154128.457500", "154129.247500", "154130.035000", "154130.822500", "154131.610000", "154132.400000", "154133.187500", "154133.975000", "154134.762500", "154135.552500", "154136.340000", "154137.127500", "154137.915000", "154138.705000", "154139.492500", "154140.280000", "154141.067500", "154141.857500", "154142.645000", "154143.432500", "154144.222500", "154145.010000", "154145.797500", "154146.585000", "154147.375000", "154148.162500", "154148.950000", "154149.737500", "154150.527500", "154151.315000", "154152.102500", "154152.890000", "154153.680000", "154154.467500", "154155.255000", "154156.042500", "154156.832500", "154157.620000", "154158.407500", "154159.195000", "154159.985000", "154200.772500", "154201.560000", "154202.350000", "154203.137500", "154203.925000", "154204.712500", "154205.502500", "154206.290000", "154207.077500", "154207.865000", "154208.655000", "154209.442500", "154210.230000", "154211.017500", "154211.807500", "154212.595000", "154213.382500", "154214.170000", "154214.960000", "154215.747500", "154216.535000", "154217.322500", "154218.112500", "154218.900000", "154219.687500", "154220.477500", "154221.265000", "154222.052500", "154222.840000", "154223.630000", "154224.417500", "154225.205000", "154225.992500", "154226.782500", "154227.570000", "154228.357500", "154229.145000", "154229.935000", "154230.722500", "154231.510000", "154232.297500", "154233.087500", "154233.875000", "154234.662500", "154235.450000", "154236.240000", "154237.027500", "154237.815000", "154238.605000", "154239.392500", "154240.180000", "154240.967500", "154241.757500", "154242.545000", "154243.332500", "154244.120000", "154244.910000", "154245.697500", "154246.485000", "154247.272500", "154248.062500", "154248.850000", "154249.637500", "154250.425000", "154251.215000", "154252.002500", "154252.790000", "154253.577500", "154254.367500", "154255.155000", "154255.942500", "154256.732500", "154257.520000", "154258.307500", "154259.095000", "154259.885000", "154300.672500", "154301.460000", "154302.247500", "154303.037500", "154303.825000", "154304.612500", "154305.400000", "154306.190000", "154306.977500", "154307.765000", "154308.552500", "154309.342500", "154310.130000", "154310.917500", "154311.705000", "154312.495000", "154313.282500", "154314.070000", "154314.860000", "154315.647500", "154316.435000", "154317.222500", "154318.012500", "154318.800000", "154319.587500", "154320.375000", "154321.165000", "154321.952500", "154322.740000", "154323.527500", "154324.317500", "154325.105000", "154325.892500", "154326.680000", "154327.470000", "154328.257500", "154329.045000", "154329.835000", "154330.622500", "154331.410000", "154332.197500", "154332.987500", "154333.775000", "154334.562500", "154335.350000", "154336.140000", "154336.927500", "154337.715000", "154338.502500", "154339.292500", "154340.080000", "154340.867500", "154341.655000", "154342.445000", "154343.232500", "154344.020000", "154344.807500", "154345.597500", "154346.385000", "154347.172500", "154347.962500", "154348.750000", "154349.537500", "154350.325000", "154351.115000", "154351.902500", "154352.690000", "154353.477500", "154354.267500", "154355.055000", "154355.842500", "154356.630000", "154357.420000", "154358.207500", "154358.995000", "154359.782500", "154400.572500", "154401.360000", "154402.147500", "154402.935000", "154403.725000", "154404.512500", "154405.300000", "154406.090000", "154406.877500", "154407.665000", "154408.452500", "154409.242500", "154410.030000", "154410.817500", "154411.605000", "154412.395000", "154413.182500", "154413.970000", "154414.757500", "154415.547500", "154416.335000", "154417.122500", "154417.910000", "154418.700000", "154419.487500", "154420.275000", "154421.062500", "154421.852500", "154422.640000", "154423.427500", "154424.217500", "154425.005000", "154425.792500", "154426.580000", "154427.370000", "154428.157500", "154428.945000", "154429.732500", "154430.522500", "154431.310000", "154432.097500", "154432.885000", "154433.675000", "154434.462500", "154435.250000", "154436.037500", "154436.827500", "154437.615000", "154438.402500", "154439.190000", "154439.980000", "154440.767500", "154441.555000", "154442.345000", "154443.132500", "154443.920000", "154444.707500", "154445.497500", "154446.285000", "154447.072500", "154447.860000", "154448.650000", "154449.437500", "154450.225000", "154451.012500", "154451.802500", "154452.590000", "154453.377500", "154454.165000", "154454.955000", "154455.742500", "154456.530000", "154457.317500", "154458.107500", "154458.895000", "154459.682500", "154500.472500", "154501.260000", "154502.047500", "154502.835000", "154503.625000", "154504.412500", "154505.200000", "154505.987500", "154506.777500", "154507.565000", "154508.352500", "154509.140000", "154509.930000", "154510.717500", "154511.505000", "154512.292500", "154513.082500", "154513.870000", "154514.657500", "154515.445000", "154516.235000", "154517.022500", "154517.810000", "154518.600000", "154519.387500", "154520.175000", "154520.962500", "154521.752500", "154522.540000", "154523.327500", "154524.115000", "154524.905000", "154525.692500", "154526.480000", "154527.267500", "154528.057500", "154528.845000", "154529.632500", "154530.420000", "154531.210000", "154531.997500", "154532.785000", "154533.572500", "154534.362500", "154535.150000", "154535.937500", "154536.727500", "154537.515000", "154538.302500", "154539.090000", "154539.880000", "154540.667500", "154541.455000", "154542.242500", "154543.032500", "154543.820000", "154544.607500", "154545.395000", "154546.185000", "154546.972500", "154547.760000", "154548.547500", "154549.337500", "154550.125000", "154550.912500", "154551.700000", "154552.490000", "154553.277500", "154554.065000", "154554.855000", "154555.642500", "154556.430000", "154557.217500", "154558.007500", "154558.795000", "154559.582500", "154600.370000", "154601.160000", "154601.947500", "154602.735000", "154603.522500", "154604.312500", "154605.100000", "154605.887500", "154606.675000", "154607.465000", "154608.252500", "154609.040000", "154609.827500", "154610.617500", "154611.405000", "154612.192500", "154612.982500", "154613.770000", "154614.557500", "154615.345000", "154616.135000", "154616.922500", "154617.710000", "154618.497500", "154619.287500", "154620.075000", "154620.862500", "154621.650000", "154622.440000", "154623.227500", "154624.015000", "154624.802500", "154625.592500", "154626.380000", "154627.167500", "154627.955000", "154628.745000", "154629.532500", "154630.320000", "154631.110000", "154631.897500", "154632.685000", "154633.472500", "154634.262500", "154635.050000", "154635.837500"],
      "ContentTime": ["153934.203000", "153934.203000", "153934.203000", "153934.218000", "153934.218000", "153934.218000", "153934.218000", "153934.218000", "153934.218000", "153934.234000", "153934.234000", "153934.234000", "153934.234000", "153934.234000", "153934.234000", "153934.234000", "153934.250000", "153934.250000", "153934.250000", "153934.250000", "153934.250000", "153934.250000", "153934.250000", "153934.265000", "153934.265000", "153934.265000", "153934.265000", "153934.265000", "153934.265000", "153934.281000", "153934.281000", "153934.281000", "153934.281000", "153934.281000", "153934.281000", "153934.296000", "153934.296000", "153934.296000", "153934.296000", "153934.312000", "153934.312000", "153934.312000", "153954.171000", "153954.171000", "153954.187000", "153954.187000", "153954.187000", "153954.187000", "153954.187000", "153954.187000", "153954.187000", "153954.203000", "153954.203000", "153954.203000", "153954.203000", "153954.203000", "153954.203000", "153954.203000", "153954.218000", "153954.218000", "153954.218000", "153954.218000", "153954.218000", "153954.218000", "153954.234000", "153954.234000", "153954.234000", "154014.171000", "154014.171000", "154014.187000", "154014.187000", "154014.187000", "154014.187000", "154014.187000", "154014.187000", "154014.187000", "154014.203000", "154014.203000", "154014.203000", "154014.203000", "154014.203000", "154014.203000", "154014.203000", "154014.218000", "154014.218000", "154014.218000", "154014.218000", "154014.234000", "154014.234000", "154014.234000", "154014.234000", "154014.234000", "154014.234000", "154034.171000", "154034.171000", "154034.187000", "154034.187000", "154034.187000", "154034.187000", "154034.187000", "154034.187000", "154034.187000", "154034.203000", "154034.203000", "154034.203000", "154034.203000", "154034.203000", "154034.218000", "154034.218000", "154034.218000", "154034.218000", "154034.218000", "154034.218000", "154034.218000", "154034.234000", "154034.234000", "154034.234000", "154034.234000", "154054.171000", "154054.171000", "154054.187000", "154054.187000", "154054.187000", "154054.187000", "154054.187000", "154054.187000", "154054.187000", "154054.203000", "154054.203000", "154054.203000", "154054.203000", "154054.203000", "154054.203000", "154054.203000", "154054.218000", "154054.218000", "154054.218000", "154054.218000", "154054.218000", "154054.234000", "154054.234000", "154054.234000", "154054.234000", "154054.234000", "154114.171000", "154114.171000", "154114.187000", "154114.187000", "154114.187000", "154114.187000", "154114.187000", "154114.187000", "154114.187000", "154114.203000", "154114.203000", "154114.203000", "154114.203000", "154114.203000", "154114.203000", "154114.203000", "154114.218000", "154114.218000", "154114.218000", "154114.218000", "154114.218000", "154114.218000", "154114.218000", "154114.234000", "154114.234000", "154134.171000", "154134.171000", "154134.187000", "154134.187000", "154134.187000", "154134.187000", "154134.187000", "154134.203000", "154134.203000", "154134.203000", "154134.203000", "154134.203000", "154134.218000", "154134.218000", "154134.218000", "154134.218000", "154134.218000", "154134.218000", "154134.234000", "154134.234000", "154134.234000", "154134.234000", "154134.234000", "154134.234000", "154134.234000", "154134.250000", "154154.171000", "154154.171000", "154154.187000", "154154.187000", "154154.187000", "154154.187000", "154154.187000", "154154.187000", "154154.203000", "154154.203000", "154154.203000", "154154.203000", "154154.203000", "154154.203000", "154154.203000", "154154.218000", "154154.218000", "154154.218000", "154154.218000", "154154.218000", "154154.234000", "154154.234000", "154154.234000", "154154.234000", "154154.234000", "154214.171000", "154214.171000", "154214.187000", "154214.187000", "154214.187000", "154214.187000", "154214.187000", "154214.187000", "154214.203000", "154214.203000", "154214.203000", "154214.203000", "154214.203000", "154214.203000", "154214.203000", "154214.218000", "154214.218000", "154214.218000", "154214.218000", "154214.218000", "154214.218000", "154214.218000", "154214.234000", "154214.234000", "154214.234000", "154214.234000", "154234.171000", "154234.171000", "154234.187000", "154234.187000", "154234.187000", "154234.187000", "154234.187000", "154234.187000", "154234.187000", "154234.203000", "154234.203000", "154234.203000", "154234.203000", "154234.203000", "154234.203000", "154234.203000", "154234.218000", "154234.218000", "154234.218000", "154234.218000", "154234.218000", "154234.218000", "154234.218000", "154234.234000", "154234.234000", "154254.171000", "154254.171000", "154254.187000", "154254.187000", "154254.187000", "154254.187000", "154254.187000", "154254.187000", "154254.187000", "154254.203000", "154254.203000", "154254.203000", "154254.203000", "154254.203000", "154254.203000", "154254.203000", "154254.218000", "154254.218000", "154254.218000", "154254.218000", "154254.218000", "154254.218000", "154254.218000", "154254.234000", "154254.234000", "154314.171000", "154314.171000", "154314.187000", "154314.187000", "154314.187000", "154314.187000", "154314.187000", "154314.187000", "154314.187000", "154314.203000", "154314.203000", "154314.203000", "154314.203000", "154314.203000", "154314.203000", "154314.203000", "154314.218000", "154314.218000", "154314.218000", "154314.218000", "154314.218000", "154314.218000", "154314.218000", "154314.234000", "154314.234000", "154314.234000", "154334.171000", "154334.171000", "154334.187000", "154334.187000", "154334.187000", "154334.187000", "154334.187000", "154334.187000", "154334.187000", "154334.203000", "154334.203000", "154334.203000", "154334.203000", "154334.203000", "154334.203000", "154334.203000", "154334.218000", "154334.218000", "154334.218000", "154334.218000", "154334.218000", "154334.218000", "154334.218000", "154334.234000", "154334.234000", "154334.234000", "154354.171000", "154354.171000", "154354.187000", "154354.187000", "154354.187000", "154354.187000", "154354.187000", "154354.187000", "154354.187000", "154354.203000", "154354.203000", "154354.203000", "154354.203000", "154354.203000", "154354.203000", "154354.203000", "154354.218000", "154354.218000", "154354.218000", "154354.218000", "154354.218000", "154354.218000", "154354.218000", "154354.234000", "154354.234000", "154414.171000", "154414.171000", "154414.187000", "154414.187000", "154414.187000", "154414.187000", "154414.187000", "154414.187000", "154414.187000", "154414.203000", "154414.203000", "154414.203000", "154414.203000", "154414.203000", "154414.203000", "154414.203000", "154414.218000", "154414.218000", "154414.218000", "154414.218000", "154414.218000", "154414.218000", "154414.218000", "154414.234000", "154414.234000", "154414.234000", "154434.171000", "154434.171000", "154434.187000", "154434.187000", "154434.187000", "154434.187000", "154434.187000", "154434.187000", "154434.187000", "154434.203000", "154434.203000", "154434.203000", "154434.203000", "154434.203000", "154434.203000", "154434.218000", "154434.218000", "154434.218000", "154434.218000", "154434.218000", "154434.218000", "154434.218000", "154434.234000", "154434.234000", "154434.234000", "154454.171000", "154454.171000", "154454.187000", "154454.187000", "154454.187000", "154454.187000", "154454.187000", "154454.187000", "154454.187000", "154454.203000", "154454.203000", "154454.203000", "154454.203000", "154454.203000", "154454.203000", "154454.218000", "154454.218000", "154454.218000", "154454.218000", "154454.218000", "154454.218000", "154454.218000", "154454.234000", "154454.234000", "154454.234000", "154454.234000", "154514.171000", "154514.171000", "154514.187000", "154514.187000", "154514.187000", "154514.187000", "154514.187000", "154514.187000", "154514.187000", "154514.203000", "154514.203000", "154514.203000", "154514.203000", "154514.203000", "154514.203000", "154514.203000", "154514.218000", "154514.218000", "154514.218000", "154514.218000", "154514.218000", "154514.218000", "154514.234000", "154514.234000", "154514.234000", "154534.171000", "154534.171000", "154534.187000", "154534.187000", "154534.187000", "154534.187000", "154534.187000", "154534.187000", "154534.187000", "154534.203000", "154534.203000", "154534.203000", "154534.203000", "154534.203000", "154534.218000", "154534.218000", "154534.218000", "154534.218000", "154534.218000", "154534.218000", "154534.234000", "154534.234000", "154534.234000", "154534.234000", "154534.234000", "154534.234000", "154554.171000", "154554.171000", "154554.187000", "154554.187000", "154554.187000", "154554.187000", "154554.187000", "154554.187000", "154554.187000", "154554.203000", "154554.203000", "154554.203000", "154554.203000", "154554.203000", "154554.203000", "154554.203000", "154554.218000", "154554.218000", "154554.218000", "154554.218000", "154554.218000", "154554.234000", "154554.234000", "154554.234000", "154554.234000", "154614.171000", "154614.171000", "154614.187000", "154614.187000", "154614.187000", "154614.187000", "154614.187000", "154614.187000", "154614.187000", "154614.203000", "154614.203000", "154614.203000", "154614.203000", "154614.218000", "154614.218000", "154614.218000", "154614.218000", "154614.218000", "154614.218000", "154614.234000", "154614.234000", "154614.234000", "154614.234000", "154614.234000", "154614.234000", "154634.171000", "154634.171000", "154634.187000", "154634.187000", "154634.187000", "154634.187000", "154634.187000", "154634.187000", "154634.187000", "154634.203000", "154634.203000", "154634.203000", "154634.203000", "154634.203000", "154634.203000", "154634.203000", "154634.218000", "154634.218000", "154634.218000", "154634.218000", "154634.218000", "154634.218000", "154634.234000", "154634.234000", "154634.234000", "154634.234000", "154637.015000", "154637.031000", "154637.031000", "154637.031000"],
