{
  "AcquisitionMatrixPE": 104,
  "AcquisitionNumber": 1,
  "AcquisitionTime": "15:31:42.677500",
  "BandwidthPerPixelPhaseEncode": 13.935,
  "BaseResolution": 104,
  "CoilString": "C:HEA;HEP",
  "ConversionSoftware": "dcm2niix",
  "ConversionSoftwareVersion": "v1.0.20210317",
  "DerivedVendorReportedEchoSpacing": 0.000690017,
  "DeviceSerialNumber": "35450",
  "DwellTime": 2.5e-06,
  "EchoTime": 0.0348,
  "EffectiveEchoSpacing": 0.000690017,
  "FlipAngle": 55,
  "ImageComments": "Unaliased MB8/PE3 (remote)",
  "ImageOrientationPatientDICOM": [1, 0, 0, 0, 0.971134, -0.238533],
  "ImageType": [
    "ORIGINAL",
    "PRIMARY",
    "M",
    "MB",
    "ND",
    "MOSAIC"
],
  "ImagingFrequency": 123.235,
  "InPlanePhaseEncodingDirectionDICOM": "COL",
  "InstitutionAddress": "Univeristy Ave. 197,Newark,North East,US,07102-1814",
  "InstitutionName": "RUBIC",
  "InstitutionalDepartmentName": "Department",
  "MRAcquisitionType": "2D",
  "MagneticFieldStrength": 3,
  "Manufacturer": "Siemens",
  "ManufacturersModelName": "TrioTim",
  "Modality": "MR",
  "MultibandAccelerationFactor": 8,
  "PartialFourier": 0.875,
  "PatientPosition": "HFS",
  "PercentPhaseFOV": 100,
  "PercentSampling": 100,
  "PhaseEncodingDirection": "j-",
  "PhaseEncodingSteps": 91,
  "PhaseResolution": 1,
  "PixelBandwidth": 1923,
  "ProcedureStepDescription": "Cole^Michael",
  "ProtocolName": "cmrr_mbep2d_bold_2mm_MB8_Task_8x",
  "PulseSequenceDetails": "%CustomerSeq%\\cmrr_mbep2d_bold",
  "ReceiveCoilName": "32Ch_Head",
  "ReconMatrixPE": 104,
  "RepetitionTime": 0.785,
  "SAR": 0.115469,
  "ScanOptions": "PFP\\FS",
  "ScanningSequence": "EP",
  "SequenceName": "epfid2d1_104",
  "SequenceVariant": "SK\\SS",
  "SeriesDescription": "cmrr_mbep2d_bold_2mm_MB8_Task_8x",
  "SeriesNumber": 25,
  "ShimSetting": [2114, -345, -7470, 385, -7, -101, -89, -45],
  "SliceThickness": 2,
  "SliceTiming": [0, 0.4375, 0.0875, 0.525, 0.175, 0.6125, 0.2625, 0.7, 0.35, 0, 0.4375, 0.0875, 0.525, 0.175, 0.6125, 0.2625, 0.7, 0.35, 0, 0.4375, 0.0875, 0.525, 0.175, 0.6125, 0.2625, 0.7, 0.35, 0, 0.4375, 0.0875, 0.525, 0.175, 0.6125, 0.2625, 0.7, 0.35, 0, 0.4375, 0.0875, 0.525, 0.175, 0.6125, 0.2625, 0.7, 0.35, 0, 0.4375, 0.0875, 0.525, 0.175, 0.6125, 0.2625, 0.7, 0.35, 0, 0.4375, 0.0875, 0.525, 0.175, 0.6125, 0.2625, 0.7, 0.35, 0, 0.4375, 0.0875, 0.525, 0.175, 0.6125, 0.2625, 0.7, 0.35],
  "SoftwareVersions": "syngo MR B19",
  "SpacingBetweenSlices": 2,
  "StationName": "MRC35450",
  "TaskName": "cpro",
  "TotalReadoutTime": 0.0710717,
  "TxRefAmp": 321.221,
  "dcmmeta_affine": [
    [-2.0, 0.0, 0.0, 106.03389739990234],
    [0.0, 1.9422686100006104, -0.47706693410873413, -71.96723937988281],
    [0.0, 0.47706693410873413, 1.9422684907913208, -114.36250305175781],
    [0.0, 0.0, 0.0, 1.0]
],
  "dcmmeta_reorient_transform": [
    [0.0, -1.0, 0.0, 103.0],
    [1.0, 0.0, 0.0, 0.0],
    [0.0, 0.0, 1.0, 0.0],
    [0.0, 0.0, 0.0, 1.0]
],
  "dcmmeta_shape": [104, 104, 72, 581],
  "dcmmeta_slice_dim": 2,
  "dcmmeta_version": 0.6,
  "global": {
    "const": {
      "AcquisitionMatrix": [104, 0, 0, 104],
      "AngioFlag": "N",
      "BitsAllocated": 16,
      "BitsStored": 12,
      "Columns": 936,
      "EchoNumbers": 1,
      "EchoTime": 34.8,
      "EchoTrainLength": 1,
      "FlipAngle": 55.0,
      "HighBit": 11,
      "ImageOrientationPatient": [1.0, 0.0, 0.0, 0.0, 0.97113427618897, -0.2385334727264],
      "ImagePositionPatient": [-938.03389835358, -936.07014152777, 133.23524123852],
      "ImageType": [
        "ORIGINAL",
        "PRIMARY",
        "M",
        "MB",
        "ND",
        "MOSAIC"
],
      "ImagedNucleus": "1H",
      "ImagingFrequency": 123.234589,
      "InPlanePhaseEncodingDirection": "COL",
      "MRAcquisitionType": "2D",
      "MagneticFieldStrength": 3.0,
      "Manufacturer": "SIEMENS",
      "ManufacturerModelName": "TrioTim",
      "Modality": "MR",
      "NumberOfAverages": 1.0,
      "NumberOfPhaseEncodingSteps": 91,
      "PercentPhaseFieldOfView": 100.0,
      "PercentSampling": 100.0,
      "PerformedProcedureStepStartTime": "133156.031000",
      "PhotometricInterpretation": "MONOCHROME2",
      "PixelBandwidth": 1923.0,
      "PixelRepresentation": 0,
      "PixelSpacing": [2.0, 2.0],
      "ProtocolName": "cmrr_mbep2d_bold_2mm_MB8_Task_8x",
      "RepetitionTime": 785.0,
      "Rows": 936,
      "SAR": 0.11546922682158,
      "SamplesPerPixel": 1,
      "ScanOptions": [
        "PFP",
        "FS"
],
      "ScanningSequence": "EP",
      "SequenceName": "epfid2d1_104",
      "SequenceVariant": [
        "SK",
        "SS"
],
      "SeriesDescription": "cmrr_mbep2d_bold_2mm_MB8_Task_8x",
      "SeriesNumber": 25,
      "SeriesTime": "153215.234000",
      "SliceLocation": -93.894752011087,
      "SliceThickness": 2.0,
      "SmallestImagePixelValue": 0,
      "SoftwareVersions": "syngo MR B19",
      "SpacingBetweenSlices": 1.9999999764464,
      "SpecificCharacterSet": "ISO_IR 100",
      "StudyID": "1",
      "StudyTime": "133155.984000",
      "TransmitCoilName": "Body",
      "VariableFlipAngleFlag": "N",
      "WindowCenterWidthExplanation": "Algo1",
      "dBdt": 0.0},
    "slices": {}
  },
  "time": {
    "samples": {
      "AcquisitionNumber": [1, 2, 3, 4, 5, 6, 7, 8, 9, 10, 11, 12, 13, 14, 15, 16, 17, 18, 19, 20, 21, 22, 23, 24, 25, 26, 27, 28, 29, 30, 31, 32, 33, 34, 35, 36, 37, 38, 39, 40, 41, 42, 43, 44, 45, 46, 47, 48, 49, 50, 51, 52, 53, 54, 55, 56, 57, 58, 59, 60, 61, 62, 63, 64, 65, 66, 67, 68, 69, 70, 71, 72, 73, 74, 75, 76, 77, 78, 79, 80, 81, 82, 83, 84, 85, 86, 87, 88, 89, 90, 91, 92, 93, 94, 95, 96, 97, 98, 99, 100, 101, 102, 103, 104, 105, 106, 107, 108, 109, 110, 111, 112, 113, 114, 115, 116, 117, 118, 119, 120, 121, 122, 123, 124, 125, 126, 127, 128, 129, 130, 131, 132, 133, 134, 135, 136, 137, 138, 139, 140, 141, 142, 143, 144, 145, 146, 147, 148, 149, 150, 151, 152, 153, 154, 155, 156, 157, 158, 159, 160, 161, 162, 163, 164, 165, 166, 167, 168, 169, 170, 171, 172, 173, 174, 175, 176, 177, 178, 179, 180, 181, 182, 183, 184, 185, 186, 187, 188, 189, 190, 191, 192, 193, 194, 195, 196, 197, 198, 199, 200, 201, 202, 203, 204, 205, 206, 207, 208, 209, 210, 211, 212, 213, 214, 215, 216, 217, 218, 219, 220, 221, 222, 223, 224, 225, 226, 227, 228, 229, 230, 231, 232, 233, 234, 235, 236, 237, 238, 239, 240, 241, 242, 243, 244, 245, 246, 247, 248, 249, 250, 251, 252, 253, 254, 255, 256, 257, 258, 259, 260, 261, 262, 263, 264, 265, 266, 267, 268, 269, 270, 271, 272, 273, 274, 275, 276, 277, 278, 279, 280, 281, 282, 283, 284, 285, 286, 287, 288, 289, 290, 291, 292, 293, 294, 295, 296, 297, 298, 299, 300, 301, 302, 303, 304, 305, 306, 307, 308, 309, 310, 311, 312, 313, 314, 315, 316, 317, 318, 319, 320, 321, 322, 323, 324, 325, 326, 327, 328, 329, 330, 331, 332, 333, 334, 335, 336, 337, 338, 339, 340, 341, 342, 343, 344, 345, 346, 347, 348, 349, 350, 351, 352, 353, 354, 355, 356, 357, 358, 359, 360, 361, 362, 363, 364, 365, 366, 367, 368, 369, 370, 371, 372, 373, 374, 375, 376, 377, 378, 379, 380, 381, 382, 383, 384, 385, 386, 387, 388, 389, 390, 391, 392, 393, 394, 395, 396, 397, 398, 399, 400, 401, 402, 403, 404, 405, 406, 407, 408, 409, 410, 411, 412, 413, 414, 415, 416, 417, 418, 419, 420, 421, 422, 423, 424, 425, 426, 427, 428, 429, 430, 431, 432, 433, 434, 435, 436, 437, 438, 439, 440, 441, 442, 443, 444, 445, 446, 447, 448, 449, 450, 451, 452, 453, 454, 455, 456, 457, 458, 459, 460, 461, 462, 463, 464, 465, 466, 467, 468, 469, 470, 471, 472, 473, 474, 475, 476, 477, 478, 479, 480, 481, 482, 483, 484, 485, 486, 487, 488, 489, 490, 491, 492, 493, 494, 495, 496, 497, 498, 499, 500, 501, 502, 503, 504, 505, 506, 507, 508, 509, 510, 511, 512, 513, 514, 515, 516, 517, 518, 519, 520, 521, 522, 523, 524, 525, 526, 527, 528, 529, 530, 531, 532, 533, 534, 535, 536, 537, 538, 539, 540, 541, 542, 543, 544, 545, 546, 547, 548, 549, 550, 551, 552, 553, 554, 555, 556, 557, 558, 559, 560, 561, 562, 563, 564, 565, 566, 567, 568, 569, 570, 571, 572, 573, 574, 575, 576, 577, 578, 579, 580, 581],
      "AcquisitionTime": ["153142.677500", "153143.465000", "153144.252500", "153145.042500", "153145.830000", "153146.617500", "153147.405000", "153148.195000", "153148.982500", "153149.770000", "153150.557500", "153151.347500", "153152.135000", "153152.922500", "153153.710000", "153154.500000", "153155.287500", "153156.075000", "153156.862500", "153157.652500", "153158.440000", "153159.227500", "153200.015000", "153200.805000", "153201.592500", "153202.380000", "153203.170000", "153203.957500", "153204.745000", "153205.532500", "153206.322500", "153207.110000", "153207.897500", "153208.685000", "153209.475000", "153210.262500", "153211.050000", "153211.837500", "153212.627500", "153213.415000", "153214.202500", "153214.990000", "153215.780000", "153216.567500", "153217.355000", "153218.142500", "153218.932500", "153219.720000", "153220.507500", "153221.297500", "153222.085000", "153222.872500", "153223.660000", "153224.450000", "153225.237500", "153226.025000", "153226.812500", "153227.602500", "153228.390000", "153229.177500", "153229.965000", "153230.755000", "153231.542500", "153232.330000", "153233.117500", "153233.907500", "153234.695000", "153235.482500", "153236.270000", "153237.060000", "153237.847500", "153238.635000", "153239.425000", "153240.212500", "153241.000000", "153241.787500", "153242.577500", "153243.365000", "153244.152500", "153244.940000", "153245.730000", "153246.517500", "153247.305000", "153248.092500", "153248.882500", "153249.670000", "153250.457500", "153251.245000", "153252.035000", "153252.822500", "153253.610000", "153254.397500", "153255.187500", "153255.975000", "153256.762500", "153257.552500", "153258.340000", "153259.127500", "153259.915000", "153300.705000", "153301.492500", "153302.280000", "153303.067500", "153303.857500", "153304.645000", "153305.432500", "153306.220000", "153307.010000", "153307.797500", "153308.585000", "153309.372500", "153310.162500", "153310.950000", "153311.737500", "153312.525000", "153313.315000", "153314.102500", "153314.890000", "153315.680000", "153316.467500", "153317.255000", "153318.042500", "153318.832500", "153319.620000", "153320.407500", "153321.195000", "153321.985000", "153322.772500", "153323.560000", "153324.347500", "153325.137500", "153325.925000", "153326.712500", "153327.500000", "153328.290000", "153329.077500", "153329.865000", "153330.655000", "153331.442500", "153332.230000", "153333.017500", "153333.807500", "153334.595000", "153335.382500", "153336.170000", "153336.960000", "153337.747500", "153338.535000", "153339.322500", "153340.112500", "153340.900000", "153341.687500", "153342.475000", "153343.265000", "153344.052500", "153344.840000", "153345.627500", "153346.417500", "153347.205000", "153347.992500", "153348.782500", "153349.570000", "153350.357500", "153351.145000", "153351.935000", "153352.722500", "153353.510000", "153354.297500", "153355.087500", "153355.875000", "153356.662500", "153357.450000", "153358.240000", "153359.027500", "153359.815000", "153400.602500", "153401.392500", "153402.180000", "153402.967500", "153403.755000", "153404.545000", "153405.332500", "153406.120000", "153406.910000", "153407.697500", "153408.485000", "153409.272500", "153410.062500", "153410.850000", "153411.637500", "153412.425000", "153413.215000", "153414.002500", "153414.790000", "153415.577500", "153416.367500", "153417.155000", "153417.942500", "153418.730000", "153419.520000", "153420.307500", "153421.095000", "153421.882500", "153422.672500", "153423.460000", "153424.247500", "153425.037500", "153425.825000", "153426.612500", "153427.400000", "153428.190000", "153428.977500", "153429.765000", "153430.552500", "153431.342500", "153432.130000", "153432.917500", "153433.705000", "153434.495000", "153435.282500", "153436.070000", "153436.857500", "153437.647500", "153438.435000", "153439.222500", "153440.010000", "153440.800000", "153441.587500", "153442.375000", "153443.165000", "153443.952500", "153444.740000", "153445.527500", "153446.317500", "153447.105000", "153447.892500", "153448.680000", "153449.470000", "153450.257500", "153451.045000", "153451.832500", "153452.622500", "153453.410000", "153454.197500", "153454.985000", "153455.775000", "153456.562500", "153457.350000", "153458.137500", "153458.927500", "153459.715000", "153500.502500", "153501.292500", "153502.080000", "153502.867500", "153503.655000", "153504.445000", "153505.232500", "153506.020000", "153506.807500", "153507.597500", "153508.385000", "153509.172500", "153509.960000", "153510.750000", "153511.537500", "153512.325000", "153513.112500", "153513.902500", "153514.690000", "153515.477500", "153516.265000", "153517.055000", "153517.842500", "153518.630000", "153519.420000", "153520.207500", "153520.995000", "153521.782500", "153522.572500", "153523.360000", "153524.147500", "153524.935000", "153525.725000", "153526.512500", "153527.300000", "153528.087500", "153528.877500", "153529.665000", "153530.452500", "153531.240000", "153532.030000", "153532.817500", "153533.605000", "153534.392500", "153535.182500", "153535.970000", "153536.757500", "153537.547500", "153538.335000", "153539.122500", "153539.910000", "153540.700000", "153541.487500", "153542.275000", "153543.062500", "153543.852500", "153544.640000", "153545.427500", "153546.215000", "153547.005000", "153547.792500", "153548.580000", "153549.367500", "153550.157500", "153550.945000", "153551.732500", "153552.520000", "153553.310000", "153554.097500", "153554.885000", "153555.675000", "153556.462500", "153557.250000", "153558.037500", "153558.827500", "153559.615000", "153600.402500", "153601.190000", "153601.980000", "153602.767500", "153603.555000", "153604.342500", "153605.132500", "153605.920000", "153606.707500", "153607.495000", "153608.285000", "153609.072500", "153609.860000", "153610.647500", "153611.437500", "153612.225000", "153613.012500", "153613.802500", "153614.590000", "153615.377500", "153616.165000", "153616.955000", "153617.742500", "153618.530000", "153619.317500", "153620.107500", "153620.895000", "153621.682500", "153622.470000", "153623.260000", "153624.047500", "153624.835000", "153625.622500", "153626.412500", "153627.200000", "153627.987500", "153628.775000", "153629.565000", "153630.352500", "153631.140000", "153631.930000", "153632.717500", "153633.505000", "153634.292500", "153635.082500", "153635.870000", "153636.657500", "153637.445000", "153638.235000", "153639.022500", "153639.810000", "153640.597500", "153641.387500", "153642.175000", "153642.962500", "153643.750000", "153644.540000", "153645.327500", "153646.115000", "153646.905000", "153647.692500", "153648.480000", "153649.267500", "153650.057500", "153650.845000", "153651.632500", "153652.420000", "153653.210000", "153653.997500", "153654.785000", "153655.572500", "153656.362500", "153657.150000", "153657.937500", "153658.725000", "153659.515000", "153700.302500", "153701.090000", "153701.877500", "153702.667500", "153703.455000", "153704.242500", "153705.032500", "153705.820000", "153706.607500", "153707.395000", "153708.185000", "153708.972500", "153709.760000", "153710.547500", "153711.337500", "153712.125000", "153712.912500", "153713.700000", "153714.490000", "153715.277500", "153716.065000", "153716.852500", "153717.642500", "153718.430000", "153719.217500", "153720.005000", "153720.795000", "153721.582500", "153722.370000", "153723.160000", "153723.947500", "153724.735000", "153725.522500", "153726.312500", "153727.100000", "153727.887500", "153728.675000", "153729.465000", "153730.252500", "153731.040000", "153731.827500", "153732.617500", "153733.405000", "153734.192500", "153734.980000", "153735.770000", "153736.557500", "153737.345000", "153738.132500", "153738.922500", "153739.710000", "153740.497500", "153741.287500", "153742.075000", "153742.862500", "153743.650000", "153744.440000", "153745.227500", "153746.015000", "153746.802500", "153747.592500", "153748.380000", "153749.167500", "153749.955000", "153750.745000", "153751.532500", "153752.320000", "153753.107500", "153753.897500", "153754.685000", "153755.472500", "153756.260000", "153757.050000", "153757.837500", "153758.625000", "153759.415000", "153800.202500", "153800.990000", "153801.777500", "153802.567500", "153803.355000", "153804.142500", "153804.930000", "153805.720000", "153806.507500", "153807.295000", "153808.082500", "153808.872500", "153809.660000", "153810.447500", "153811.235000", "153812.025000", "153812.812500", "153813.600000", "153814.387500", "153815.177500", "153815.965000", "153816.752500", "153817.542500", "153818.330000", "153819.117500", "153819.905000", "153820.695000", "153821.482500", "153822.270000", "153823.057500", "153823.847500", "153824.635000", "153825.422500", "153826.210000", "153827.000000", "153827.787500", "153828.575000", "153829.362500", "153830.152500", "153830.940000", "153831.727500", "153832.515000", "153833.305000", "153834.092500", "153834.880000", "153835.670000", "153836.457500", "153837.245000", "153838.032500", "153838.822500", "153839.610000", "153840.397500", "153841.185000", "153841.975000", "153842.762500", "153843.550000", "153844.337500", "153845.127500", "153845.915000", "153846.702500", "153847.490000", "153848.280000", "153849.067500", "153849.855000", "153850.642500", "153851.432500", "153852.220000", "153853.007500", "153853.797500", "153854.585000", "153855.372500", "153856.160000", "153856.950000", "153857.737500", "153858.525000", "153859.312500", "153900.102500", "153900.890000", "153901.677500", "153902.465000", "153903.255000", "153904.042500", "153904.830000", "153905.617500", "153906.407500", "153907.195000", "153907.982500", "153908.770000", "153909.560000", "153910.347500", "153911.135000", "153911.925000", "153912.712500", "153913.500000", "153914.287500", "153915.077500", "153915.865000", "153916.652500", "153917.440000", "153918.230000", "153919.017500", "153919.805000"],
      "ContentTime": ["153215.234000", "153215.234000", "153215.234000", "153215.234000", "153215.250000", "153215.250000", "153215.250000", "153215.250000", "153215.250000", "153215.265000", "153215.265000", "153215.265000", "153215.265000", "153215.265000", "153215.265000", "153215.265000", "153215.281000", "153215.281000", "153215.281000", "153215.281000", "153215.281000", "153215.281000", "153215.281000", "153215.296000", "153215.296000", "153215.296000", "153215.296000", "153215.296000", "153215.296000", "153215.296000", "153215.312000", "153215.312000", "153215.312000", "153215.312000", "153215.312000", "153215.312000", "153215.312000", "153215.328000", "153215.328000", "153235.203000", "153235.203000", "153235.203000", "153235.203000", "153235.218000", "153235.218000", "153235.218000", "153235.218000", "153235.218000", "153235.218000", "153235.218000", "153235.234000", "153235.234000", "153235.234000", "153235.234000", "153235.234000", "153235.234000", "153235.250000", "153235.250000", "153235.250000", "153235.250000", "153235.250000", "153235.250000", "153235.265000", "153235.265000", "153255.203000", "153255.203000", "153255.203000", "153255.203000", "153255.218000", "153255.218000", "153255.218000", "153255.218000", "153255.218000", "153255.218000", "153255.218000", "153255.234000", "153255.234000", "153255.234000", "153255.234000", "153255.234000", "153255.234000", "153255.234000", "153255.250000", "153255.250000", "153255.250000", "153255.250000", "153255.250000", "153255.250000", "153255.250000", "153255.265000", "153315.203000", "153315.203000", "153315.203000", "153315.203000", "153315.218000", "153315.218000", "153315.218000", "153315.218000", "153315.218000", "153315.218000", "153315.218000", "153315.234000", "153315.234000", "153315.234000", "153315.234000", "153315.234000", "153315.234000", "153315.250000", "153315.250000", "153315.250000", "153315.250000", "153315.250000", "153315.250000", "153315.250000", "153315.265000", "153335.203000", "153335.203000", "153335.203000", "153335.203000", "153335.218000", "153335.218000", "153335.218000", "153335.218000", "153335.218000", "153335.218000", "153335.218000", "153335.234000", "153335.234000", "153335.234000", "153335.234000", "153335.234000", "153335.234000", "153335.234000", "153335.250000", "153335.250000", "153335.250000", "153335.250000", "153335.250000", "153335.250000", "153335.250000", "153355.203000", "153355.203000", "153355.203000", "153355.203000", "153355.218000", "153355.218000", "153355.218000", "153355.218000", "153355.218000", "153355.218000", "153355.218000", "153355.234000", "153355.234000", "153355.234000", "153355.234000", "153355.234000", "153355.234000", "153355.234000", "153355.250000", "153355.250000", "153355.250000", "153355.250000", "153355.250000", "153355.250000", "153355.265000", "153355.265000", "153415.203000", "153415.203000", "153415.203000", "153415.218000", "153415.218000", "153415.218000", "153415.218000", "153415.218000", "153415.218000", "153415.218000", "153415.234000", "153415.234000", "153415.234000", "153415.234000", "153415.234000", "153415.234000", "153415.234000", "153415.250000", "153415.250000", "153415.250000", "153415.250000", "153415.250000", "153415.250000", "153415.265000", "153415.265000", "153435.203000", "153435.203000", "153435.203000", "153435.203000", "153435.218000", "153435.218000", "153435.218000", "153435.218000", "153435.218000", "153435.218000", "153435.218000", "153435.234000", "153435.234000", "153435.234000", "153435.234000", "153435.234000", "153435.234000", "153435.234000", "153435.250000", "153435.250000", "153435.250000", "153435.250000", "153435.250000", "153435.250000", "153435.250000", "153435.265000", "153455.203000", "153455.203000", "153455.203000", "153455.218000", "153455.218000", "153455.218000", "153455.218000", "153455.218000", "153455.218000", "153455.234000", "153455.234000", "153455.234000", "153455.234000", "153455.234000", "153455.234000", "153455.234000", "153455.250000", "153455.250000", "153455.250000", "153455.250000", "153455.250000", "153455.250000", "153455.265000", "153455.265000", "153455.265000", "153515.203000", "153515.203000", "153515.203000", "153515.203000", "153515.218000", "153515.218000", "153515.218000", "153515.218000", "153515.218000", "153515.218000", "153515.218000", "153515.234000", "153515.234000", "153515.234000", "153515.234000", "153515.234000", "153515.234000", "153515.234000", "153515.250000", "153515.250000", "153515.250000", "153515.250000", "153515.265000", "153515.265000", "153515.265000", "153515.265000", "153535.203000", "153535.203000", "153535.203000", "153535.203000", "153535.218000", "153535.218000", "153535.218000", "153535.218000", "153535.218000", "153535.218000", "153535.218000", "153535.234000", "153535.234000", "153535.234000", "153535.250000", "153535.250000", "153535.250000", "153535.250000", "153535.250000", "153535.250000", "153535.250000", "153535.265000", "153535.265000", "153535.265000", "153535.265000", "153555.203000", "153555.203000", "153555.203000", "153555.203000", "153555.218000", "153555.218000", "153555.218000", "153555.218000", "153555.218000", "153555.218000", "153555.218000", "153555.234000", "153555.234000", "153555.234000", "153555.234000", "153555.234000", "153555.234000", "153555.234000", "153555.250000", "153555.250000", "153555.250000", "153555.250000", "153555.250000", "153555.250000", "153555.250000", "153555.265000", "153615.203000", "153615.203000", "153615.203000", "153615.203000", "153615.218000", "153615.218000", "153615.218000", "153615.218000", "153615.218000", "153615.218000", "153615.234000", "153615.234000", "153615.234000", "153615.234000", "153615.234000", "153615.234000", "153615.250000", "153615.250000", "153615.250000", "153615.250000", "153615.265000", "153615.265000", "153615.265000", "153615.265000", "153615.265000", "153635.203000", "153635.203000", "153635.203000", "153635.203000", "153635.218000", "153635.218000", "153635.218000", "153635.218000", "153635.218000", "153635.218000", "153635.234000", "153635.234000", "153635.234000", "153635.234000", "153635.234000", "153635.234000", "153635.234000", "153635.250000", "153635.250000", "153635.250000", "153635.250000", "153635.250000", "153635.250000", "153635.250000", "153635.265000", "153635.265000", "153655.203000", "153655.203000", "153655.203000", "153655.203000", "153655.218000", "153655.218000", "153655.218000", "153655.218000", "153655.218000", "153655.218000", "153655.234000", "153655.234000", "153655.234000", "153655.234000", "153655.234000", "153655.234000", "153655.250000", "153655.250000", "153655.250000", "153655.250000", "153655.250000", "153655.250000", "153655.250000", "153655.265000", "153655.265000", "153715.203000", "153715.203000", "153715.203000", "153715.218000", "153715.218000", "153715.218000", "153715.218000", "153715.218000", "153715.218000", "153715.234000", "153715.234000", "153715.234000", "153715.234000", "153715.234000", "153715.234000", "153715.234000", "153715.250000", "153715.250000", "153715.250000", "153715.250000", "153715.250000", "153715.250000", "153715.250000", "153715.265000", "153715.265000", "153715.265000", "153735.203000", "153735.203000", "153735.203000", "153735.203000", "153735.218000", "153735.218000", "153735.218000", "153735.218000", "153735.218000", "153735.218000", "153735.218000", "153735.234000", "153735.234000", "153735.234000", "153735.234000", "153735.234000", "153735.234000", "153735.234000", "153735.250000", "153735.250000", "153735.250000", "153735.250000", "153735.250000", "153735.250000", "153735.250000", "153755.203000", "153755.203000", "153755.203000", "153755.203000", "153755.218000", "153755.218000", "153755.218000", "153755.218000", "153755.218000", "153755.218000", "153755.218000", "153755.234000", "153755.234000", "153755.234000", "153755.234000", "153755.234000", "153755.234000", "153755.234000", "153755.250000", "153755.250000", "153755.250000", "153755.250000", "153755.250000", "153755.250000", "153755.250000", "153755.265000", "153815.203000", "153815.203000", "153815.203000", "153815.203000", "153815.218000", "153815.218000", "153815.218000", "153815.218000", "153815.218000", "153815.218000", "153815.218000", "153815.234000", "153815.234000", "153815.234000", "153815.234000", "153815.234000", "153815.234000", "153815.234000", "153815.250000", "153815.250000", "153815.250000", "153815.250000", "153815.250000", "153815.265000", "153815.265000", "153835.203000", "153835.203000", "153835.203000", "153835.203000", "153835.218000", "153835.218000", "153835.218000", "153835.218000", "153835.218000", "153835.218000", "153835.234000", "153835.234000", "153835.234000", "153835.234000", "153835.234000", "153835.234000", "153835.250000", "153835.250000", "153835.250000", "153835.250000", "153835.250000", "153835.250000", "153835.250000", "153835.265000", "153835.265000", "153835.265000", "153855.203000", "153855.203000", "153855.203000", "153855.203000", "153855.218000", "153855.218000", "153855.218000", "153855.218000", "153855.218000", "153855.218000", "153855.234000", "153855.234000", "153855.234000", "153855.234000", "153855.234000", "153855.234000", "153855.234000", "153855.250000", "153855.250000", "153855.250000", "153855.250000", "153855.250000", "153855.250000", "153855.250000", "153855.265000", "153915.203000", "153915.203000", "153915.203000", "153915.203000", "153915.218000", "153915.218000", "153915.218000", "153915.218000", "153915.218000", "153915.218000", "153915.218000", "153915.234000", "153915.234000", "153915.234000", "153915.234000", "153915.234000", "153915.234000", "153915.234000", "153915.250000", "153915.250000", "153915.250000", "153915.250000", "153915.250000", "153915.250000", "153915.265000", "153915.265000", "153920.718000", "153920.734000", "153920.734000", "153920.734000", "153920.734000", "153920.734000", "153920.734000"],
