{
  "AcquisitionMatrixPE": 104,
  "AcquisitionNumber": 1,
  "AcquisitionTime": "14:49:23.740000",
  "BandwidthPerPixelPhaseEncode": 13.935,
  "BaseResolution": 104,
  "CoilString": "C:HEA;HEP",
  "ConversionSoftware": "dcm2niix",
  "ConversionSoftwareVersion": "v1.0.20210317",
  "DerivedVendorReportedEchoSpacing": 0.000690017,
  "DeviceSerialNumber": "35450",
  "DwellTime": 2.5e-06,
  "EchoTime": 0.0348,
  "EffectiveEchoSpacing": 0.000690017,
  "FlipAngle": 55,
  "ImageComments": "Unaliased MB8/PE3 (remote)",
  "ImageOrientationPatientDICOM": [1, 0, 0, 0, 0.971134, -0.238533],
  "ImageType": [
    "ORIGINAL",
    "PRIMARY",
    "M",
    "MB",
    "ND",
    "MOSAIC"
],
  "ImagingFrequency": 123.235,
  "InPlanePhaseEncodingDirectionDICOM": "COL",
  "InstitutionAddress": "Univeristy Ave. 197,Newark,North East,US,07102-1814",
  "InstitutionName": "RUBIC",
  "InstitutionalDepartmentName": "Department",
  "MRAcquisitionType": "2D",
  "MagneticFieldStrength": 3,
  "Manufacturer": "Siemens",
  "ManufacturersModelName": "TrioTim",
  "Modality": "MR",
  "MultibandAccelerationFactor": 8,
  "PartialFourier": 0.875,
  "PatientPosition": "HFS",
  "PercentPhaseFOV": 100,
  "PercentSampling": 100,
  "PhaseEncodingDirection": "j-",
  "PhaseEncodingSteps": 91,
  "PhaseResolution": 1,
  "PixelBandwidth": 1923,
  "ProcedureStepDescription": "Cole^Michael",
  "ProtocolName": "cmrr_mbep2d_bold_2mm_MB8_Task_8x",
  "PulseSequenceDetails": "%CustomerSeq%\\cmrr_mbep2d_bold",
  "ReceiveCoilName": "32Ch_Head",
  "ReconMatrixPE": 104,
  "RepetitionTime": 0.785,
  "SAR": 0.115469,
  "ScanOptions": "PFP\\FS",
  "ScanningSequence": "EP",
  "SequenceName": "epfid2d1_104",
  "SequenceVariant": "SK\\SS",
  "SeriesDescription": "cmrr_mbep2d_bold_2mm_MB8_Task_8x",
  "SeriesNumber": 15,
  "ShimSetting": [2114, -345, -7470, 385, -7, -101, -89, -45],
  "SliceThickness": 2,
  "SliceTiming": [0, 0.4375, 0.0875, 0.525, 0.175, 0.6125, 0.2625, 0.7, 0.35, 0, 0.4375, 0.0875, 0.525, 0.175, 0.6125, 0.2625, 0.7, 0.35, 0, 0.4375, 0.0875, 0.525, 0.175, 0.6125, 0.2625, 0.7, 0.35, 0, 0.4375, 0.0875, 0.525, 0.175, 0.6125, 0.2625, 0.7, 0.35, 0, 0.4375, 0.0875, 0.525, 0.175, 0.6125, 0.2625, 0.7, 0.35, 0, 0.4375, 0.0875, 0.525, 0.175, 0.6125, 0.2625, 0.7, 0.35, 0, 0.4375, 0.0875, 0.525, 0.175, 0.6125, 0.2625, 0.7, 0.35, 0, 0.4375, 0.0875, 0.525, 0.175, 0.6125, 0.2625, 0.7, 0.35],
  "SoftwareVersions": "syngo MR B19",
  "SpacingBetweenSlices": 2,
  "StationName": "MRC35450",
  "TaskName": "cpro",
  "TotalReadoutTime": 0.0710717,
  "TxRefAmp": 321.221,
  "dcmmeta_affine": [
    [-2.0, 0.0, 0.0, 106.03389739990234],
    [0.0, 1.9422686100006104, -0.47706693410873413, -71.96723937988281],
    [0.0, 0.47706693410873413, 1.9422684907913208, -114.36250305175781],
    [0.0, 0.0, 0.0, 1.0]
],
  "dcmmeta_reorient_transform": [
    [0.0, -1.0, 0.0, 103.0],
    [1.0, 0.0, 0.0, 0.0],
    [0.0, 0.0, 1.0, 0.0],
    [0.0, 0.0, 0.0, 1.0]
],
  "dcmmeta_shape": [104, 104, 72, 581],
  "dcmmeta_slice_dim": 2,
  "dcmmeta_version": 0.6,
  "global": {
    "const": {
      "AcquisitionMatrix": [104, 0, 0, 104],
      "AngioFlag": "N",
      "BitsAllocated": 16,
      "BitsStored": 12,
      "Columns": 936,
      "EchoNumbers": 1,
      "EchoTime": 34.8,
      "EchoTrainLength": 1,
      "FlipAngle": 55.0,
      "HighBit": 11,
      "ImageOrientationPatient": [1.0, 0.0, 0.0, 0.0, 0.97113427618897, -0.2385334727264],
      "ImagePositionPatient": [-938.03389835358, -936.07014152777, 133.23524123852],
      "ImageType": [
        "ORIGINAL",
        "PRIMARY",
        "M",
        "MB",
        "ND",
        "MOSAIC"
],
      "ImagedNucleus": "1H",
      "ImagingFrequency": 123.234589,
      "InPlanePhaseEncodingDirection": "COL",
      "MRAcquisitionType": "2D",
      "MagneticFieldStrength": 3.0,
      "Manufacturer": "SIEMENS",
      "ManufacturerModelName": "TrioTim",
      "Modality": "MR",
      "NumberOfAverages": 1.0,
      "NumberOfPhaseEncodingSteps": 91,
      "PercentPhaseFieldOfView": 100.0,
      "PercentSampling": 100.0,
      "PerformedProcedureStepStartTime": "133156.031000",
      "PhotometricInterpretation": "MONOCHROME2",
      "PixelBandwidth": 1923.0,
      "PixelRepresentation": 0,
      "PixelSpacing": [2.0, 2.0],
      "ProtocolName": "cmrr_mbep2d_bold_2mm_MB8_Task_8x",
      "RepetitionTime": 785.0,
      "Rows": 936,
      "SAR": 0.11546922682158,
      "SamplesPerPixel": 1,
      "ScanOptions": [
        "PFP",
        "FS"
],
      "ScanningSequence": "EP",
      "SequenceName": "epfid2d1_104",
      "SequenceVariant": [
        "SK",
        "SS"
],
      "SeriesDescription": "cmrr_mbep2d_bold_2mm_MB8_Task_8x",
      "SeriesNumber": 15,
      "SeriesTime": "144953.250000",
      "SliceLocation": -93.894752011087,
      "SliceThickness": 2.0,
      "SmallestImagePixelValue": 0,
      "SoftwareVersions": "syngo MR B19",
      "SpacingBetweenSlices": 1.9999999764464,
      "SpecificCharacterSet": "ISO_IR 100",
      "StudyID": "1",
      "StudyTime": "133155.984000",
      "TransmitCoilName": "Body",
      "VariableFlipAngleFlag": "N",
      "WindowCenterWidthExplanation": "Algo1",
      "dBdt": 0.0},
    "slices": {}
  },
  "time": {
    "samples": {
      "AcquisitionNumber": [1, 2, 3, 4, 5, 6, 7, 8, 9, 10, 11, 12, 13, 14, 15, 16, 17, 18, 19, 20, 21, 22, 23, 24, 25, 26, 27, 28, 29, 30, 31, 32, 33, 34, 35, 36, 37, 38, 39, 40, 41, 42, 43, 44, 45, 46, 47, 48, 49, 50, 51, 52, 53, 54, 55, 56, 57, 58, 59, 60, 61, 62, 63, 64, 65, 66, 67, 68, 69, 70, 71, 72, 73, 74, 75, 76, 77, 78, 79, 80, 81, 82, 83, 84, 85, 86, 87, 88, 89, 90, 91, 92, 93, 94, 95, 96, 97, 98, 99, 100, 101, 102, 103, 104, 105, 106, 107, 108, 109, 110, 111, 112, 113, 114, 115, 116, 117, 118, 119, 120, 121, 122, 123, 124, 125, 126, 127, 128, 129, 130, 131, 132, 133, 134, 135, 136, 137, 138, 139, 140, 141, 142, 143, 144, 145, 146, 147, 148, 149, 150, 151, 152, 153, 154, 155, 156, 157, 158, 159, 160, 161, 162, 163, 164, 165, 166, 167, 168, 169, 170, 171, 172, 173, 174, 175, 176, 177, 178, 179, 180, 181, 182, 183, 184, 185, 186, 187, 188, 189, 190, 191, 192, 193, 194, 195, 196, 197, 198, 199, 200, 201, 202, 203, 204, 205, 206, 207, 208, 209, 210, 211, 212, 213, 214, 215, 216, 217, 218, 219, 220, 221, 222, 223, 224, 225, 226, 227, 228, 229, 230, 231, 232, 233, 234, 235, 236, 237, 238, 239, 240, 241, 242, 243, 244, 245, 246, 247, 248, 249, 250, 251, 252, 253, 254, 255, 256, 257, 258, 259, 260, 261, 262, 263, 264, 265, 266, 267, 268, 269, 270, 271, 272, 273, 274, 275, 276, 277, 278, 279, 280, 281, 282, 283, 284, 285, 286, 287, 288, 289, 290, 291, 292, 293, 294, 295, 296, 297, 298, 299, 300, 301, 302, 303, 304, 305, 306, 307, 308, 309, 310, 311, 312, 313, 314, 315, 316, 317, 318, 319, 320, 321, 322, 323, 324, 325, 326, 327, 328, 329, 330, 331, 332, 333, 334, 335, 336, 337, 338, 339, 340, 341, 342, 343, 344, 345, 346, 347, 348, 349, 350, 351, 352, 353, 354, 355, 356, 357, 358, 359, 360, 361, 362, 363, 364, 365, 366, 367, 368, 369, 370, 371, 372, 373, 374, 375, 376, 377, 378, 379, 380, 381, 382, 383, 384, 385, 386, 387, 388, 389, 390, 391, 392, 393, 394, 395, 396, 397, 398, 399, 400, 401, 402, 403, 404, 405, 406, 407, 408, 409, 410, 411, 412, 413, 414, 415, 416, 417, 418, 419, 420, 421, 422, 423, 424, 425, 426, 427, 428, 429, 430, 431, 432, 433, 434, 435, 436, 437, 438, 439, 440, 441, 442, 443, 444, 445, 446, 447, 448, 449, 450, 451, 452, 453, 454, 455, 456, 457, 458, 459, 460, 461, 462, 463, 464, 465, 466, 467, 468, 469, 470, 471, 472, 473, 474, 475, 476, 477, 478, 479, 480, 481, 482, 483, 484, 485, 486, 487, 488, 489, 490, 491, 492, 493, 494, 495, 496, 497, 498, 499, 500, 501, 502, 503, 504, 505, 506, 507, 508, 509, 510, 511, 512, 513, 514, 515, 516, 517, 518, 519, 520, 521, 522, 523, 524, 525, 526, 527, 528, 529, 530, 531, 532, 533, 534, 535, 536, 537, 538, 539, 540, 541, 542, 543, 544, 545, 546, 547, 548, 549, 550, 551, 552, 553, 554, 555, 556, 557, 558, 559, 560, 561, 562, 563, 564, 565, 566, 567, 568, 569, 570, 571, 572, 573, 574, 575, 576, 577, 578, 579, 580, 581],
      "AcquisitionTime": ["144923.740000", "144924.527500", "144925.317500", "144926.105000", "144926.892500", "144927.680000", "144928.470000", "144929.257500", "144930.045000", "144930.832500", "144931.622500", "144932.410000", "144933.197500", "144933.985000", "144934.775000", "144935.562500", "144936.350000", "144937.137500", "144937.927500", "144938.715000", "144939.502500", "144940.290000", "144941.080000", "144941.867500", "144942.655000", "144943.445000", "144944.232500", "144945.020000", "144945.807500", "144946.597500", "144947.385000", "144948.172500", "144948.960000", "144949.750000", "144950.537500", "144951.325000", "144952.112500", "144952.902500", "144953.690000", "144954.477500", "144955.265000", "144956.055000", "144956.842500", "144957.630000", "144958.417500", "144959.207500", "144959.995000", "145000.782500", "145001.572500", "145002.360000", "145003.147500", "145003.935000", "145004.725000", "145005.512500", "145006.300000", "145007.087500", "145007.877500", "145008.665000", "145009.452500", "145010.240000", "145011.030000", "145011.817500", "145012.605000", "145013.392500", "145014.182500", "145014.970000", "145015.757500", "145016.545000", "145017.335000", "145018.122500", "145018.910000", "145019.700000", "145020.487500", "145021.275000", "145022.062500", "145022.852500", "145023.640000", "145024.427500", "145025.215000", "145026.005000", "145026.792500", "145027.580000", "145028.367500", "145029.157500", "145029.945000", "145030.732500", "145031.520000", "145032.310000", "145033.097500", "145033.885000", "145034.672500", "145035.462500", "145036.250000", "145037.037500", "145037.827500", "145038.615000", "145039.402500", "145040.190000", "145040.980000", "145041.767500", "145042.555000", "145043.342500", "145044.132500", "145044.920000", "145045.707500", "145046.495000", "145047.285000", "145048.072500", "145048.860000", "145049.647500", "145050.437500", "145051.225000", "145052.012500", "145052.800000", "145053.590000", "145054.377500", "145055.165000", "145055.955000", "145056.742500", "145057.530000", "145058.317500", "145059.107500", "145059.895000", "145100.682500", "145101.470000", "145102.260000", "145103.047500", "145103.835000", "145104.622500", "145105.412500", "145106.200000", "145106.987500", "145107.775000", "145108.565000", "145109.352500", "145110.140000", "145110.927500", "145111.717500", "145112.505000", "145113.292500", "145114.082500", "145114.870000", "145115.657500", "145116.445000", "145117.235000", "145118.022500", "145118.810000", "145119.597500", "145120.387500", "145121.175000", "145121.962500", "145122.750000", "145123.540000", "145124.327500", "145125.115000", "145125.902500", "145126.692500", "145127.480000", "145128.267500", "145129.057500", "145129.845000", "145130.632500", "145131.420000", "145132.210000", "145132.997500", "145133.785000", "145134.572500", "145135.362500", "145136.150000", "145136.937500", "145137.725000", "145138.515000", "145139.302500", "145140.090000", "145140.877500", "145141.667500", "145142.455000", "145143.242500", "145144.030000", "145144.820000", "145145.607500", "145146.395000", "145147.185000", "145147.972500", "145148.760000", "145149.547500", "145150.337500", "145151.125000", "145151.912500", "145152.700000", "145153.490000", "145154.277500", "145155.065000", "145155.852500", "145156.642500", "145157.430000", "145158.217500", "145159.005000", "145159.795000", "145200.582500", "145201.370000", "145202.157500", "145202.947500", "145203.735000", "145204.522500", "145205.312500", "145206.100000", "145206.887500", "145207.675000", "145208.465000", "145209.252500", "145210.040000", "145210.827500", "145211.617500", "145212.405000", "145213.192500", "145213.980000", "145214.770000", "145215.557500", "145216.345000", "145217.132500", "145217.922500", "145218.710000", "145219.497500", "145220.285000", "145221.075000", "145221.862500", "145222.650000", "145223.440000", "145224.227500", "145225.015000", "145225.802500", "145226.592500", "145227.380000", "145228.167500", "145228.955000", "145229.745000", "145230.532500", "145231.320000", "145232.107500", "145232.897500", "145233.685000", "145234.472500", "145235.260000", "145236.050000", "145236.837500", "145237.625000", "145238.412500", "145239.202500", "145239.990000", "145240.777500", "145241.567500", "145242.355000", "145243.142500", "145243.930000", "145244.720000", "145245.507500", "145246.295000", "145247.082500", "145247.872500", "145248.660000", "145249.447500", "145250.235000", "145251.025000", "145251.812500", "145252.600000", "145253.387500", "145254.177500", "145254.965000", "145255.752500", "145256.540000", "145257.330000", "145258.117500", "145258.905000", "145259.695000", "145300.482500", "145301.270000", "145302.057500", "145302.847500", "145303.635000", "145304.422500", "145305.210000", "145306.000000", "145306.787500", "145307.575000", "145308.362500", "145309.152500", "145309.940000", "145310.727500", "145311.515000", "145312.305000", "145313.092500", "145313.880000", "145314.667500", "145315.457500", "145316.245000", "145317.032500", "145317.822500", "145318.610000", "145319.397500", "145320.185000", "145320.975000", "145321.762500", "145322.550000", "145323.337500", "145324.127500", "145324.915000", "145325.702500", "145326.490000", "145327.280000", "145328.067500", "145328.855000", "145329.642500", "145330.432500", "145331.220000", "145332.007500", "145332.795000", "145333.585000", "145334.372500", "145335.160000", "145335.950000", "145336.737500", "145337.525000", "145338.312500", "145339.102500", "145339.890000", "145340.677500", "145341.465000", "145342.255000", "145343.042500", "145343.830000", "145344.617500", "145345.407500", "145346.195000", "145346.982500", "145347.770000", "145348.560000", "145349.347500", "145350.135000", "145350.922500", "145351.712500", "145352.500000", "145353.287500", "145354.077500", "145354.865000", "145355.652500", "145356.440000", "145357.230000", "145358.017500", "145358.805000", "145359.592500", "145400.382500", "145401.170000", "145401.957500", "145402.745000", "145403.535000", "145404.322500", "145405.110000", "145405.897500", "145406.687500", "145407.475000", "145408.262500", "145409.050000", "145409.840000", "145410.627500", "145411.415000", "145412.205000", "145412.992500", "145413.780000", "145414.567500", "145415.357500", "145416.145000", "145416.932500", "145417.720000", "145418.510000", "145419.297500", "145420.085000", "145420.872500", "145421.662500", "145422.450000", "145423.237500", "145424.025000", "145424.815000", "145425.602500", "145426.390000", "145427.177500", "145427.967500", "145428.755000", "145429.542500", "145430.332500", "145431.120000", "145431.907500", "145432.695000", "145433.485000", "145434.272500", "145435.060000", "145435.847500", "145436.637500", "145437.425000", "145438.212500", "145439.000000", "145439.790000", "145440.577500", "145441.365000", "145442.152500", "145442.942500", "145443.730000", "145444.517500", "145445.307500", "145446.095000", "145446.882500", "145447.670000", "145448.460000", "145449.247500", "145450.035000", "145450.822500", "145451.612500", "145452.400000", "145453.187500", "145453.975000", "145454.765000", "145455.552500", "145456.340000", "145457.127500", "145457.917500", "145458.705000", "145459.492500", "145500.280000", "145501.070000", "145501.857500", "145502.645000", "145503.435000", "145504.222500", "145505.010000", "145505.797500", "145506.587500", "145507.375000", "145508.162500", "145508.950000", "145509.740000", "145510.527500", "145511.315000", "145512.102500", "145512.892500", "145513.680000", "145514.467500", "145515.255000", "145516.045000", "145516.832500", "145517.620000", "145518.407500", "145519.197500", "145519.985000", "145520.772500", "145521.562500", "145522.350000", "145523.137500", "145523.925000", "145524.715000", "145525.502500", "145526.290000", "145527.077500", "145527.867500", "145528.655000", "145529.442500", "145530.230000", "145531.020000", "145531.807500", "145532.595000", "145533.382500", "145534.172500", "145534.960000", "145535.747500", "145536.535000", "145537.325000", "145538.112500", "145538.900000", "145539.690000", "145540.477500", "145541.265000", "145542.052500", "145542.842500", "145543.630000", "145544.417500", "145545.205000", "145545.995000", "145546.782500", "145547.570000", "145548.357500", "145549.147500", "145549.935000", "145550.722500", "145551.510000", "145552.300000", "145553.087500", "145553.875000", "145554.662500", "145555.452500", "145556.240000", "145557.027500", "145557.817500", "145558.605000", "145559.392500", "145600.180000", "145600.970000", "145601.757500", "145602.545000", "145603.332500", "145604.122500", "145604.910000", "145605.697500", "145606.485000", "145607.275000", "145608.062500", "145608.850000", "145609.637500", "145610.427500", "145611.215000", "145612.002500", "145612.790000", "145613.580000", "145614.367500", "145615.155000", "145615.945000", "145616.732500", "145617.520000", "145618.307500", "145619.097500", "145619.885000", "145620.672500", "145621.460000", "145622.250000", "145623.037500", "145623.825000", "145624.612500", "145625.402500", "145626.190000", "145626.977500", "145627.765000", "145628.555000", "145629.342500", "145630.130000", "145630.917500", "145631.707500", "145632.495000", "145633.282500", "145634.072500", "145634.860000", "145635.647500", "145636.435000", "145637.225000", "145638.012500", "145638.800000", "145639.587500", "145640.377500", "145641.165000", "145641.952500", "145642.740000", "145643.530000", "145644.317500", "145645.105000", "145645.892500", "145646.682500", "145647.470000", "145648.257500", "145649.045000", "145649.835000", "145650.622500", "145651.410000", "145652.200000", "145652.987500", "145653.775000", "145654.562500", "145655.352500", "145656.140000", "145656.927500", "145657.715000", "145658.505000", "145659.292500", "145700.080000", "145700.867500"],
      "ContentTime": ["144953.250000", "144953.250000", "144953.265000", "144953.265000", "144953.265000", "144953.265000", "144953.265000", "144953.265000", "144953.281000", "144953.281000", "144953.281000", "144953.281000", "144953.281000", "144953.281000", "144953.281000", "144953.296000", "144953.296000", "144953.296000", "144953.296000", "144953.296000", "144953.296000", "144953.296000", "144953.312000", "144953.312000", "144953.312000", "144953.312000", "144953.312000", "144953.312000", "144953.312000", "144953.328000", "144953.328000", "144953.328000", "144953.328000", "144953.328000", "144953.328000", "145013.218000", "145013.218000", "145013.218000", "145013.218000", "145013.234000", "145013.234000", "145013.234000", "145013.234000", "145013.234000", "145013.234000", "145013.234000", "145013.250000", "145013.250000", "145013.250000", "145013.250000", "145013.250000", "145013.250000", "145013.250000", "145013.265000", "145013.265000", "145013.265000", "145013.265000", "145013.265000", "145013.265000", "145013.265000", "145033.218000", "145033.218000", "145033.218000", "145033.218000", "145033.234000", "145033.234000", "145033.234000", "145033.234000", "145033.234000", "145033.234000", "145033.234000", "145033.250000", "145033.250000", "145033.250000", "145033.250000", "145033.250000", "145033.250000", "145033.265000", "145033.265000", "145033.265000", "145033.265000", "145033.265000", "145033.265000", "145033.265000", "145033.281000", "145033.281000", "145053.218000", "145053.218000", "145053.218000", "145053.218000", "145053.234000", "145053.234000", "145053.234000", "145053.234000", "145053.234000", "145053.234000", "145053.234000", "145053.250000", "145053.250000", "145053.250000", "145053.250000", "145053.250000", "145053.250000", "145053.265000", "145053.265000", "145053.265000", "145053.265000", "145053.265000", "145053.265000", "145053.265000", "145053.281000", "145113.218000", "145113.218000", "145113.218000", "145113.218000", "145113.234000", "145113.234000", "145113.234000", "145113.234000", "145113.234000", "145113.234000", "145113.250000", "145113.250000", "145113.250000", "145113.250000", "145113.250000", "145113.250000", "145113.250000", "145113.265000", "145113.265000", "145113.265000", "145113.265000", "145113.265000", "145113.265000", "145113.265000", "145113.281000", "145113.281000", "145133.218000", "145133.218000", "145133.218000", "145133.218000", "145133.234000", "145133.234000", "145133.234000", "145133.234000", "145133.234000", "145133.234000", "145133.234000", "145133.250000", "145133.250000", "145133.250000", "145133.250000", "145133.250000", "145133.250000", "145133.265000", "145133.265000", "145133.265000", "145133.265000", "145133.265000", "145133.281000", "145133.281000", "145133.281000", "145153.218000", "145153.218000", "145153.218000", "145153.218000", "145153.234000", "145153.234000", "145153.234000", "145153.234000", "145153.234000", "145153.234000", "145153.234000", "145153.250000", "145153.250000", "145153.250000", "145153.250000", "145153.250000", "145153.250000", "145153.250000", "145153.265000", "145153.265000", "145153.265000", "145153.265000", "145153.281000", "145153.281000", "145153.281000", "145153.281000", "145213.218000", "145213.218000", "145213.218000", "145213.218000", "145213.234000", "145213.234000", "145213.234000", "145213.234000", "145213.234000", "145213.234000", "145213.250000", "145213.250000", "145213.250000", "145213.250000", "145213.250000", "145213.250000", "145213.250000", "145213.265000", "145213.265000", "145213.265000", "145213.265000", "145213.265000", "145213.265000", "145213.265000", "145213.281000", "145233.218000", "145233.218000", "145233.218000", "145233.218000", "145233.234000", "145233.234000", "145233.234000", "145233.234000", "145233.234000", "145233.234000", "145233.234000", "145233.250000", "145233.250000", "145233.250000", "145233.250000", "145233.250000", "145233.250000", "145233.250000", "145233.265000", "145233.265000", "145233.265000", "145233.265000", "145233.265000", "145233.265000", "145233.281000", "145233.281000", "145253.218000", "145253.218000", "145253.218000", "145253.218000", "145253.234000", "145253.234000", "145253.234000", "145253.234000", "145253.234000", "145253.234000", "145253.234000", "145253.250000", "145253.250000", "145253.250000", "145253.250000", "145253.250000", "145253.250000", "145253.265000", "145253.265000", "145253.265000", "145253.265000", "145253.265000", "145253.265000", "145253.265000", "145253.281000", "145313.218000", "145313.234000", "145313.234000", "145313.234000", "145313.234000", "145313.234000", "145313.234000", "145313.250000", "145313.250000", "145313.250000", "145313.250000", "145313.250000", "145313.250000", "145313.265000", "145313.265000", "145313.265000", "145313.265000", "145313.265000", "145313.265000", "145313.265000", "145313.281000", "145313.281000", "145313.281000", "145313.281000", "145313.281000", "145313.281000", "145333.218000", "145333.218000", "145333.218000", "145333.218000", "145333.234000", "145333.234000", "145333.234000", "145333.234000", "145333.234000", "145333.234000", "145333.234000", "145333.250000", "145333.250000", "145333.250000", "145333.250000", "145333.250000", "145333.250000", "145333.250000", "145333.265000", "145333.265000", "145333.265000", "145333.265000", "145333.265000", "145333.265000", "145333.281000", "145353.218000", "145353.218000", "145353.218000", "145353.218000", "145353.234000", "145353.234000", "145353.234000", "145353.234000", "145353.234000", "145353.234000", "145353.234000", "145353.250000", "145353.250000", "145353.250000", "145353.250000", "145353.250000", "145353.265000", "145353.265000", "145353.265000", "145353.265000", "145353.265000", "145353.265000", "145353.281000", "145353.281000", "145353.281000", "145413.218000", "145413.218000", "145413.218000", "145413.218000", "145413.234000", "145413.234000", "145413.234000", "145413.234000", "145413.234000", "145413.234000", "145413.234000", "145413.250000", "145413.250000", "145413.250000", "145413.250000", "145413.250000", "145413.250000", "145413.265000", "145413.265000", "145413.265000", "145413.265000", "145413.265000", "145413.265000", "145413.281000", "145413.281000", "145413.281000", "145433.218000", "145433.218000", "145433.218000", "145433.218000", "145433.234000", "145433.234000", "145433.234000", "145433.234000", "145433.234000", "145433.234000", "145433.250000", "145433.250000", "145433.265000", "145433.265000", "145433.265000", "145433.265000", "145433.265000", "145433.265000", "145433.281000", "145433.281000", "145433.281000", "145433.281000", "145433.281000", "145433.296000", "145433.296000", "145453.218000", "145453.218000", "145453.218000", "145453.218000", "145453.234000", "145453.234000", "145453.234000", "145453.234000", "145453.234000", "145453.234000", "145453.234000", "145453.250000", "145453.250000", "145453.250000", "145453.250000", "145453.250000", "145453.250000", "145453.265000", "145453.265000", "145453.265000", "145453.265000", "145453.265000", "145453.265000", "145453.281000", "145453.281000", "145453.281000", "145513.218000", "145513.218000", "145513.218000", "145513.218000", "145513.234000", "145513.234000", "145513.234000", "145513.234000", "145513.234000", "145513.234000", "145513.234000", "145513.250000", "145513.250000", "145513.250000", "145513.250000", "145513.250000", "145513.250000", "145513.250000", "145513.265000", "145513.265000", "145513.265000", "145513.265000", "145513.281000", "145513.281000", "145513.281000", "145533.218000", "145533.218000", "145533.218000", "145533.218000", "145533.234000", "145533.234000", "145533.234000", "145533.234000", "145533.234000", "145533.234000", "145533.234000", "145533.250000", "145533.250000", "145533.250000", "145533.250000", "145533.250000", "145533.250000", "145533.250000", "145533.265000", "145533.265000", "145533.265000", "145533.265000", "145533.265000", "145533.265000", "145533.281000", "145533.281000", "145553.218000", "145553.218000", "145553.218000", "145553.218000", "145553.234000", "145553.234000", "145553.234000", "145553.234000", "145553.234000", "145553.234000", "145553.234000", "145553.250000", "145553.250000", "145553.250000", "145553.250000", "145553.250000", "145553.250000", "145553.265000", "145553.265000", "145553.265000", "145553.265000", "145553.265000", "145553.265000", "145553.265000", "145553.281000", "145613.218000", "145613.218000", "145613.218000", "145613.218000", "145613.234000", "145613.234000", "145613.234000", "145613.234000", "145613.234000", "145613.234000", "145613.234000", "145613.250000", "145613.250000", "145613.250000", "145613.250000", "145613.250000", "145613.265000", "145613.265000", "145613.265000", "145613.265000", "145613.265000", "145613.265000", "145613.265000", "145613.281000", "145613.281000", "145613.281000", "145633.218000", "145633.218000", "145633.218000", "145633.234000", "145633.234000", "145633.234000", "145633.234000", "145633.234000", "145633.234000", "145633.234000", "145633.250000", "145633.250000", "145633.250000", "145633.250000", "145633.250000", "145633.250000", "145633.250000", "145633.265000", "145633.265000", "145633.265000", "145633.265000", "145633.265000", "145633.265000", "145633.281000", "145633.281000", "145653.218000", "145653.218000", "145653.218000", "145653.218000", "145653.234000", "145653.234000", "145653.234000", "145653.234000", "145653.234000", "145653.234000", "145653.234000", "145653.250000", "145653.250000", "145653.250000", "145653.250000", "145653.250000", "145653.250000", "145653.250000", "145653.265000", "145653.265000", "145653.265000", "145653.265000", "145653.265000", "145653.265000", "145653.281000", "145653.281000", "145701.687000", "145701.687000", "145701.703000", "145701.703000", "145701.703000", "145701.703000", "145701.703000", "145701.703000", "145701.703000", "145701.718000", "145701.718000"],
