{
  "AcquisitionMatrixPE": 104,
  "AcquisitionNumber": 1,
  "AcquisitionTime": "15:39:52.707500",
  "BandwidthPerPixelPhaseEncode": 13.935,
  "BaseResolution": 104,
  "CoilString": "C:HEA;HEP",
  "ConversionSoftware": "dcm2niix",
  "ConversionSoftwareVersion": "v1.0.20210317",
  "DerivedVendorReportedEchoSpacing": 0.000690017,
  "DeviceSerialNumber": "35450",
  "DwellTime": 2.5e-06,
  "EchoTime": 0.0348,
  "EffectiveEchoSpacing": 0.000690017,
  "FlipAngle": 55,
  "ImageComments": "Unaliased MB8/PE3 (remote)",
  "ImageOrientationPatientDICOM": [1, 0, 0, 0, 0.971134, -0.238533],
  "ImageType": [
    "ORIGINAL",
    "PRIMARY",
    "M",
    "MB",
    "ND",
    "MOSAIC"
],
  "ImagingFrequency": 123.235,
  "InPlanePhaseEncodingDirectionDICOM": "COL",
  "InstitutionAddress": "Univeristy Ave. 197,Newark,North East,US,07102-1814",
  "InstitutionName": "RUBIC",
  "InstitutionalDepartmentName": "Department",
  "MRAcquisitionType": "2D",
  "MagneticFieldStrength": 3,
  "Manufacturer": "Siemens",
  "ManufacturersModelName": "TrioTim",
  "Modality": "MR",
  "MultibandAccelerationFactor": 8,
  "PartialFourier": 0.875,
  "PatientPosition": "HFS",
  "PercentPhaseFOV": 100,
  "PercentSampling": 100,
  "PhaseEncodingDirection": "j-",
  "PhaseEncodingSteps": 91,
  "PhaseResolution": 1,
  "PixelBandwidth": 1923,
  "ProcedureStepDescription": "Cole^Michael",
  "ProtocolName": "cmrr_mbep2d_bold_2mm_MB8_Task_8x",
  "PulseSequenceDetails": "%CustomerSeq%\\cmrr_mbep2d_bold",
  "ReceiveCoilName": "32Ch_Head",
  "ReconMatrixPE": 104,
  "RepetitionTime": 0.785,
  "SAR": 0.115469,
  "ScanOptions": "PFP\\FS",
  "ScanningSequence": "EP",
  "SequenceName": "epfid2d1_104",
  "SequenceVariant": "SK\\SS",
  "SeriesDescription": "cmrr_mbep2d_bold_2mm_MB8_Task_8x",
  "SeriesNumber": 27,
  "ShimSetting": [2114, -345, -7470, 385, -7, -101, -89, -45],
  "SliceThickness": 2,
  "SliceTiming": [0, 0.4375, 0.0875, 0.525, 0.175, 0.6125, 0.2625, 0.7, 0.35, 0, 0.4375, 0.0875, 0.525, 0.175, 0.6125, 0.2625, 0.7, 0.35, 0, 0.4375, 0.0875, 0.525, 0.175, 0.6125, 0.2625, 0.7, 0.35, 0, 0.4375, 0.0875, 0.525, 0.175, 0.6125, 0.2625, 0.7, 0.35, 0, 0.4375, 0.0875, 0.525, 0.175, 0.6125, 0.2625, 0.7, 0.35, 0, 0.4375, 0.0875, 0.525, 0.175, 0.6125, 0.2625, 0.7, 0.35, 0, 0.4375, 0.0875, 0.525, 0.175, 0.6125, 0.2625, 0.7, 0.35, 0, 0.4375, 0.0875, 0.525, 0.175, 0.6125, 0.2625, 0.7, 0.35],
  "SoftwareVersions": "syngo MR B19",
  "SpacingBetweenSlices": 2,
  "StationName": "MRC35450",
  "TaskName": "cpro",
  "TotalReadoutTime": 0.0710717,
  "TxRefAmp": 321.221,
  "dcmmeta_affine": [
    [-2.0, 0.0, 0.0, 106.03389739990234],
    [0.0, 1.9422686100006104, -0.47706693410873413, -71.96723937988281],
    [0.0, 0.47706693410873413, 1.9422684907913208, -114.36250305175781],
    [0.0, 0.0, 0.0, 1.0]
],
  "dcmmeta_reorient_transform": [
    [0.0, -1.0, 0.0, 103.0],
    [1.0, 0.0, 0.0, 0.0],
    [0.0, 0.0, 1.0, 0.0],
    [0.0, 0.0, 0.0, 1.0]
],
  "dcmmeta_shape": [104, 104, 72, 581],
  "dcmmeta_slice_dim": 2,
  "dcmmeta_version": 0.6,
  "global": {
    "const": {
      "AcquisitionMatrix": [104, 0, 0, 104],
      "AngioFlag": "N",
      "BitsAllocated": 16,
      "BitsStored": 12,
      "Columns": 936,
      "EchoNumbers": 1,
      "EchoTime": 34.8,
      "EchoTrainLength": 1,
      "FlipAngle": 55.0,
      "HighBit": 11,
      "ImageOrientationPatient": [1.0, 0.0, 0.0, 0.0, 0.97113427618897, -0.2385334727264],
      "ImagePositionPatient": [-938.03389835358, -936.07014152777, 133.23524123852],
      "ImageType": [
        "ORIGINAL",
        "PRIMARY",
        "M",
        "MB",
        "ND",
        "MOSAIC"
],
      "ImagedNucleus": "1H",
      "ImagingFrequency": 123.234589,
      "InPlanePhaseEncodingDirection": "COL",
      "MRAcquisitionType": "2D",
      "MagneticFieldStrength": 3.0,
      "Manufacturer": "SIEMENS",
      "ManufacturerModelName": "TrioTim",
      "Modality": "MR",
      "NumberOfAverages": 1.0,
      "NumberOfPhaseEncodingSteps": 91,
      "PercentPhaseFieldOfView": 100.0,
      "PercentSampling": 100.0,
      "PerformedProcedureStepStartTime": "133156.031000",
      "PhotometricInterpretation": "MONOCHROME2",
      "PixelBandwidth": 1923.0,
      "PixelRepresentation": 0,
      "PixelSpacing": [2.0, 2.0],
      "ProtocolName": "cmrr_mbep2d_bold_2mm_MB8_Task_8x",
      "RepetitionTime": 785.0,
      "Rows": 936,
      "SAR": 0.11546922682158,
      "SamplesPerPixel": 1,
      "ScanOptions": [
        "PFP",
        "FS"
],
      "ScanningSequence": "EP",
      "SequenceName": "epfid2d1_104",
      "SequenceVariant": [
        "SK",
        "SS"
],
      "SeriesDescription": "cmrr_mbep2d_bold_2mm_MB8_Task_8x",
      "SeriesNumber": 27,
      "SeriesTime": "154013.250000",
      "SliceLocation": -93.894752011087,
      "SliceThickness": 2.0,
      "SmallestImagePixelValue": 0,
      "SoftwareVersions": "syngo MR B19",
      "SpacingBetweenSlices": 1.9999999764464,
      "SpecificCharacterSet": "ISO_IR 100",
      "StudyID": "1",
      "StudyTime": "133155.984000",
      "TransmitCoilName": "Body",
      "VariableFlipAngleFlag": "N",
      "WindowCenterWidthExplanation": "Algo1",
      "dBdt": 0.0},
    "slices": {}
  },
  "time": {
    "samples": {
      "AcquisitionNumber": [1, 2, 3, 4, 5, 6, 7, 8, 9, 10, 11, 12, 13, 14, 15, 16, 17, 18, 19, 20, 21, 22, 23, 24, 25, 26, 27, 28, 29, 30, 31, 32, 33, 34, 35, 36, 37, 38, 39, 40, 41, 42, 43, 44, 45, 46, 47, 48, 49, 50, 51, 52, 53, 54, 55, 56, 57, 58, 59, 60, 61, 62, 63, 64, 65, 66, 67, 68, 69, 70, 71, 72, 73, 74, 75, 76, 77, 78, 79, 80, 81, 82, 83, 84, 85, 86, 87, 88, 89, 90, 91, 92, 93, 94, 95, 96, 97, 98, 99, 100, 101, 102, 103, 104, 105, 106, 107, 108, 109, 110, 111, 112, 113, 114, 115, 116, 117, 118, 119, 120, 121, 122, 123, 124, 125, 126, 127, 128, 129, 130, 131, 132, 133, 134, 135, 136, 137, 138, 139, 140, 141, 142, 143, 144, 145, 146, 147, 148, 149, 150, 151, 152, 153, 154, 155, 156, 157, 158, 159, 160, 161, 162, 163, 164, 165, 166, 167, 168, 169, 170, 171, 172, 173, 174, 175, 176, 177, 178, 179, 180, 181, 182, 183, 184, 185, 186, 187, 188, 189, 190, 191, 192, 193, 194, 195, 196, 197, 198, 199, 200, 201, 202, 203, 204, 205, 206, 207, 208, 209, 210, 211, 212, 213, 214, 215, 216, 217, 218, 219, 220, 221, 222, 223, 224, 225, 226, 227, 228, 229, 230, 231, 232, 233, 234, 235, 236, 237, 238, 239, 240, 241, 242, 243, 244, 245, 246, 247, 248, 249, 250, 251, 252, 253, 254, 255, 256, 257, 258, 259, 260, 261, 262, 263, 264, 265, 266, 267, 268, 269, 270, 271, 272, 273, 274, 275, 276, 277, 278, 279, 280, 281, 282, 283, 284, 285, 286, 287, 288, 289, 290, 291, 292, 293, 294, 295, 296, 297, 298, 299, 300, 301, 302, 303, 304, 305, 306, 307, 308, 309, 310, 311, 312, 313, 314, 315, 316, 317, 318, 319, 320, 321, 322, 323, 324, 325, 326, 327, 328, 329, 330, 331, 332, 333, 334, 335, 336, 337, 338, 339, 340, 341, 342, 343, 344, 345, 346, 347, 348, 349, 350, 351, 352, 353, 354, 355, 356, 357, 358, 359, 360, 361, 362, 363, 364, 365, 366, 367, 368, 369, 370, 371, 372, 373, 374, 375, 376, 377, 378, 379, 380, 381, 382, 383, 384, 385, 386, 387, 388, 389, 390, 391, 392, 393, 394, 395, 396, 397, 398, 399, 400, 401, 402, 403, 404, 405, 406, 407, 408, 409, 410, 411, 412, 413, 414, 415, 416, 417, 418, 419, 420, 421, 422, 423, 424, 425, 426, 427, 428, 429, 430, 431, 432, 433, 434, 435, 436, 437, 438, 439, 440, 441, 442, 443, 444, 445, 446, 447, 448, 449, 450, 451, 452, 453, 454, 455, 456, 457, 458, 459, 460, 461, 462, 463, 464, 465, 466, 467, 468, 469, 470, 471, 472, 473, 474, 475, 476, 477, 478, 479, 480, 481, 482, 483, 484, 485, 486, 487, 488, 489, 490, 491, 492, 493, 494, 495, 496, 497, 498, 499, 500, 501, 502, 503, 504, 505, 506, 507, 508, 509, 510, 511, 512, 513, 514, 515, 516, 517, 518, 519, 520, 521, 522, 523, 524, 525, 526, 527, 528, 529, 530, 531, 532, 533, 534, 535, 536, 537, 538, 539, 540, 541, 542, 543, 544, 545, 546, 547, 548, 549, 550, 551, 552, 553, 554, 555, 556, 557, 558, 559, 560, 561, 562, 563, 564, 565, 566, 567, 568, 569, 570, 571, 572, 573, 574, 575, 576, 577, 578, 579, 580, 581],
      "AcquisitionTime": ["153952.707500", "153953.495000", "153954.285000", "153955.072500", "153955.860000", "153956.650000", "153957.437500", "153958.225000", "153959.012500", "153959.802500", "154000.590000", "154001.377500", "154002.165000", "154002.955000", "154003.742500", "154004.530000", "154005.317500", "154006.107500", "154006.895000", "154007.682500", "154008.470000", "154009.260000", "154010.047500", "154010.835000", "154011.622500", "154012.412500", "154013.200000", "154013.987500", "154014.777500", "154015.565000", "154016.352500", "154017.140000", "154017.930000", "154018.717500", "154019.505000", "154020.292500", "154021.082500", "154021.870000", "154022.657500", "154023.445000", "154024.235000", "154025.022500", "154025.810000", "154026.597500", "154027.387500", "154028.175000", "154028.962500", "154029.752500", "154030.540000", "154031.327500", "154032.115000", "154032.905000", "154033.692500", "154034.480000", "154035.267500", "154036.057500", "154036.845000", "154037.632500", "154038.420000", "154039.210000", "154039.997500", "154040.785000", "154041.572500", "154042.362500", "154043.150000", "154043.937500", "154044.725000", "154045.515000", "154046.302500", "154047.090000", "154047.880000", "154048.667500", "154049.455000", "154050.242500", "154051.032500", "154051.820000", "154052.607500", "154053.395000", "154054.185000", "154054.972500", "154055.760000", "154056.547500", "154057.337500", "154058.125000", "154058.912500", "154059.700000", "154100.490000", "154101.277500", "154102.065000", "154102.852500", "154103.642500", "154104.430000", "154105.217500", "154106.007500", "154106.795000", "154107.582500", "154108.370000", "154109.160000", "154109.947500", "154110.735000", "154111.522500", "154112.312500", "154113.100000", "154113.887500", "154114.675000", "154115.465000", "154116.252500", "154117.040000", "154117.827500", "154118.617500", "154119.405000", "154120.192500", "154120.980000", "154121.770000", "154122.557500", "154123.345000", "154124.135000", "154124.922500", "154125.710000", "154126.497500", "154127.287500", "154128.075000", "154128.862500", "154129.650000", "154130.440000", "154131.227500", "154132.015000", "154132.802500", "154133.592500", "154134.380000", "154135.167500", "154135.955000", "154136.745000", "154137.532500", "154138.320000", "154139.107500", "154139.897500", "154140.685000", "154141.472500", "154142.262500", "154143.050000", "154143.837500", "154144.625000", "154145.415000", "154146.202500", "154146.990000", "154147.777500", "154148.567500", "154149.355000", "154150.142500", "154150.930000", "154151.720000", "154152.507500", "154153.295000", "154154.082500", "154154.872500", "154155.660000", "154156.447500", "154157.235000", "154158.025000", "154158.812500", "154159.600000", "154200.390000", "154201.177500", "154201.965000", "154202.752500", "154203.542500", "154204.330000", "154205.117500", "154205.905000", "154206.695000", "154207.482500", "154208.270000", "154209.057500", "154209.847500", "154210.635000", "154211.422500", "154212.210000", "154213.000000", "154213.787500", "154214.575000", "154215.362500", "154216.152500", "154216.940000", "154217.727500", "154218.517500", "154219.305000", "154220.092500", "154220.880000", "154221.670000", "154222.457500", "154223.245000", "154224.032500", "154224.822500", "154225.610000", "154226.397500", "154227.185000", "154227.975000", "154228.762500", "154229.550000", "154230.337500", "154231.127500", "154231.915000", "154232.702500", "154233.490000", "154234.280000", "154235.067500", "154235.855000", "154236.645000", "154237.432500", "154238.220000", "154239.007500", "154239.797500", "154240.585000", "154241.372500", "154242.160000", "154242.950000", "154243.737500", "154244.525000", "154245.312500", "154246.102500", "154246.890000", "154247.677500", "154248.465000", "154249.255000", "154250.042500", "154250.830000", "154251.617500", "154252.407500", "154253.195000", "154253.982500", "154254.772500", "154255.560000", "154256.347500", "154257.135000", "154257.925000", "154258.712500", "154259.500000", "154300.287500", "154301.077500", "154301.865000", "154302.652500", "154303.440000", "154304.230000", "154305.017500", "154305.805000", "154306.592500", "154307.382500", "154308.170000", "154308.957500", "154309.745000", "154310.535000", "154311.322500", "154312.110000", "154312.900000", "154313.687500", "154314.475000", "154315.262500", "154316.052500", "154316.840000", "154317.627500", "154318.415000", "154319.205000", "154319.992500", "154320.780000", "154321.567500", "154322.357500", "154323.145000", "154323.932500", "154324.720000", "154325.510000", "154326.297500", "154327.085000", "154327.872500", "154328.662500", "154329.450000", "154330.237500", "154331.027500", "154331.815000", "154332.602500", "154333.390000", "154334.180000", "154334.967500", "154335.755000", "154336.542500", "154337.332500", "154338.120000", "154338.907500", "154339.695000", "154340.485000", "154341.272500", "154342.060000", "154342.847500", "154343.637500", "154344.425000", "154345.212500", "154346.002500", "154346.790000", "154347.577500", "154348.365000", "154349.155000", "154349.942500", "154350.730000", "154351.517500", "154352.307500", "154353.095000", "154353.882500", "154354.670000", "154355.460000", "154356.247500", "154357.035000", "154357.822500", "154358.612500", "154359.400000", "154400.187500", "154400.975000", "154401.765000", "154402.552500", "154403.340000", "154404.130000", "154404.917500", "154405.705000", "154406.492500", "154407.282500", "154408.070000", "154408.857500", "154409.645000", "154410.435000", "154411.222500", "154412.010000", "154412.797500", "154413.587500", "154414.375000", "154415.162500", "154415.950000", "154416.740000", "154417.527500", "154418.315000", "154419.102500", "154419.892500", "154420.680000", "154421.467500", "154422.257500", "154423.045000", "154423.832500", "154424.620000", "154425.410000", "154426.197500", "154426.985000", "154427.772500", "154428.562500", "154429.350000", "154430.137500", "154430.925000", "154431.715000", "154432.502500", "154433.290000", "154434.077500", "154434.867500", "154435.655000", "154436.442500", "154437.230000", "154438.020000", "154438.807500", "154439.595000", "154440.385000", "154441.172500", "154441.960000", "154442.747500", "154443.537500", "154444.325000", "154445.112500", "154445.900000", "154446.690000", "154447.477500", "154448.265000", "154449.052500", "154449.842500", "154450.630000", "154451.417500", "154452.205000", "154452.995000", "154453.782500", "154454.570000", "154455.357500", "154456.147500", "154456.935000", "154457.722500", "154458.512500", "154459.300000", "154500.087500", "154500.875000", "154501.665000", "154502.452500", "154503.240000", "154504.027500", "154504.817500", "154505.605000", "154506.392500", "154507.180000", "154507.970000", "154508.757500", "154509.545000", "154510.332500", "154511.122500", "154511.910000", "154512.697500", "154513.485000", "154514.275000", "154515.062500", "154515.850000", "154516.640000", "154517.427500", "154518.215000", "154519.002500", "154519.792500", "154520.580000", "154521.367500", "154522.155000", "154522.945000", "154523.732500", "154524.520000", "154525.307500", "154526.097500", "154526.885000", "154527.672500", "154528.460000", "154529.250000", "154530.037500", "154530.825000", "154531.612500", "154532.402500", "154533.190000", "154533.977500", "154534.767500", "154535.555000", "154536.342500", "154537.130000", "154537.920000", "154538.707500", "154539.495000", "154540.282500", "154541.072500", "154541.860000", "154542.647500", "154543.435000", "154544.225000", "154545.012500", "154545.800000", "154546.587500", "154547.377500", "154548.165000", "154548.952500", "154549.740000", "154550.530000", "154551.317500", "154552.105000", "154552.895000", "154553.682500", "154554.470000", "154555.257500", "154556.047500", "154556.835000", "154557.622500", "154558.410000", "154559.200000", "154559.987500", "154600.775000", "154601.562500", "154602.352500", "154603.140000", "154603.927500", "154604.715000", "154605.505000", "154606.292500", "154607.080000", "154607.867500", "154608.657500", "154609.445000", "154610.232500", "154611.022500", "154611.810000", "154612.597500", "154613.385000", "154614.175000", "154614.962500", "154615.750000", "154616.537500", "154617.327500", "154618.115000", "154618.902500", "154619.690000", "154620.480000", "154621.267500", "154622.055000", "154622.842500", "154623.632500", "154624.420000", "154625.207500", "154625.995000", "154626.785000", "154627.572500", "154628.360000", "154629.150000", "154629.937500", "154630.725000", "154631.512500", "154632.302500", "154633.090000", "154633.877500", "154634.665000", "154635.455000", "154636.242500", "154637.030000", "154637.817500", "154638.607500", "154639.395000", "154640.182500", "154640.970000", "154641.760000", "154642.547500", "154643.335000", "154644.122500", "154644.912500", "154645.700000", "154646.487500", "154647.277500", "154648.065000", "154648.852500", "154649.640000", "154650.430000", "154651.217500", "154652.005000", "154652.792500", "154653.582500", "154654.370000", "154655.157500", "154655.945000", "154656.735000", "154657.522500", "154658.310000", "154659.097500", "154659.887500", "154700.675000", "154701.462500", "154702.252500", "154703.040000", "154703.827500", "154704.615000", "154705.405000", "154706.192500", "154706.980000", "154707.767500", "154708.557500", "154709.345000", "154710.132500", "154710.920000", "154711.710000", "154712.497500", "154713.285000", "154714.072500", "154714.862500", "154715.650000", "154716.437500", "154717.225000", "154718.015000", "154718.802500", "154719.590000", "154720.380000", "154721.167500", "154721.955000", "154722.742500", "154723.532500", "154724.320000", "154725.107500", "154725.895000", "154726.685000", "154727.472500", "154728.260000", "154729.047500", "154729.837500"],
      "ContentTime": ["154013.250000", "154013.250000", "154013.250000", "154013.250000", "154013.265000", "154013.265000", "154013.265000", "154013.265000", "154013.265000", "154013.281000", "154013.281000", "154013.281000", "154013.281000", "154013.281000", "154013.296000", "154013.296000", "154013.296000", "154013.296000", "154013.312000", "154013.312000", "154013.312000", "154013.312000", "154013.312000", "154033.218000", "154033.218000", "154033.218000", "154033.218000", "154033.234000", "154033.234000", "154033.234000", "154033.234000", "154033.234000", "154033.250000", "154033.250000", "154033.250000", "154033.250000", "154033.250000", "154033.250000", "154033.250000", "154033.265000", "154033.265000", "154033.265000", "154033.265000", "154033.265000", "154033.265000", "154033.265000", "154033.281000", "154033.281000", "154033.281000", "154053.218000", "154053.218000", "154053.218000", "154053.218000", "154053.234000", "154053.234000", "154053.234000", "154053.234000", "154053.234000", "154053.234000", "154053.234000", "154053.250000", "154053.250000", "154053.250000", "154053.250000", "154053.250000", "154053.250000", "154053.250000", "154053.265000", "154053.265000", "154053.265000", "154053.265000", "154053.265000", "154053.265000", "154053.265000", "154053.281000", "154113.218000", "154113.218000", "154113.218000", "154113.218000", "154113.234000", "154113.234000", "154113.234000", "154113.234000", "154113.234000", "154113.234000", "154113.234000", "154113.250000", "154113.250000", "154113.250000", "154113.250000", "154113.250000", "154113.250000", "154113.250000", "154113.265000", "154113.265000", "154113.265000", "154113.265000", "154113.265000", "154113.265000", "154113.265000", "154133.218000", "154133.218000", "154133.218000", "154133.218000", "154133.234000", "154133.234000", "154133.234000", "154133.234000", "154133.234000", "154133.250000", "154133.250000", "154133.250000", "154133.250000", "154133.265000", "154133.265000", "154133.265000", "154133.265000", "154133.265000", "154133.281000", "154133.281000", "154133.281000", "154133.281000", "154133.281000", "154133.281000", "154133.296000", "154153.218000", "154153.218000", "154153.218000", "154153.218000", "154153.234000", "154153.234000", "154153.234000", "154153.234000", "154153.234000", "154153.234000", "154153.234000", "154153.250000", "154153.250000", "154153.250000", "154153.250000", "154153.250000", "154153.250000", "154153.250000", "154153.265000", "154153.265000", "154153.265000", "154153.265000", "154153.265000", "154153.265000", "154153.265000", "154153.281000", "154213.218000", "154213.218000", "154213.218000", "154213.234000", "154213.234000", "154213.234000", "154213.234000", "154213.234000", "154213.234000", "154213.234000", "154213.250000", "154213.250000", "154213.250000", "154213.250000", "154213.265000", "154213.265000", "154213.265000", "154213.265000", "154213.265000", "154213.265000", "154213.265000", "154213.281000", "154213.281000", "154213.281000", "154213.281000", "154233.218000", "154233.218000", "154233.218000", "154233.218000", "154233.234000", "154233.234000", "154233.234000", "154233.234000", "154233.234000", "154233.234000", "154233.234000", "154233.250000", "154233.250000", "154233.250000", "154233.250000", "154233.250000", "154233.250000", "154233.250000", "154233.265000", "154233.265000", "154233.265000", "154233.265000", "154233.265000", "154233.265000", "154233.265000", "154233.281000", "154253.218000", "154253.218000", "154253.218000", "154253.218000", "154253.234000", "154253.234000", "154253.234000", "154253.234000", "154253.234000", "154253.250000", "154253.250000", "154253.250000", "154253.250000", "154253.250000", "154253.250000", "154253.250000", "154253.265000", "154253.265000", "154253.265000", "154253.265000", "154253.265000", "154253.265000", "154253.265000", "154253.281000", "154253.281000", "154313.218000", "154313.218000", "154313.218000", "154313.218000", "154313.234000", "154313.234000", "154313.234000", "154313.234000", "154313.234000", "154313.234000", "154313.234000", "154313.250000", "154313.250000", "154313.250000", "154313.250000", "154313.250000", "154313.250000", "154313.250000", "154313.265000", "154313.265000", "154313.265000", "154313.265000", "154313.265000", "154313.265000", "154313.281000", "154313.281000", "154333.218000", "154333.218000", "154333.218000", "154333.218000", "154333.234000", "154333.234000", "154333.234000", "154333.234000", "154333.234000", "154333.234000", "154333.234000", "154333.250000", "154333.250000", "154333.250000", "154333.250000", "154333.250000", "154333.250000", "154333.250000", "154333.265000", "154333.265000", "154333.265000", "154333.265000", "154333.265000", "154333.265000", "154333.265000", "154353.218000", "154353.218000", "154353.218000", "154353.218000", "154353.234000", "154353.234000", "154353.234000", "154353.234000", "154353.234000", "154353.234000", "154353.234000", "154353.250000", "154353.250000", "154353.250000", "154353.250000", "154353.250000", "154353.250000", "154353.250000", "154353.265000", "154353.265000", "154353.265000", "154353.265000", "154353.265000", "154353.265000", "154353.265000", "154353.281000", "154413.218000", "154413.218000", "154413.218000", "154413.218000", "154413.234000", "154413.234000", "154413.234000", "154413.234000", "154413.234000", "154413.234000", "154413.234000", "154413.250000", "154413.250000", "154413.250000", "154413.250000", "154413.250000", "154413.250000", "154413.250000", "154413.265000", "154413.265000", "154413.265000", "154413.265000", "154413.265000", "154413.281000", "154413.281000", "154433.218000", "154433.218000", "154433.218000", "154433.218000", "154433.234000", "154433.234000", "154433.234000", "154433.234000", "154433.234000", "154433.234000", "154433.234000", "154433.250000", "154433.250000", "154433.250000", "154433.250000", "154433.250000", "154433.250000", "154433.250000", "154433.265000", "154433.265000", "154433.265000", "154433.265000", "154433.265000", "154433.265000", "154433.265000", "154433.281000", "154453.218000", "154453.218000", "154453.218000", "154453.218000", "154453.234000", "154453.234000", "154453.234000", "154453.234000", "154453.234000", "154453.234000", "154453.234000", "154453.250000", "154453.250000", "154453.250000", "154453.250000", "154453.250000", "154453.250000", "154453.250000", "154453.265000", "154453.265000", "154453.265000", "154453.265000", "154453.265000", "154453.265000", "154453.265000", "154513.218000", "154513.218000", "154513.218000", "154513.218000", "154513.234000", "154513.234000", "154513.234000", "154513.234000", "154513.234000", "154513.234000", "154513.234000", "154513.250000", "154513.250000", "154513.250000", "154513.250000", "154513.250000", "154513.265000", "154513.265000", "154513.265000", "154513.265000", "154513.265000", "154513.265000", "154513.281000", "154513.281000", "154513.281000", "154513.281000", "154533.218000", "154533.218000", "154533.218000", "154533.218000", "154533.234000", "154533.234000", "154533.234000", "154533.234000", "154533.234000", "154533.234000", "154533.234000", "154533.250000", "154533.250000", "154533.250000", "154533.250000", "154533.250000", "154533.250000", "154533.250000", "154533.265000", "154533.265000", "154533.265000", "154533.265000", "154533.265000", "154533.265000", "154533.265000", "154553.218000", "154553.218000", "154553.218000", "154553.218000", "154553.234000", "154553.234000", "154553.234000", "154553.234000", "154553.234000", "154553.234000", "154553.234000", "154553.250000", "154553.250000", "154553.250000", "154553.250000", "154553.250000", "154553.250000", "154553.250000", "154553.265000", "154553.265000", "154553.265000", "154553.265000", "154553.265000", "154553.265000", "154553.265000", "154553.281000", "154613.218000", "154613.218000", "154613.218000", "154613.218000", "154613.234000", "154613.234000", "154613.234000", "154613.234000", "154613.234000", "154613.234000", "154613.234000", "154613.250000", "154613.250000", "154613.250000", "154613.250000", "154613.250000", "154613.250000", "154613.250000", "154613.265000", "154613.265000", "154613.265000", "154613.265000", "154613.265000", "154613.265000", "154613.265000", "154633.218000", "154633.218000", "154633.218000", "154633.218000", "154633.234000", "154633.234000", "154633.234000", "154633.234000", "154633.234000", "154633.234000", "154633.234000", "154633.250000", "154633.250000", "154633.250000", "154633.250000", "154633.250000", "154633.250000", "154633.265000", "154633.265000", "154633.265000", "154633.265000", "154633.281000", "154633.281000", "154633.281000", "154633.281000", "154633.296000", "154653.218000", "154653.218000", "154653.218000", "154653.218000", "154653.234000", "154653.234000", "154653.234000", "154653.234000", "154653.234000", "154653.234000", "154653.250000", "154653.250000", "154653.250000", "154653.250000", "154653.250000", "154653.250000", "154653.250000", "154653.265000", "154653.265000", "154653.265000", "154653.265000", "154653.265000", "154653.265000", "154653.265000", "154653.281000", "154713.218000", "154713.218000", "154713.218000", "154713.218000", "154713.234000", "154713.234000", "154713.234000", "154713.234000", "154713.234000", "154713.234000", "154713.234000", "154713.250000", "154713.250000", "154713.250000", "154713.250000", "154713.250000", "154713.250000", "154713.250000", "154713.265000", "154713.265000", "154713.265000", "154713.265000", "154713.265000", "154713.265000", "154713.281000", "154713.281000", "154730.500000", "154730.500000", "154730.515000", "154730.515000", "154730.515000", "154730.515000", "154730.515000", "154730.515000", "154730.515000", "154730.531000", "154730.531000", "154730.531000", "154730.531000", "154730.531000", "154730.531000", "154730.546000", "154730.546000", "154730.546000", "154730.546000", "154730.546000", "154730.546000", "154730.546000"],
