{
  "AcquisitionMatrixPE": 104,
  "AcquisitionNumber": 1,
  "AcquisitionTime": "16:02:15.725000",
  "BandwidthPerPixelPhaseEncode": 13.935,
  "BaseResolution": 104,
  "CoilString": "C:HEA;HEP",
  "ConversionSoftware": "dcm2niix",
  "ConversionSoftwareVersion": "v1.0.20210317",
  "DerivedVendorReportedEchoSpacing": 0.000690017,
  "DeviceSerialNumber": "35450",
  "DwellTime": 2.5e-06,
  "EchoTime": 0.0348,
  "EffectiveEchoSpacing": 0.000690017,
  "FlipAngle": 55,
  "ImageComments": "Unaliased MB8/PE3",
  "ImageOrientationPatientDICOM": [1, 0, 0, 0, 0.990748, 0.135716],
  "ImageType": [
    "ORIGINAL",
    "PRIMARY",
    "M",
    "MB",
    "ND",
    "MOSAIC"
],
  "ImagingFrequency": 123.235,
  "InPlanePhaseEncodingDirectionDICOM": "COL",
  "InstitutionAddress": "Univeristy Ave. 197,Newark,North East,US,07102-1814",
  "InstitutionName": "RUBIC",
  "InstitutionalDepartmentName": "Department",
  "MRAcquisitionType": "2D",
  "MagneticFieldStrength": 3,
  "Manufacturer": "Siemens",
  "ManufacturersModelName": "TrioTim",
  "Modality": "MR",
  "MultibandAccelerationFactor": 8,
  "PartialFourier": 0.875,
  "PatientPosition": "HFS",
  "PercentPhaseFOV": 100,
  "PercentSampling": 100,
  "PhaseEncodingDirection": "j-",
  "PhaseEncodingSteps": 91,
  "PhaseResolution": 1,
  "PixelBandwidth": 1923,
  "ProcedureStepDescription": "Cole^Michael",
  "ProtocolName": "cmrr_mbep2d_bold_2mm_MB8_Task_8x",
  "PulseSequenceDetails": "%CustomerSeq%\\cmrr_mbep2d_bold",
  "ReceiveCoilName": "32Ch_Head",
  "ReconMatrixPE": 104,
  "RepetitionTime": 0.785,
  "SAR": 0.113731,
  "ScanOptions": "PFP\\FS",
  "ScanningSequence": "EP",
  "SequenceName": "epfid2d1_104",
  "SequenceVariant": "SK\\SS",
  "SeriesDescription": "cmrr_mbep2d_bold_2mm_MB8_Task_8x",
  "SeriesNumber": 21,
  "ShimSetting": [2145, -403, -7279, 592, 30, -427, 83, -3],
  "SliceThickness": 2,
  "SliceTiming": [0, 0.4375, 0.0875, 0.525, 0.175, 0.6125, 0.2625, 0.7, 0.35, 0, 0.4375, 0.0875, 0.525, 0.175, 0.6125, 0.2625, 0.7, 0.35, 0, 0.4375, 0.0875, 0.525, 0.175, 0.6125, 0.2625, 0.7, 0.35, 0, 0.4375, 0.0875, 0.525, 0.175, 0.6125, 0.2625, 0.7, 0.35, 0, 0.4375, 0.0875, 0.525, 0.175, 0.6125, 0.2625, 0.7, 0.35, 0, 0.4375, 0.0875, 0.525, 0.175, 0.6125, 0.2625, 0.7, 0.35, 0, 0.4375, 0.0875, 0.525, 0.175, 0.6125, 0.2625, 0.7, 0.35, 0, 0.4375, 0.0875, 0.525, 0.175, 0.6125, 0.2625, 0.7, 0.35],
  "SoftwareVersions": "syngo MR B19",
  "SpacingBetweenSlices": 2,
  "StationName": "MRC35450",
  "TaskName": "cpro",
  "TotalReadoutTime": 0.0710717,
  "TxRefAmp": 320.856,
  "dcmmeta_affine": [
    [-2.0, 0.0, 0.0, 104.0],
    [0.0, 1.98149573802948, 0.2714311480522156, -85.66545104980469],
    [0.0, -0.2714311480522156, 1.9814956188201904, -83.46379089355469],
    [0.0, 0.0, 0.0, 1.0]
],
  "dcmmeta_reorient_transform": [
    [0.0, -1.0, 0.0, 103.0],
    [1.0, 0.0, 0.0, 0.0],
    [0.0, 0.0, 1.0, 0.0],
    [0.0, 0.0, 0.0, 1.0]
],
  "dcmmeta_shape": [104, 104, 72, 581],
  "dcmmeta_slice_dim": 2,
  "dcmmeta_version": 0.6,
  "global": {
    "const": {
      "AcquisitionMatrix": [104, 0, 0, 104],
      "AngioFlag": "N",
      "BitsAllocated": 16,
      "BitsStored": 12,
      "Columns": 936,
      "EchoNumbers": 1,
      "EchoTime": 34.8,
      "EchoTrainLength": 1,
      "FlipAngle": 55.0,
      "HighBit": 11,
      "ImageOrientationPatient": [1.0, 0.0, 0.0, 0.0, 0.99074784093424, 0.13571556905579],
      "ImagePositionPatient": [-936.0, -942.73080820075, -224.33655059032],
      "ImageType": [
        "ORIGINAL",
        "PRIMARY",
        "M",
        "MB",
        "ND",
        "MOSAIC"
],
      "ImagedNucleus": "1H",
      "ImagingFrequency": 123.234835,
      "InPlanePhaseEncodingDirection": "COL",
      "MRAcquisitionType": "2D",
      "MagneticFieldStrength": 3.0,
      "Manufacturer": "SIEMENS",
      "ManufacturerModelName": "TrioTim",
      "Modality": "MR",
      "NumberOfAverages": 1.0,
      "NumberOfPhaseEncodingSteps": 91,
      "PercentPhaseFieldOfView": 100.0,
      "PercentSampling": 100.0,
      "PerformedProcedureStepStartTime": "144623.218000",
      "PhotometricInterpretation": "MONOCHROME2",
      "PixelBandwidth": 1923.0,
      "PixelRepresentation": 0,
      "PixelSpacing": [2.0, 2.0],
      "ProtocolName": "cmrr_mbep2d_bold_2mm_MB8_Task_8x",
      "RepetitionTime": 785.0,
      "Rows": 936,
      "SAR": 0.11373092949726,
      "SamplesPerPixel": 1,
      "ScanOptions": [
        "PFP",
        "FS"
],
      "ScanningSequence": "EP",
      "SequenceName": "epfid2d1_104",
      "SequenceVariant": [
        "SK",
        "SS"
],
      "SeriesDescription": "cmrr_mbep2d_bold_2mm_MB8_Task_8x",
      "SeriesNumber": 21,
      "SeriesTime": "170706.671000",
      "SliceLocation": -94.317705038606,
      "SliceThickness": 2.0,
      "SmallestImagePixelValue": 0,
      "SoftwareVersions": "syngo MR B19",
      "SpacingBetweenSlices": 1.9999999767337,
      "SpecificCharacterSet": "ISO_IR 100",
      "StudyID": "1",
      "StudyTime": "144623.187000",
      "TransmitCoilName": "Body",
      "VariableFlipAngleFlag": "N",
      "WindowCenterWidthExplanation": "Algo1",
      "dBdt": 0.0},
    "slices": {}
  },
  "time": {
    "samples": {
      "AcquisitionNumber": [1, 2, 3, 4, 5, 6, 7, 8, 9, 10, 11, 12, 13, 14, 15, 16, 17, 18, 19, 20, 21, 22, 23, 24, 25, 26, 27, 28, 29, 30, 31, 32, 33, 34, 35, 36, 37, 38, 39, 40, 41, 42, 43, 44, 45, 46, 47, 48, 49, 50, 51, 52, 53, 54, 55, 56, 57, 58, 59, 60, 61, 62, 63, 64, 65, 66, 67, 68, 69, 70, 71, 72, 73, 74, 75, 76, 77, 78, 79, 80, 81, 82, 83, 84, 85, 86, 87, 88, 89, 90, 91, 92, 93, 94, 95, 96, 97, 98, 99, 100, 101, 102, 103, 104, 105, 106, 107, 108, 109, 110, 111, 112, 113, 114, 115, 116, 117, 118, 119, 120, 121, 122, 123, 124, 125, 126, 127, 128, 129, 130, 131, 132, 133, 134, 135, 136, 137, 138, 139, 140, 141, 142, 143, 144, 145, 146, 147, 148, 149, 150, 151, 152, 153, 154, 155, 156, 157, 158, 159, 160, 161, 162, 163, 164, 165, 166, 167, 168, 169, 170, 171, 172, 173, 174, 175, 176, 177, 178, 179, 180, 181, 182, 183, 184, 185, 186, 187, 188, 189, 190, 191, 192, 193, 194, 195, 196, 197, 198, 199, 200, 201, 202, 203, 204, 205, 206, 207, 208, 209, 210, 211, 212, 213, 214, 215, 216, 217, 218, 219, 220, 221, 222, 223, 224, 225, 226, 227, 228, 229, 230, 231, 232, 233, 234, 235, 236, 237, 238, 239, 240, 241, 242, 243, 244, 245, 246, 247, 248, 249, 250, 251, 252, 253, 254, 255, 256, 257, 258, 259, 260, 261, 262, 263, 264, 265, 266, 267, 268, 269, 270, 271, 272, 273, 274, 275, 276, 277, 278, 279, 280, 281, 282, 283, 284, 285, 286, 287, 288, 289, 290, 291, 292, 293, 294, 295, 296, 297, 298, 299, 300, 301, 302, 303, 304, 305, 306, 307, 308, 309, 310, 311, 312, 313, 314, 315, 316, 317, 318, 319, 320, 321, 322, 323, 324, 325, 326, 327, 328, 329, 330, 331, 332, 333, 334, 335, 336, 337, 338, 339, 340, 341, 342, 343, 344, 345, 346, 347, 348, 349, 350, 351, 352, 353, 354, 355, 356, 357, 358, 359, 360, 361, 362, 363, 364, 365, 366, 367, 368, 369, 370, 371, 372, 373, 374, 375, 376, 377, 378, 379, 380, 381, 382, 383, 384, 385, 386, 387, 388, 389, 390, 391, 392, 393, 394, 395, 396, 397, 398, 399, 400, 401, 402, 403, 404, 405, 406, 407, 408, 409, 410, 411, 412, 413, 414, 415, 416, 417, 418, 419, 420, 421, 422, 423, 424, 425, 426, 427, 428, 429, 430, 431, 432, 433, 434, 435, 436, 437, 438, 439, 440, 441, 442, 443, 444, 445, 446, 447, 448, 449, 450, 451, 452, 453, 454, 455, 456, 457, 458, 459, 460, 461, 462, 463, 464, 465, 466, 467, 468, 469, 470, 471, 472, 473, 474, 475, 476, 477, 478, 479, 480, 481, 482, 483, 484, 485, 486, 487, 488, 489, 490, 491, 492, 493, 494, 495, 496, 497, 498, 499, 500, 501, 502, 503, 504, 505, 506, 507, 508, 509, 510, 511, 512, 513, 514, 515, 516, 517, 518, 519, 520, 521, 522, 523, 524, 525, 526, 527, 528, 529, 530, 531, 532, 533, 534, 535, 536, 537, 538, 539, 540, 541, 542, 543, 544, 545, 546, 547, 548, 549, 550, 551, 552, 553, 554, 555, 556, 557, 558, 559, 560, 561, 562, 563, 564, 565, 566, 567, 568, 569, 570, 571, 572, 573, 574, 575, 576, 577, 578, 579, 580, 581],
      "AcquisitionTime": ["160215.725000", "160216.515000", "160217.302500", "160218.090000", "160218.877500", "160219.667500", "160220.455000", "160221.242500", "160222.030000", "160222.820000", "160223.607500", "160224.395000", "160225.182500", "160225.972500", "160226.760000", "160227.547500", "160228.337500", "160229.125000", "160229.912500", "160230.700000", "160231.490000", "160232.277500", "160233.065000", "160233.852500", "160234.642500", "160235.430000", "160236.217500", "160237.005000", "160237.795000", "160238.582500", "160239.370000", "160240.157500", "160240.947500", "160241.735000", "160242.522500", "160243.310000", "160244.100000", "160244.887500", "160245.675000", "160246.465000", "160247.252500", "160248.040000", "160248.827500", "160249.617500", "160250.405000", "160251.192500", "160251.980000", "160252.770000", "160253.557500", "160254.345000", "160255.132500", "160255.922500", "160256.710000", "160257.497500", "160258.285000", "160259.075000", "160259.862500", "160300.650000", "160301.437500", "160302.227500", "160303.015000", "160303.802500", "160304.592500", "160305.380000", "160306.167500", "160306.955000", "160307.745000", "160308.532500", "160309.320000", "160310.107500", "160310.897500", "160311.685000", "160312.472500", "160313.260000", "160314.050000", "160314.837500", "160315.625000", "160316.412500", "160317.202500", "160317.990000", "160318.777500", "160319.565000", "160320.355000", "160321.142500", "160321.930000", "160322.720000", "160323.507500", "160324.295000", "160325.082500", "160325.872500", "160326.660000", "160327.447500", "160328.235000", "160329.025000", "160329.812500", "160330.600000", "160331.387500", "160332.177500", "160332.965000", "160333.752500", "160334.540000", "160335.330000", "160336.117500", "160336.905000", "160337.692500", "160338.482500", "160339.270000", "160340.057500", "160340.847500", "160341.635000", "160342.422500", "160343.210000", "160344.000000", "160344.787500", "160345.575000", "160346.362500", "160347.152500", "160347.940000", "160348.727500", "160349.515000", "160350.305000", "160351.092500", "160351.880000", "160352.667500", "160353.457500", "160354.245000", "160355.032500", "160355.820000", "160356.610000", "160357.397500", "160358.185000", "160358.975000", "160359.762500", "160400.550000", "160401.337500", "160402.127500", "160402.915000", "160403.702500", "160404.490000", "160405.280000", "160406.067500", "160406.855000", "160407.642500", "160408.432500", "160409.220000", "160410.007500", "160410.795000", "160411.585000", "160412.372500", "160413.160000", "160413.947500", "160414.737500", "160415.525000", "160416.312500", "160417.102500", "160417.890000", "160418.677500", "160419.465000", "160420.255000", "160421.042500", "160421.830000", "160422.617500", "160423.407500", "160424.195000", "160424.982500", "160425.770000", "160426.560000", "160427.347500", "160428.135000", "160428.922500", "160429.712500", "160430.500000", "160431.287500", "160432.075000", "160432.865000", "160433.652500", "160434.440000", "160435.230000", "160436.017500", "160436.805000", "160437.592500", "160438.382500", "160439.170000", "160439.957500", "160440.745000", "160441.535000", "160442.322500", "160443.110000", "160443.897500", "160444.687500", "160445.475000", "160446.262500", "160447.050000", "160447.840000", "160448.627500", "160449.415000", "160450.205000", "160450.992500", "160451.780000", "160452.567500", "160453.357500", "160454.145000", "160454.932500", "160455.720000", "160456.510000", "160457.297500", "160458.085000", "160458.872500", "160459.662500", "160500.450000", "160501.237500", "160502.025000", "160502.815000", "160503.602500", "160504.390000", "160505.177500", "160505.967500", "160506.755000", "160507.542500", "160508.332500", "160509.120000", "160509.907500", "160510.695000", "160511.485000", "160512.272500", "160513.060000", "160513.847500", "160514.637500", "160515.425000", "160516.212500", "160517.000000", "160517.790000", "160518.577500", "160519.365000", "160520.152500", "160520.942500", "160521.730000", "160522.517500", "160523.305000", "160524.095000", "160524.882500", "160525.670000", "160526.460000", "160527.247500", "160528.035000", "160528.822500", "160529.612500", "160530.400000", "160531.187500", "160531.975000", "160532.765000", "160533.552500", "160534.340000", "160535.127500", "160535.917500", "160536.705000", "160537.492500", "160538.280000", "160539.070000", "160539.857500", "160540.645000", "160541.432500", "160542.222500", "160543.010000", "160543.797500", "160544.587500", "160545.375000", "160546.162500", "160546.950000", "160547.740000", "160548.527500", "160549.315000", "160550.102500", "160550.892500", "160551.680000", "160552.467500", "160553.255000", "160554.045000", "160554.832500", "160555.620000", "160556.407500", "160557.197500", "160557.985000", "160558.772500", "160559.560000", "160600.350000", "160601.137500", "160601.925000", "160602.715000", "160603.502500", "160604.290000", "160605.077500", "160605.867500", "160606.655000", "160607.442500", "160608.230000", "160609.020000", "160609.807500", "160610.595000", "160611.382500", "160612.172500", "160612.960000", "160613.747500", "160614.535000", "160615.325000", "160616.112500", "160616.900000", "160617.687500", "160618.477500", "160619.265000", "160620.052500", "160620.842500", "160621.630000", "160622.417500", "160623.205000", "160623.995000", "160624.782500", "160625.570000", "160626.357500", "160627.147500", "160627.935000", "160628.722500", "160629.510000", "160630.300000", "160631.087500", "160631.875000", "160632.662500", "160633.452500", "160634.240000", "160635.027500", "160635.815000", "160636.605000", "160637.392500", "160638.180000", "160638.970000", "160639.757500", "160640.545000", "160641.332500", "160642.122500", "160642.910000", "160643.697500", "160644.485000", "160645.275000", "160646.062500", "160646.850000", "160647.637500", "160648.427500", "160649.215000", "160650.002500", "160650.790000", "160651.580000", "160652.367500", "160653.155000", "160653.942500", "160654.732500", "160655.520000", "160656.307500", "160657.097500", "160657.885000", "160658.672500", "160659.460000", "160700.250000", "160701.037500", "160701.825000", "160702.612500", "160703.402500", "160704.190000", "160704.977500", "160705.765000", "160706.555000", "160707.342500", "160708.130000", "160708.917500", "160709.707500", "160710.495000", "160711.282500", "160712.070000", "160712.860000", "160713.647500", "160714.435000", "160715.225000", "160716.012500", "160716.800000", "160717.587500", "160718.377500", "160719.165000", "160719.952500", "160720.740000", "160721.530000", "160722.317500", "160723.105000", "160723.892500", "160724.682500", "160725.470000", "160726.257500", "160727.045000", "160727.835000", "160728.622500", "160729.410000", "160730.197500", "160730.987500", "160731.775000", "160732.562500", "160733.352500", "160734.140000", "160734.927500", "160735.715000", "160736.505000", "160737.292500", "160738.080000", "160738.867500", "160739.657500", "160740.445000", "160741.232500", "160742.020000", "160742.810000", "160743.597500", "160744.385000", "160745.172500", "160745.962500", "160746.750000", "160747.537500", "160748.325000", "160749.115000", "160749.902500", "160750.690000", "160751.480000", "160752.267500", "160753.055000", "160753.842500", "160754.632500", "160755.420000", "160756.207500", "160756.995000", "160757.785000", "160758.572500", "160759.360000", "160800.147500", "160800.937500", "160801.725000", "160802.512500", "160803.300000", "160804.090000", "160804.877500", "160805.665000", "160806.455000", "160807.242500", "160808.030000", "160808.817500", "160809.607500", "160810.395000", "160811.182500", "160811.970000", "160812.760000", "160813.547500", "160814.335000", "160815.122500", "160815.912500", "160816.700000", "160817.487500", "160818.275000", "160819.065000", "160819.852500", "160820.640000", "160821.427500", "160822.217500", "160823.005000", "160823.792500", "160824.582500", "160825.370000", "160826.157500", "160826.945000", "160827.735000", "160828.522500", "160829.310000", "160830.097500", "160830.887500", "160831.675000", "160832.462500", "160833.250000", "160834.040000", "160834.827500", "160835.615000", "160836.402500", "160837.192500", "160837.980000", "160838.767500", "160839.555000", "160840.345000", "160841.132500", "160841.920000", "160842.710000", "160843.497500", "160844.285000", "160845.072500", "160845.862500", "160846.650000", "160847.437500", "160848.225000", "160849.015000", "160849.802500", "160850.590000", "160851.377500", "160852.167500", "160852.955000", "160853.742500", "160854.530000", "160855.320000", "160856.107500", "160856.895000", "160857.682500", "160858.472500", "160859.260000", "160900.047500", "160900.837500", "160901.625000", "160902.412500", "160903.200000", "160903.990000", "160904.777500", "160905.565000", "160906.352500", "160907.142500", "160907.930000", "160908.717500", "160909.505000", "160910.295000", "160911.082500", "160911.870000", "160912.657500", "160913.447500", "160914.235000", "160915.022500", "160915.810000", "160916.600000", "160917.387500", "160918.175000", "160918.965000", "160919.752500", "160920.540000", "160921.327500", "160922.117500", "160922.905000", "160923.692500", "160924.480000", "160925.270000", "160926.057500", "160926.845000", "160927.632500", "160928.422500", "160929.210000", "160929.997500", "160930.785000", "160931.575000", "160932.362500", "160933.150000", "160933.937500", "160934.727500", "160935.515000", "160936.302500", "160937.092500", "160937.880000", "160938.667500", "160939.455000", "160940.245000", "160941.032500", "160941.820000", "160942.607500", "160943.397500", "160944.185000", "160944.972500", "160945.760000", "160946.550000", "160947.337500", "160948.125000", "160948.912500", "160949.702500", "160950.490000", "160951.277500", "160952.065000", "160952.855000"],
      "ContentTime": ["170706.671000", "170706.671000", "170706.687000", "170806.640000", "170806.656000", "170806.656000", "170806.656000", "170806.656000", "170806.656000", "170806.656000", "170806.656000", "170806.671000", "170806.671000", "170806.671000", "170806.671000", "170806.671000", "170806.687000", "170806.687000", "170806.687000", "170806.687000", "170806.687000", "170806.687000", "170806.703000", "170806.703000", "170806.703000", "170806.703000", "170806.703000", "170806.703000", "170806.703000", "170806.718000", "170806.718000", "170806.718000", "170906.640000", "170906.656000", "170906.656000", "170906.656000", "170906.656000", "170906.656000", "170906.656000", "170906.656000", "170906.671000", "170906.671000", "170906.671000", "170906.671000", "170906.687000", "170906.687000", "170906.687000", "170906.687000", "170906.687000", "170906.687000", "170906.687000", "170906.703000", "170906.703000", "170906.703000", "170906.703000", "170906.703000", "170906.718000", "170906.718000", "170906.718000", "170906.718000", "171006.640000", "171006.656000", "171006.656000", "171006.656000", "171006.671000", "171006.671000", "171006.671000", "171006.671000", "171006.671000", "171006.671000", "171006.687000", "171006.687000", "171006.687000", "171006.687000", "171006.687000", "171006.687000", "171006.687000", "171006.703000", "171006.703000", "171006.703000", "171006.703000", "171006.718000", "171006.718000", "171006.718000", "171006.718000", "171006.718000", "171006.718000", "171006.718000", "171106.640000", "171106.656000", "171106.656000", "171106.656000", "171106.656000", "171106.656000", "171106.656000", "171106.656000", "171106.671000", "171106.671000", "171106.671000", "171106.671000", "171106.671000", "171106.671000", "171106.687000", "171106.687000", "171106.687000", "171106.687000", "171106.703000", "171106.703000", "171106.703000", "171106.703000", "171106.703000", "171106.703000", "171106.703000", "171106.718000", "171106.718000", "171106.718000", "171106.718000", "171206.640000", "171206.656000", "171206.656000", "171206.656000", "171206.656000", "171206.656000", "171206.656000", "171206.656000", "171206.671000", "171206.671000", "171206.671000", "171206.687000", "171206.687000", "171206.687000", "171206.687000", "171206.687000", "171206.687000", "171206.687000", "171206.703000", "171206.703000", "171206.703000", "171206.703000", "171206.703000", "171206.703000", "171206.703000", "171206.718000", "171206.718000", "171206.734000", "171226.640000", "171226.656000", "171226.656000", "171226.656000", "171226.656000", "171226.656000", "171226.656000", "171226.656000", "171226.671000", "171326.640000", "171326.656000", "171326.656000", "171326.656000", "171326.656000", "171326.656000", "171326.656000", "171326.671000", "171326.671000", "171326.671000", "171326.687000", "171326.687000", "171326.687000", "171326.687000", "171326.687000", "171326.687000", "171326.687000", "171326.703000", "171326.703000", "171326.703000", "171326.703000", "171326.703000", "171326.718000", "171326.718000", "171326.718000", "171326.734000", "171326.734000", "171326.734000", "171326.734000", "171426.640000", "171426.656000", "171426.656000", "171426.656000", "171426.656000", "171426.671000", "171426.671000", "171426.671000", "171426.671000", "171426.671000", "171426.671000", "171426.671000", "171426.687000", "171426.687000", "171426.687000", "171426.687000", "171426.687000", "171426.687000", "171426.687000", "171426.703000", "171426.703000", "171426.703000", "171426.703000", "171426.718000", "171426.718000", "171426.718000", "171426.718000", "171426.718000", "171526.640000", "171526.656000", "171526.656000", "171526.656000", "171526.656000", "171526.656000", "171526.656000", "171526.671000", "171526.671000", "171526.671000", "171526.671000", "171526.671000", "171526.671000", "171526.718000", "171526.718000", "171526.718000", "171526.734000", "171526.734000", "171526.734000", "171526.734000", "171526.734000", "171526.734000", "171526.734000", "171526.750000", "171526.750000", "171526.750000", "171526.750000", "171526.750000", "171626.640000", "171626.656000", "171626.656000", "171626.656000", "171626.656000", "171626.656000", "171626.656000", "171626.671000", "171626.671000", "171626.671000", "171626.687000", "171626.687000", "171626.687000", "171626.687000", "171626.687000", "171626.687000", "171626.687000", "171626.703000", "171626.703000", "171626.703000", "171626.703000", "171626.703000", "171626.703000", "171626.703000", "171626.718000", "171626.718000", "171626.718000", "171626.718000", "171626.734000", "171726.640000", "171726.656000", "171726.656000", "171726.656000", "171726.656000", "171726.671000", "171726.671000", "171726.671000", "171726.671000", "171726.671000", "171726.671000", "171726.671000", "171726.687000", "171726.687000", "171726.687000", "171726.687000", "171726.687000", "171726.687000", "171726.687000", "171726.703000", "171726.703000", "171726.703000", "171726.703000", "171726.718000", "171726.718000", "171726.718000", "171726.718000", "171726.718000", "171826.640000", "171826.656000", "171826.656000", "171826.656000", "171826.656000", "171826.656000", "171826.656000", "171826.671000", "171826.671000", "171826.671000", "171826.671000", "171826.671000", "171826.671000", "171826.671000", "171826.687000", "171826.687000", "171826.687000", "171826.703000", "171826.703000", "171826.703000", "171826.703000", "171826.703000", "171826.703000", "171826.703000", "171826.718000", "171826.718000", "171826.718000", "171826.718000", "171926.640000", "171926.656000", "171926.656000", "171926.656000", "171926.656000", "171926.656000", "171926.656000", "171926.656000", "171926.671000", "171926.671000", "171926.671000", "171926.671000", "171926.687000", "171926.687000", "171926.687000", "171926.687000", "171926.687000", "171926.687000", "171926.687000", "171926.703000", "171926.703000", "171926.703000", "171926.703000", "171926.703000", "171926.703000", "171926.718000", "171926.718000", "171926.734000", "171926.734000", "172026.640000", "172026.656000", "172026.656000", "172026.656000", "172026.656000", "172026.671000", "172026.671000", "172026.671000", "172026.671000", "172026.671000", "172026.671000", "172026.671000", "172026.687000", "172026.687000", "172026.687000", "172026.687000", "172026.687000", "172026.687000", "172026.687000", "172026.703000", "172026.703000", "172026.703000", "172026.703000", "172026.718000", "172026.718000", "172026.718000", "172026.718000", "172026.718000", "172126.640000", "172126.656000", "172126.656000", "172126.656000", "172126.656000", "172126.656000", "172126.656000", "172126.671000", "172126.671000", "172126.671000", "172126.671000", "172126.671000", "172126.671000", "172126.671000", "172126.671000", "172126.687000", "172126.687000", "172126.687000", "172126.687000", "172126.687000", "172126.703000", "172126.703000", "172126.703000", "172126.703000", "172126.703000", "172126.703000", "172126.703000", "172126.718000", "172226.640000", "172226.656000", "172226.656000", "172226.656000", "172226.656000", "172226.656000", "172226.656000", "172226.671000", "172226.671000", "172226.671000", "172226.671000", "172226.687000", "172226.687000", "172226.687000", "172226.687000", "172226.687000", "172226.687000", "172226.687000", "172226.687000", "172226.703000", "172226.703000", "172226.703000", "172226.703000", "172226.703000", "172226.703000", "172226.703000", "172226.718000", "172226.718000", "172226.718000", "172326.640000", "172326.656000", "172326.656000", "172326.656000", "172326.656000", "172326.656000", "172326.671000", "172326.671000", "172326.671000", "172326.671000", "172326.671000", "172326.687000", "172326.687000", "172326.687000", "172326.687000", "172326.687000", "172326.687000", "172326.687000", "172326.703000", "172326.703000", "172326.703000", "172326.703000", "172326.703000", "172326.718000", "172326.718000", "172326.718000", "172326.718000", "172326.718000", "172426.640000", "172426.656000", "172426.656000", "172426.656000", "172426.656000", "172426.656000", "172426.656000", "172426.656000", "172426.671000", "172426.671000", "172426.671000", "172426.671000", "172426.671000", "172426.671000", "172426.687000", "172426.687000", "172426.687000", "172426.703000", "172426.703000", "172426.703000", "172426.703000", "172426.703000", "172426.703000", "172426.718000", "172426.718000", "172426.718000", "172426.718000", "172426.718000", "172426.734000", "172526.640000", "172526.656000", "172526.656000", "172526.656000", "172526.656000", "172526.656000", "172526.656000", "172526.671000", "172526.671000", "172526.671000", "172526.671000", "172526.687000", "172526.687000", "172526.687000", "172526.687000", "172526.687000", "172526.687000", "172526.703000", "172526.703000", "172526.703000", "172526.703000", "172526.703000", "172526.718000", "172526.718000", "172526.718000", "172526.718000", "172526.718000", "172526.734000", "172626.640000", "172626.656000", "172626.656000", "172626.656000", "172626.656000", "172626.656000", "172626.656000", "172626.671000", "172626.671000", "172626.671000", "172626.671000", "172626.671000", "172626.671000", "172626.671000", "172626.687000", "172626.687000", "172626.687000", "172626.687000", "172626.687000", "172626.703000", "172626.703000", "172626.703000", "172626.703000", "172626.718000", "172626.718000", "172626.718000", "172626.718000", "172626.718000", "172726.640000", "172726.656000", "172726.656000", "172726.671000", "172726.671000", "172726.671000", "172726.671000", "172726.671000", "172726.671000", "172726.671000", "172726.687000", "172726.687000", "172726.687000", "172726.687000", "172726.687000", "172726.687000", "172726.703000", "172726.703000", "172726.718000", "172726.718000", "172726.718000", "172726.718000", "172726.718000", "172726.718000", "172726.718000", "172726.734000", "172726.734000", "172726.734000", "172726.734000", "172728.218000"],
