{
  "AcquisitionMatrixPE": 104,
  "AcquisitionNumber": 1,
  "AcquisitionTime": "15:43:26.742500",
  "BandwidthPerPixelPhaseEncode": 13.935,
  "BaseResolution": 104,
  "CoilString": "C:HEA;HEP",
  "ConversionSoftware": "dcm2niix",
  "ConversionSoftwareVersion": "v1.0.20210317",
  "DerivedVendorReportedEchoSpacing": 0.000690017,
  "DeviceSerialNumber": "35450",
  "DwellTime": 2.5e-06,
  "EchoTime": 0.0348,
  "EffectiveEchoSpacing": 0.000690017,
  "FlipAngle": 55,
  "ImageComments": "Unaliased MB8/PE3",
  "ImageOrientationPatientDICOM": [1, 0, 0, 0, 0.990748, 0.135716],
  "ImageType": [
    "ORIGINAL",
    "PRIMARY",
    "M",
    "MB",
    "ND",
    "MOSAIC"
],
  "ImagingFrequency": 123.235,
  "InPlanePhaseEncodingDirectionDICOM": "COL",
  "InstitutionAddress": "Univeristy Ave. 197,Newark,North East,US,07102-1814",
  "InstitutionName": "RUBIC",
  "InstitutionalDepartmentName": "Department",
  "MRAcquisitionType": "2D",
  "MagneticFieldStrength": 3,
  "Manufacturer": "Siemens",
  "ManufacturersModelName": "TrioTim",
  "Modality": "MR",
  "MultibandAccelerationFactor": 8,
  "PartialFourier": 0.875,
  "PatientPosition": "HFS",
  "PercentPhaseFOV": 100,
  "PercentSampling": 100,
  "PhaseEncodingDirection": "j-",
  "PhaseEncodingSteps": 91,
  "PhaseResolution": 1,
  "PixelBandwidth": 1923,
  "ProcedureStepDescription": "Cole^Michael",
  "ProtocolName": "cmrr_mbep2d_bold_2mm_MB8_Task_8x",
  "PulseSequenceDetails": "%CustomerSeq%\\cmrr_mbep2d_bold",
  "ReceiveCoilName": "32Ch_Head",
  "ReconMatrixPE": 104,
  "RepetitionTime": 0.785,
  "SAR": 0.113731,
  "ScanOptions": "PFP\\FS",
  "ScanningSequence": "EP",
  "SequenceName": "epfid2d1_104",
  "SequenceVariant": "SK\\SS",
  "SeriesDescription": "cmrr_mbep2d_bold_2mm_MB8_Task_8x",
  "SeriesNumber": 17,
  "ShimSetting": [2145, -403, -7279, 592, 30, -427, 83, -3],
  "SliceThickness": 2,
  "SliceTiming": [0, 0.4375, 0.0875, 0.525, 0.175, 0.6125, 0.2625, 0.7, 0.35, 0, 0.4375, 0.0875, 0.525, 0.175, 0.6125, 0.2625, 0.7, 0.35, 0, 0.4375, 0.0875, 0.525, 0.175, 0.6125, 0.2625, 0.7, 0.35, 0, 0.4375, 0.0875, 0.525, 0.175, 0.6125, 0.2625, 0.7, 0.35, 0, 0.4375, 0.0875, 0.525, 0.175, 0.6125, 0.2625, 0.7, 0.35, 0, 0.4375, 0.0875, 0.525, 0.175, 0.6125, 0.2625, 0.7, 0.35, 0, 0.4375, 0.0875, 0.525, 0.175, 0.6125, 0.2625, 0.7, 0.35, 0, 0.4375, 0.0875, 0.525, 0.175, 0.6125, 0.2625, 0.7, 0.35],
  "SoftwareVersions": "syngo MR B19",
  "SpacingBetweenSlices": 2,
  "StationName": "MRC35450",
  "TaskName": "cpro",
  "TotalReadoutTime": 0.0710717,
  "TxRefAmp": 320.856,
  "dcmmeta_affine": [
    [-2.0, 0.0, 0.0, 104.0],
    [0.0, 1.98149573802948, 0.2714311480522156, -85.66545104980469],
    [0.0, -0.2714311480522156, 1.9814956188201904, -83.46379089355469],
    [0.0, 0.0, 0.0, 1.0]
],
  "dcmmeta_reorient_transform": [
    [0.0, -1.0, 0.0, 103.0],
    [1.0, 0.0, 0.0, 0.0],
    [0.0, 0.0, 1.0, 0.0],
    [0.0, 0.0, 0.0, 1.0]
],
  "dcmmeta_shape": [104, 104, 72, 581],
  "dcmmeta_slice_dim": 2,
  "dcmmeta_version": 0.6,
  "global": {
    "const": {
      "AcquisitionMatrix": [104, 0, 0, 104],
      "AngioFlag": "N",
      "BitsAllocated": 16,
      "BitsStored": 12,
      "Columns": 936,
      "EchoNumbers": 1,
      "EchoTime": 34.8,
      "EchoTrainLength": 1,
      "FlipAngle": 55.0,
      "HighBit": 11,
      "ImageOrientationPatient": [1.0, 0.0, 0.0, 0.0, 0.99074784093424, 0.13571556905579],
      "ImagePositionPatient": [-936.0, -942.73080820075, -224.33655059032],
      "ImageType": [
        "ORIGINAL",
        "PRIMARY",
        "M",
        "MB",
        "ND",
        "MOSAIC"
],
      "ImagedNucleus": "1H",
      "ImagingFrequency": 123.234835,
      "InPlanePhaseEncodingDirection": "COL",
      "MRAcquisitionType": "2D",
      "MagneticFieldStrength": 3.0,
      "Manufacturer": "SIEMENS",
      "ManufacturerModelName": "TrioTim",
      "Modality": "MR",
      "NumberOfAverages": 1.0,
      "NumberOfPhaseEncodingSteps": 91,
      "PercentPhaseFieldOfView": 100.0,
      "PercentSampling": 100.0,
      "PerformedProcedureStepStartTime": "144623.218000",
      "PhotometricInterpretation": "MONOCHROME2",
      "PixelBandwidth": 1923.0,
      "PixelRepresentation": 0,
      "PixelSpacing": [2.0, 2.0],
      "ProtocolName": "cmrr_mbep2d_bold_2mm_MB8_Task_8x",
      "RepetitionTime": 785.0,
      "Rows": 936,
      "SAR": 0.11373092949726,
      "SamplesPerPixel": 1,
      "ScanOptions": [
        "PFP",
        "FS"
],
      "ScanningSequence": "EP",
      "SequenceName": "epfid2d1_104",
      "SequenceVariant": [
        "SK",
        "SS"
],
      "SeriesDescription": "cmrr_mbep2d_bold_2mm_MB8_Task_8x",
      "SeriesNumber": 17,
      "SeriesTime": "162457.125000",
      "SliceLocation": -94.317705038606,
      "SliceThickness": 2.0,
      "SmallestImagePixelValue": 0,
      "SoftwareVersions": "syngo MR B19",
      "SpacingBetweenSlices": 1.9999999767337,
      "SpecificCharacterSet": "ISO_IR 100",
      "StudyID": "1",
      "StudyTime": "144623.187000",
      "TransmitCoilName": "Body",
      "VariableFlipAngleFlag": "N",
      "WindowCenterWidthExplanation": "Algo1",
      "dBdt": 0.0},
    "slices": {}
  },
  "time": {
    "samples": {
      "AcquisitionNumber": [1, 2, 3, 4, 5, 6, 7, 8, 9, 10, 11, 12, 13, 14, 15, 16, 17, 18, 19, 20, 21, 22, 23, 24, 25, 26, 27, 28, 29, 30, 31, 32, 33, 34, 35, 36, 37, 38, 39, 40, 41, 42, 43, 44, 45, 46, 47, 48, 49, 50, 51, 52, 53, 54, 55, 56, 57, 58, 59, 60, 61, 62, 63, 64, 65, 66, 67, 68, 69, 70, 71, 72, 73, 74, 75, 76, 77, 78, 79, 80, 81, 82, 83, 84, 85, 86, 87, 88, 89, 90, 91, 92, 93, 94, 95, 96, 97, 98, 99, 100, 101, 102, 103, 104, 105, 106, 107, 108, 109, 110, 111, 112, 113, 114, 115, 116, 117, 118, 119, 120, 121, 122, 123, 124, 125, 126, 127, 128, 129, 130, 131, 132, 133, 134, 135, 136, 137, 138, 139, 140, 141, 142, 143, 144, 145, 146, 147, 148, 149, 150, 151, 152, 153, 154, 155, 156, 157, 158, 159, 160, 161, 162, 163, 164, 165, 166, 167, 168, 169, 170, 171, 172, 173, 174, 175, 176, 177, 178, 179, 180, 181, 182, 183, 184, 185, 186, 187, 188, 189, 190, 191, 192, 193, 194, 195, 196, 197, 198, 199, 200, 201, 202, 203, 204, 205, 206, 207, 208, 209, 210, 211, 212, 213, 214, 215, 216, 217, 218, 219, 220, 221, 222, 223, 224, 225, 226, 227, 228, 229, 230, 231, 232, 233, 234, 235, 236, 237, 238, 239, 240, 241, 242, 243, 244, 245, 246, 247, 248, 249, 250, 251, 252, 253, 254, 255, 256, 257, 258, 259, 260, 261, 262, 263, 264, 265, 266, 267, 268, 269, 270, 271, 272, 273, 274, 275, 276, 277, 278, 279, 280, 281, 282, 283, 284, 285, 286, 287, 288, 289, 290, 291, 292, 293, 294, 295, 296, 297, 298, 299, 300, 301, 302, 303, 304, 305, 306, 307, 308, 309, 310, 311, 312, 313, 314, 315, 316, 317, 318, 319, 320, 321, 322, 323, 324, 325, 326, 327, 328, 329, 330, 331, 332, 333, 334, 335, 336, 337, 338, 339, 340, 341, 342, 343, 344, 345, 346, 347, 348, 349, 350, 351, 352, 353, 354, 355, 356, 357, 358, 359, 360, 361, 362, 363, 364, 365, 366, 367, 368, 369, 370, 371, 372, 373, 374, 375, 376, 377, 378, 379, 380, 381, 382, 383, 384, 385, 386, 387, 388, 389, 390, 391, 392, 393, 394, 395, 396, 397, 398, 399, 400, 401, 402, 403, 404, 405, 406, 407, 408, 409, 410, 411, 412, 413, 414, 415, 416, 417, 418, 419, 420, 421, 422, 423, 424, 425, 426, 427, 428, 429, 430, 431, 432, 433, 434, 435, 436, 437, 438, 439, 440, 441, 442, 443, 444, 445, 446, 447, 448, 449, 450, 451, 452, 453, 454, 455, 456, 457, 458, 459, 460, 461, 462, 463, 464, 465, 466, 467, 468, 469, 470, 471, 472, 473, 474, 475, 476, 477, 478, 479, 480, 481, 482, 483, 484, 485, 486, 487, 488, 489, 490, 491, 492, 493, 494, 495, 496, 497, 498, 499, 500, 501, 502, 503, 504, 505, 506, 507, 508, 509, 510, 511, 512, 513, 514, 515, 516, 517, 518, 519, 520, 521, 522, 523, 524, 525, 526, 527, 528, 529, 530, 531, 532, 533, 534, 535, 536, 537, 538, 539, 540, 541, 542, 543, 544, 545, 546, 547, 548, 549, 550, 551, 552, 553, 554, 555, 556, 557, 558, 559, 560, 561, 562, 563, 564, 565, 566, 567, 568, 569, 570, 571, 572, 573, 574, 575, 576, 577, 578, 579, 580, 581],
      "AcquisitionTime": ["154326.742500", "154327.530000", "154328.317500", "154329.105000", "154329.895000", "154330.682500", "154331.470000", "154332.257500", "154333.047500", "154333.835000", "154334.622500", "154335.410000", "154336.200000", "154336.987500", "154337.775000", "154338.562500", "154339.352500", "154340.140000", "154340.927500", "154341.717500", "154342.505000", "154343.292500", "154344.080000", "154344.870000", "154345.657500", "154346.445000", "154347.232500", "154348.022500", "154348.810000", "154349.597500", "154350.385000", "154351.175000", "154351.962500", "154352.750000", "154353.537500", "154354.327500", "154355.115000", "154355.902500", "154356.690000", "154357.480000", "154358.267500", "154359.055000", "154359.845000", "154400.632500", "154401.420000", "154402.207500", "154402.997500", "154403.785000", "154404.572500", "154405.360000", "154406.150000", "154406.937500", "154407.725000", "154408.512500", "154409.302500", "154410.090000", "154410.877500", "154411.665000", "154412.455000", "154413.242500", "154414.030000", "154414.817500", "154415.607500", "154416.395000", "154417.182500", "154417.972500", "154418.760000", "154419.547500", "154420.335000", "154421.125000", "154421.912500", "154422.700000", "154423.487500", "154424.277500", "154425.065000", "154425.852500", "154426.640000", "154427.430000", "154428.217500", "154429.005000", "154429.792500", "154430.582500", "154431.370000", "154432.157500", "154432.945000", "154433.735000", "154434.522500", "154435.310000", "154436.100000", "154436.887500", "154437.675000", "154438.462500", "154439.252500", "154440.040000", "154440.827500", "154441.615000", "154442.405000", "154443.192500", "154443.980000", "154444.767500", "154445.557500", "154446.345000", "154447.132500", "154447.920000", "154448.710000", "154449.497500", "154450.285000", "154451.072500", "154451.862500", "154452.650000", "154453.437500", "154454.227500", "154455.015000", "154455.802500", "154456.590000", "154457.380000", "154458.167500", "154458.955000", "154459.742500", "154500.532500", "154501.320000", "154502.107500", "154502.895000", "154503.685000", "154504.472500", "154505.260000", "154506.047500", "154506.837500", "154507.625000", "154508.412500", "154509.200000", "154509.990000", "154510.777500", "154511.565000", "154512.355000", "154513.142500", "154513.930000", "154514.717500", "154515.507500", "154516.295000", "154517.082500", "154517.870000", "154518.660000", "154519.447500", "154520.235000", "154521.022500", "154521.812500", "154522.600000", "154523.387500", "154524.175000", "154524.965000", "154525.752500", "154526.540000", "154527.327500", "154528.117500", "154528.905000", "154529.692500", "154530.482500", "154531.270000", "154532.057500", "154532.845000", "154533.635000", "154534.422500", "154535.210000", "154535.997500", "154536.787500", "154537.575000", "154538.362500", "154539.150000", "154539.940000", "154540.727500", "154541.515000", "154542.302500", "154543.092500", "154543.880000", "154544.667500", "154545.455000", "154546.245000", "154547.032500", "154547.820000", "154548.610000", "154549.397500", "154550.185000", "154550.972500", "154551.762500", "154552.550000", "154553.337500", "154554.125000", "154554.915000", "154555.702500", "154556.490000", "154557.277500", "154558.067500", "154558.855000", "154559.642500", "154600.430000", "154601.220000", "154602.007500", "154602.795000", "154603.582500", "154604.372500", "154605.160000", "154605.947500", "154606.737500", "154607.525000", "154608.312500", "154609.100000", "154609.890000", "154610.677500", "154611.465000", "154612.252500", "154613.042500", "154613.830000", "154614.617500", "154615.405000", "154616.195000", "154616.982500", "154617.770000", "154618.557500", "154619.347500", "154620.135000", "154620.922500", "154621.710000", "154622.500000", "154623.287500", "154624.075000", "154624.865000", "154625.652500", "154626.440000", "154627.227500", "154628.017500", "154628.805000", "154629.592500", "154630.380000", "154631.170000", "154631.957500", "154632.745000", "154633.532500", "154634.322500", "154635.110000", "154635.897500", "154636.685000", "154637.475000", "154638.262500", "154639.050000", "154639.837500", "154640.627500", "154641.415000", "154642.202500", "154642.992500", "154643.780000", "154644.567500", "154645.355000", "154646.145000", "154646.932500", "154647.720000", "154648.507500", "154649.297500", "154650.085000", "154650.872500", "154651.660000", "154652.450000", "154653.237500", "154654.025000", "154654.812500", "154655.602500", "154656.390000", "154657.177500", "154657.967500", "154658.755000", "154659.542500", "154700.330000", "154701.120000", "154701.907500", "154702.695000", "154703.482500", "154704.272500", "154705.060000", "154705.847500", "154706.635000", "154707.425000", "154708.212500", "154709.000000", "154709.787500", "154710.577500", "154711.365000", "154712.152500", "154712.940000", "154713.730000", "154714.517500", "154715.305000", "154716.095000", "154716.882500", "154717.670000", "154718.457500", "154719.247500", "154720.035000", "154720.822500", "154721.610000", "154722.400000", "154723.187500", "154723.975000", "154724.762500", "154725.552500", "154726.340000", "154727.127500", "154727.915000", "154728.705000", "154729.492500", "154730.280000", "154731.067500", "154731.857500", "154732.645000", "154733.432500", "154734.222500", "154735.010000", "154735.797500", "154736.585000", "154737.375000", "154738.162500", "154738.950000", "154739.737500", "154740.527500", "154741.315000", "154742.102500", "154742.890000", "154743.680000", "154744.467500", "154745.255000", "154746.042500", "154746.832500", "154747.620000", "154748.407500", "154749.195000", "154749.985000", "154750.772500", "154751.560000", "154752.350000", "154753.137500", "154753.925000", "154754.712500", "154755.502500", "154756.290000", "154757.077500", "154757.865000", "154758.655000", "154759.442500", "154800.230000", "154801.017500", "154801.807500", "154802.595000", "154803.382500", "154804.170000", "154804.960000", "154805.747500", "154806.535000", "154807.322500", "154808.112500", "154808.900000", "154809.687500", "154810.477500", "154811.265000", "154812.052500", "154812.840000", "154813.630000", "154814.417500", "154815.205000", "154815.992500", "154816.782500", "154817.570000", "154818.357500", "154819.145000", "154819.935000", "154820.722500", "154821.510000", "154822.297500", "154823.087500", "154823.875000", "154824.662500", "154825.450000", "154826.240000", "154827.027500", "154827.815000", "154828.605000", "154829.392500", "154830.180000", "154830.967500", "154831.757500", "154832.545000", "154833.332500", "154834.120000", "154834.910000", "154835.697500", "154836.485000", "154837.272500", "154838.062500", "154838.850000", "154839.637500", "154840.425000", "154841.215000", "154842.002500", "154842.790000", "154843.577500", "154844.367500", "154845.155000", "154845.942500", "154846.732500", "154847.520000", "154848.307500", "154849.095000", "154849.885000", "154850.672500", "154851.460000", "154852.247500", "154853.037500", "154853.825000", "154854.612500", "154855.400000", "154856.190000", "154856.977500", "154857.765000", "154858.552500", "154859.342500", "154900.130000", "154900.917500", "154901.705000", "154902.495000", "154903.282500", "154904.070000", "154904.860000", "154905.647500", "154906.435000", "154907.222500", "154908.012500", "154908.800000", "154909.587500", "154910.375000", "154911.165000", "154911.952500", "154912.740000", "154913.527500", "154914.317500", "154915.105000", "154915.892500", "154916.680000", "154917.470000", "154918.257500", "154919.045000", "154919.832500", "154920.622500", "154921.410000", "154922.197500", "154922.987500", "154923.775000", "154924.562500", "154925.350000", "154926.140000", "154926.927500", "154927.715000", "154928.502500", "154929.292500", "154930.080000", "154930.867500", "154931.655000", "154932.445000", "154933.232500", "154934.020000", "154934.807500", "154935.597500", "154936.385000", "154937.172500", "154937.960000", "154938.750000", "154939.537500", "154940.325000", "154941.115000", "154941.902500", "154942.690000", "154943.477500", "154944.267500", "154945.055000", "154945.842500", "154946.630000", "154947.420000", "154948.207500", "154948.995000", "154949.782500", "154950.572500", "154951.360000", "154952.147500", "154952.935000", "154953.725000", "154954.512500", "154955.300000", "154956.087500", "154956.877500", "154957.665000", "154958.452500", "154959.242500", "155000.030000", "155000.817500", "155001.605000", "155002.395000", "155003.182500", "155003.970000", "155004.757500", "155005.547500", "155006.335000", "155007.122500", "155007.910000", "155008.700000", "155009.487500", "155010.275000", "155011.062500", "155011.852500", "155012.640000", "155013.427500", "155014.217500", "155015.005000", "155015.792500", "155016.580000", "155017.370000", "155018.157500", "155018.945000", "155019.732500", "155020.522500", "155021.310000", "155022.097500", "155022.885000", "155023.675000", "155024.462500", "155025.250000", "155026.037500", "155026.827500", "155027.615000", "155028.402500", "155029.190000", "155029.980000", "155030.767500", "155031.555000", "155032.345000", "155033.132500", "155033.920000", "155034.707500", "155035.497500", "155036.285000", "155037.072500", "155037.860000", "155038.650000", "155039.437500", "155040.225000", "155041.012500", "155041.802500", "155042.590000", "155043.377500", "155044.165000", "155044.955000", "155045.742500", "155046.530000", "155047.317500", "155048.107500", "155048.895000", "155049.682500", "155050.472500", "155051.260000", "155052.047500", "155052.835000", "155053.625000", "155054.412500", "155055.200000", "155055.987500", "155056.777500", "155057.565000", "155058.352500", "155059.140000", "155059.930000", "155100.717500", "155101.505000", "155102.292500", "155103.082500", "155103.870000"],
      "ContentTime": ["162457.125000", "162457.125000", "162457.125000", "162457.125000", "162457.140000", "162557.109000", "162557.109000", "162557.109000", "162557.109000", "162557.109000", "162557.125000", "162557.125000", "162557.125000", "162557.125000", "162557.125000", "162557.125000", "162557.140000", "162557.140000", "162557.140000", "162557.140000", "162557.140000", "162557.140000", "162557.140000", "162557.156000", "162557.156000", "162557.156000", "162557.156000", "162557.171000", "162557.171000", "162557.171000", "162557.171000", "162557.171000", "162557.171000", "162657.109000", "162657.109000", "162657.109000", "162657.109000", "162657.109000", "162657.125000", "162657.125000", "162657.125000", "162657.125000", "162657.125000", "162657.125000", "162657.125000", "162657.140000", "162657.140000", "162657.140000", "162657.140000", "162657.140000", "162657.156000", "162657.156000", "162657.156000", "162657.171000", "162657.171000", "162657.171000", "162657.171000", "162657.171000", "162657.171000", "162657.171000", "162657.187000", "162757.109000", "162757.109000", "162757.109000", "162757.109000", "162757.109000", "162757.109000", "162757.109000", "162757.125000", "162757.125000", "162757.125000", "162757.125000", "162757.125000", "162757.125000", "162757.125000", "162757.140000", "162757.140000", "162757.140000", "162757.140000", "162757.156000", "162757.156000", "162757.156000", "162757.156000", "162757.156000", "162757.171000", "162757.171000", "162757.171000", "162757.171000", "162857.109000", "162857.109000", "162857.109000", "162857.109000", "162857.109000", "162857.109000", "162857.109000", "162857.125000", "162857.125000", "162857.125000", "162857.140000", "162857.140000", "162857.140000", "162857.140000", "162857.140000", "162857.156000", "162857.156000", "162857.156000", "162857.156000", "162857.156000", "162857.156000", "162857.156000", "162857.171000", "162857.171000", "162857.171000", "162857.171000", "162857.171000", "162857.187000", "162957.109000", "162957.109000", "162957.109000", "162957.109000", "162957.109000", "162957.109000", "162957.109000", "162957.125000", "162957.125000", "162957.125000", "162957.140000", "162957.140000", "162957.140000", "162957.140000", "162957.140000", "162957.140000", "162957.140000", "162957.156000", "162957.156000", "162957.156000", "162957.156000", "162957.156000", "162957.156000", "162957.156000", "162957.171000", "162957.171000", "162957.171000", "163057.109000", "163057.109000", "163057.109000", "163057.109000", "163057.109000", "163057.109000", "163057.125000", "163057.140000", "163057.140000", "163057.140000", "163057.140000", "163057.140000", "163057.140000", "163057.140000", "163057.156000", "163057.156000", "163057.156000", "163057.156000", "163057.156000", "163057.156000", "163057.156000", "163057.171000", "163057.171000", "163057.187000", "163057.187000", "163057.187000", "163057.187000", "163057.187000", "163157.109000", "163157.109000", "163157.109000", "163157.109000", "163157.125000", "163157.125000", "163157.125000", "163157.125000", "163157.125000", "163157.125000", "163157.125000", "163157.140000", "163157.140000", "163157.140000", "163157.140000", "163157.140000", "163157.140000", "163157.140000", "163157.156000", "163157.156000", "163157.156000", "163157.156000", "163157.171000", "163157.171000", "163157.171000", "163157.171000", "163157.171000", "163157.171000", "163257.109000", "163257.109000", "163257.109000", "163257.109000", "163257.109000", "163257.109000", "163257.109000", "163257.125000", "163257.125000", "163257.125000", "163257.125000", "163257.125000", "163257.125000", "163257.125000", "163257.140000", "163257.140000", "163257.140000", "163257.140000", "163257.156000", "163257.156000", "163257.156000", "163257.156000", "163257.156000", "163257.156000", "163257.156000", "163257.171000", "163257.171000", "163337.109000", "163337.109000", "163337.109000", "163337.109000", "163337.125000", "163337.125000", "163337.125000", "163337.125000", "163337.125000", "163337.125000", "163337.125000", "163337.140000", "163337.140000", "163337.140000", "163337.140000", "163337.140000", "163337.140000", "163337.156000", "163437.109000", "163437.109000", "163437.109000", "163437.109000", "163437.109000", "163437.109000", "163437.109000", "163437.125000", "163437.125000", "163437.140000", "163437.140000", "163437.140000", "163437.140000", "163437.140000", "163437.140000", "163437.140000", "163437.156000", "163437.156000", "163437.156000", "163437.156000", "163437.156000", "163437.156000", "163437.156000", "163437.171000", "163437.171000", "163437.171000", "163437.171000", "163437.187000", "163537.093000", "163537.109000", "163537.125000", "163537.125000", "163537.125000", "163537.125000", "163537.125000", "163537.125000", "163537.125000", "163537.140000", "163537.140000", "163537.140000", "163537.140000", "163537.140000", "163537.140000", "163537.156000", "163537.156000", "163537.156000", "163537.171000", "163537.171000", "163537.171000", "163537.171000", "163537.171000", "163537.171000", "163537.171000", "163537.187000", "163537.187000", "163537.187000", "163637.093000", "163637.109000", "163637.109000", "163637.109000", "163637.109000", "163637.109000", "163637.109000", "163637.125000", "163637.125000", "163637.125000", "163637.125000", "163637.125000", "163637.125000", "163637.125000", "163637.140000", "163637.140000", "163637.140000", "163637.140000", "163637.140000", "163637.156000", "163637.156000", "163637.156000", "163637.156000", "163637.156000", "163637.156000", "163637.156000", "163637.171000", "163737.093000", "163737.109000", "163737.109000", "163737.109000", "163737.109000", "163737.109000", "163737.109000", "163737.125000", "163737.125000", "163737.125000", "163737.125000", "163737.125000", "163737.125000", "163737.140000", "163737.140000", "163737.140000", "163737.140000", "163737.140000", "163737.156000", "163737.156000", "163737.156000", "163737.156000", "163737.156000", "163737.156000", "163737.156000", "163737.171000", "163737.171000", "163737.171000", "163837.093000", "163837.109000", "163837.109000", "163837.109000", "163837.109000", "163837.109000", "163837.109000", "163837.125000", "163837.125000", "163837.125000", "163837.125000", "163837.140000", "163837.140000", "163837.140000", "163837.140000", "163837.140000", "163837.140000", "163837.156000", "163837.156000", "163837.156000", "163837.156000", "163837.156000", "163837.156000", "163837.156000", "163837.171000", "163837.171000", "163837.171000", "163937.093000", "163937.109000", "163937.109000", "163937.109000", "163937.109000", "163937.109000", "163937.109000", "163937.109000", "163937.125000", "163937.125000", "163937.140000", "163937.140000", "163937.140000", "163937.140000", "163937.140000", "163937.140000", "163937.140000", "163937.156000", "163937.156000", "163937.156000", "163937.156000", "163937.156000", "163937.156000", "163937.156000", "163937.171000", "163937.171000", "163937.171000", "163937.171000", "164037.093000", "164037.109000", "164037.109000", "164037.109000", "164037.109000", "164037.109000", "164037.109000", "164037.125000", "164037.125000", "164037.125000", "164037.125000", "164037.125000", "164037.125000", "164037.140000", "164037.140000", "164037.140000", "164037.140000", "164037.140000", "164037.140000", "164037.140000", "164037.156000", "164037.156000", "164037.171000", "164037.171000", "164037.171000", "164037.171000", "164037.187000", "164137.093000", "164137.109000", "164137.109000", "164137.125000", "164137.125000", "164137.125000", "164137.125000", "164137.125000", "164137.125000", "164137.125000", "164137.140000", "164137.140000", "164137.140000", "164137.140000", "164137.140000", "164137.140000", "164137.140000", "164137.156000", "164137.156000", "164137.156000", "164137.156000", "164137.171000", "164137.171000", "164137.171000", "164137.171000", "164137.171000", "164137.171000", "164137.171000", "164237.093000", "164237.109000", "164237.109000", "164237.109000", "164237.109000", "164237.125000", "164237.125000", "164237.125000", "164237.125000", "164237.125000", "164237.125000", "164237.140000", "164237.140000", "164237.140000", "164237.140000", "164237.156000", "164237.156000", "164237.156000", "164237.156000", "164237.171000", "164237.171000", "164237.171000", "164237.171000", "164237.171000", "164237.187000", "164237.187000", "164237.187000", "164337.093000", "164337.109000", "164337.109000", "164337.109000", "164337.109000", "164337.109000", "164337.125000", "164337.125000", "164337.125000", "164337.125000", "164337.125000", "164337.125000", "164337.125000", "164337.140000", "164337.140000", "164337.156000", "164337.156000", "164337.156000", "164337.156000", "164337.156000", "164337.156000", "164337.156000", "164337.171000", "164337.171000", "164337.171000", "164337.171000", "164337.171000", "164337.171000", "164437.093000", "164437.109000", "164437.109000", "164437.109000", "164437.109000", "164437.109000", "164437.109000", "164437.125000", "164437.125000", "164437.125000", "164437.125000", "164437.125000", "164437.140000", "164437.140000", "164437.140000", "164437.140000", "164437.140000", "164437.140000", "164437.140000", "164437.156000", "164437.156000", "164437.156000", "164437.156000", "164437.156000", "164437.156000", "164437.171000", "164437.171000", "164437.171000", "164537.093000", "164537.109000", "164537.109000", "164537.109000", "164537.109000", "164537.109000", "164537.109000", "164537.125000", "164537.125000", "164537.125000", "164537.125000", "164537.125000", "164537.140000", "164537.140000", "164537.140000", "164537.156000", "164537.156000", "164537.156000", "164537.156000", "164537.156000", "164537.171000", "164537.171000", "164537.171000", "164537.171000", "164537.171000", "164537.187000", "164537.187000", "164548.000000", "164548.000000", "164548.000000", "164548.000000", "164548.000000", "164548.000000"],
