{
  "AcquisitionMatrixPE": 104,
  "AcquisitionNumber": 1,
  "AcquisitionTime": "15:10:5.855000",
  "BandwidthPerPixelPhaseEncode": 13.935,
  "BaseResolution": 104,
  "CoilString": "C:HEA;HEP",
  "ConversionSoftware": "dcm2niix",
  "ConversionSoftwareVersion": "v1.0.20210317",
  "DerivedVendorReportedEchoSpacing": 0.000690017,
  "DeviceSerialNumber": "35450",
  "DwellTime": 2.5e-06,
  "EchoTime": 0.0348,
  "EffectiveEchoSpacing": 0.000690017,
  "FlipAngle": 55,
  "ImageComments": "Unaliased MB8/PE3",
  "ImageOrientationPatientDICOM": [1, 0, 0, 0, 0.990748, 0.135716],
  "ImageType": [
    "ORIGINAL",
    "PRIMARY",
    "M",
    "MB",
    "ND",
    "MOSAIC"
],
  "ImagingFrequency": 123.235,
  "InPlanePhaseEncodingDirectionDICOM": "COL",
  "InstitutionAddress": "Univeristy Ave. 197,Newark,North East,US,07102-1814",
  "InstitutionName": "RUBIC",
  "InstitutionalDepartmentName": "Department",
  "MRAcquisitionType": "2D",
  "MagneticFieldStrength": 3,
  "Manufacturer": "Siemens",
  "ManufacturersModelName": "TrioTim",
  "Modality": "MR",
  "MultibandAccelerationFactor": 8,
  "PartialFourier": 0.875,
  "PatientPosition": "HFS",
  "PercentPhaseFOV": 100,
  "PercentSampling": 100,
  "PhaseEncodingDirection": "j-",
  "PhaseEncodingSteps": 91,
  "PhaseResolution": 1,
  "PixelBandwidth": 1923,
  "ProcedureStepDescription": "Cole^Michael",
  "ProtocolName": "cmrr_mbep2d_bold_2mm_MB8_Rest",
  "PulseSequenceDetails": "%CustomerSeq%\\cmrr_mbep2d_bold",
  "ReceiveCoilName": "32Ch_Head",
  "ReconMatrixPE": 104,
  "RepetitionTime": 0.785,
  "SAR": 0.115961,
  "ScanOptions": "PFP\\FS",
  "ScanningSequence": "EP",
  "SequenceName": "epfid2d1_104",
  "SequenceVariant": "SK\\SS",
  "SeriesDescription": "cmrr_mbep2d_bold_2mm_MB8_Rest",
  "SeriesNumber": 11,
  "ShimSetting": [2145, -403, -7279, 592, 30, -427, 83, -3],
  "SliceThickness": 2,
  "SliceTiming": [0, 0.4375, 0.0875, 0.525, 0.175, 0.6125, 0.2625, 0.7, 0.35, 0, 0.4375, 0.0875, 0.525, 0.175, 0.6125, 0.2625, 0.7, 0.35, 0, 0.4375, 0.0875, 0.525, 0.175, 0.6125, 0.2625, 0.7, 0.35, 0, 0.4375, 0.0875, 0.525, 0.175, 0.6125, 0.2625, 0.7, 0.35, 0, 0.4375, 0.0875, 0.525, 0.175, 0.6125, 0.2625, 0.7, 0.35, 0, 0.4375, 0.0875, 0.525, 0.175, 0.6125, 0.2625, 0.7, 0.35, 0, 0.4375, 0.0875, 0.525, 0.175, 0.6125, 0.2625, 0.7, 0.35, 0, 0.4375, 0.0875, 0.525, 0.175, 0.6125, 0.2625, 0.7, 0.35],
  "SoftwareVersions": "syngo MR B19",
  "SpacingBetweenSlices": 2,
  "StationName": "MRC35450",
  "TaskName": "rest",
  "TotalReadoutTime": 0.0710717,
  "TxRefAmp": 320.856,
  "dcmmeta_affine": [
    [-2.0, 0.0, 0.0, 104.0],
    [0.0, 1.98149573802948, 0.2714311480522156, -85.66545104980469],
    [0.0, -0.2714311480522156, 1.9814956188201904, -83.46379089355469],
    [0.0, 0.0, 0.0, 1.0]
],
  "dcmmeta_reorient_transform": [
    [0.0, -1.0, 0.0, 103.0],
    [1.0, 0.0, 0.0, 0.0],
    [0.0, 0.0, 1.0, 0.0],
    [0.0, 0.0, 0.0, 1.0]
],
  "dcmmeta_shape": [104, 104, 72, 1070],
  "dcmmeta_slice_dim": 2,
  "dcmmeta_version": 0.6,
  "global": {
    "const": {
      "AcquisitionMatrix": [104, 0, 0, 104],
      "AngioFlag": "N",
      "BitsAllocated": 16,
      "BitsStored": 12,
      "Columns": 936,
      "EchoNumbers": 1,
      "EchoTime": 34.8,
      "EchoTrainLength": 1,
      "FlipAngle": 55.0,
      "HighBit": 11,
      "ImageOrientationPatient": [1.0, 0.0, 0.0, 0.0, 0.99074784093424, 0.13571556905579],
      "ImagePositionPatient": [-936.0, -942.73080820075, -224.33655059032],
      "ImageType": [
        "ORIGINAL",
        "PRIMARY",
        "M",
        "MB",
        "ND",
        "MOSAIC"
],
      "ImagedNucleus": "1H",
      "ImagingFrequency": 123.234784,
      "InPlanePhaseEncodingDirection": "COL",
      "MRAcquisitionType": "2D",
      "MagneticFieldStrength": 3.0,
      "Manufacturer": "SIEMENS",
      "ManufacturerModelName": "TrioTim",
      "Modality": "MR",
      "NumberOfAverages": 1.0,
      "NumberOfPhaseEncodingSteps": 91,
      "PercentPhaseFieldOfView": 100.0,
      "PercentSampling": 100.0,
      "PerformedProcedureStepStartTime": "144623.218000",
      "PhotometricInterpretation": "MONOCHROME2",
      "PixelBandwidth": 1923.0,
      "PixelRepresentation": 0,
      "PixelSpacing": [2.0, 2.0],
      "ProtocolName": "cmrr_mbep2d_bold_2mm_MB8_Rest",
      "RepetitionTime": 785.0,
      "Rows": 936,
      "SAR": 0.115960824856,
      "SamplesPerPixel": 1,
      "ScanOptions": [
        "PFP",
        "FS"
],
      "ScanningSequence": "EP",
      "SequenceName": "epfid2d1_104",
      "SequenceVariant": [
        "SK",
        "SS"
],
      "SeriesDescription": "cmrr_mbep2d_bold_2mm_MB8_Rest",
      "SeriesNumber": 11,
      "SeriesTime": "151119.781000",
      "SliceLocation": -94.317705038606,
      "SliceThickness": 2.0,
      "SmallestImagePixelValue": 0,
      "SoftwareVersions": "syngo MR B19",
      "SpacingBetweenSlices": 1.9999999767337,
      "SpecificCharacterSet": "ISO_IR 100",
      "StudyID": "1",
      "StudyTime": "144623.187000",
      "TransmitCoilName": "Body",
      "VariableFlipAngleFlag": "N",
      "WindowCenterWidthExplanation": "Algo1",
      "dBdt": 0.0},
    "slices": {}
  },
  "time": {
    "samples": {
      "AcquisitionNumber": [1, 2, 3, 4, 5, 6, 7, 8, 9, 10, 11, 12, 13, 14, 15, 16, 17, 18, 19, 20, 21, 22, 23, 24, 25, 26, 27, 28, 29, 30, 31, 32, 33, 34, 35, 36, 37, 38, 39, 40, 41, 42, 43, 44, 45, 46, 47, 48, 49, 50, 51, 52, 53, 54, 55, 56, 57, 58, 59, 60, 61, 62, 63, 64, 65, 66, 67, 68, 69, 70, 71, 72, 73, 74, 75, 76, 77, 78, 79, 80, 81, 82, 83, 84, 85, 86, 87, 88, 89, 90, 91, 92, 93, 94, 95, 96, 97, 98, 99, 100, 101, 102, 103, 104, 105, 106, 107, 108, 109, 110, 111, 112, 113, 114, 115, 116, 117, 118, 119, 120, 121, 122, 123, 124, 125, 126, 127, 128, 129, 130, 131, 132, 133, 134, 135, 136, 137, 138, 139, 140, 141, 142, 143, 144, 145, 146, 147, 148, 149, 150, 151, 152, 153, 154, 155, 156, 157, 158, 159, 160, 161, 162, 163, 164, 165, 166, 167, 168, 169, 170, 171, 172, 173, 174, 175, 176, 177, 178, 179, 180, 181, 182, 183, 184, 185, 186, 187, 188, 189, 190, 191, 192, 193, 194, 195, 196, 197, 198, 199, 200, 201, 202, 203, 204, 205, 206, 207, 208, 209, 210, 211, 212, 213, 214, 215, 216, 217, 218, 219, 220, 221, 222, 223, 224, 225, 226, 227, 228, 229, 230, 231, 232, 233, 234, 235, 236, 237, 238, 239, 240, 241, 242, 243, 244, 245, 246, 247, 248, 249, 250, 251, 252, 253, 254, 255, 256, 257, 258, 259, 260, 261, 262, 263, 264, 265, 266, 267, 268, 269, 270, 271, 272, 273, 274, 275, 276, 277, 278, 279, 280, 281, 282, 283, 284, 285, 286, 287, 288, 289, 290, 291, 292, 293, 294, 295, 296, 297, 298, 299, 300, 301, 302, 303, 304, 305, 306, 307, 308, 309, 310, 311, 312, 313, 314, 315, 316, 317, 318, 319, 320, 321, 322, 323, 324, 325, 326, 327, 328, 329, 330, 331, 332, 333, 334, 335, 336, 337, 338, 339, 340, 341, 342, 343, 344, 345, 346, 347, 348, 349, 350, 351, 352, 353, 354, 355, 356, 357, 358, 359, 360, 361, 362, 363, 364, 365, 366, 367, 368, 369, 370, 371, 372, 373, 374, 375, 376, 377, 378, 379, 380, 381, 382, 383, 384, 385, 386, 387, 388, 389, 390, 391, 392, 393, 394, 395, 396, 397, 398, 399, 400, 401, 402, 403, 404, 405, 406, 407, 408, 409, 410, 411, 412, 413, 414, 415, 416, 417, 418, 419, 420, 421, 422, 423, 424, 425, 426, 427, 428, 429, 430, 431, 432, 433, 434, 435, 436, 437, 438, 439, 440, 441, 442, 443, 444, 445, 446, 447, 448, 449, 450, 451, 452, 453, 454, 455, 456, 457, 458, 459, 460, 461, 462, 463, 464, 465, 466, 467, 468, 469, 470, 471, 472, 473, 474, 475, 476, 477, 478, 479, 480, 481, 482, 483, 484, 485, 486, 487, 488, 489, 490, 491, 492, 493, 494, 495, 496, 497, 498, 499, 500, 501, 502, 503, 504, 505, 506, 507, 508, 509, 510, 511, 512, 513, 514, 515, 516, 517, 518, 519, 520, 521, 522, 523, 524, 525, 526, 527, 528, 529, 530, 531, 532, 533, 534, 535, 536, 537, 538, 539, 540, 541, 542, 543, 544, 545, 546, 547, 548, 549, 550, 551, 552, 553, 554, 555, 556, 557, 558, 559, 560, 561, 562, 563, 564, 565, 566, 567, 568, 569, 570, 571, 572, 573, 574, 575, 576, 577, 578, 579, 580, 581, 582, 583, 584, 585, 586, 587, 588, 589, 590, 591, 592, 593, 594, 595, 596, 597, 598, 599, 600, 601, 602, 603, 604, 605, 606, 607, 608, 609, 610, 611, 612, 613, 614, 615, 616, 617, 618, 619, 620, 621, 622, 623, 624, 625, 626, 627, 628, 629, 630, 631, 632, 633, 634, 635, 636, 637, 638, 639, 640, 641, 642, 643, 644, 645, 646, 647, 648, 649, 650, 651, 652, 653, 654, 655, 656, 657, 658, 659, 660, 661, 662, 663, 664, 665, 666, 667, 668, 669, 670, 671, 672, 673, 674, 675, 676, 677, 678, 679, 680, 681, 682, 683, 684, 685, 686, 687, 688, 689, 690, 691, 692, 693, 694, 695, 696, 697, 698, 699, 700, 701, 702, 703, 704, 705, 706, 707, 708, 709, 710, 711, 712, 713, 714, 715, 716, 717, 718, 719, 720, 721, 722, 723, 724, 725, 726, 727, 728, 729, 730, 731, 732, 733, 734, 735, 736, 737, 738, 739, 740, 741, 742, 743, 744, 745, 746, 747, 748, 749, 750, 751, 752, 753, 754, 755, 756, 757, 758, 759, 760, 761, 762, 763, 764, 765, 766, 767, 768, 769, 770, 771, 772, 773, 774, 775, 776, 777, 778, 779, 780, 781, 782, 783, 784, 785, 786, 787, 788, 789, 790, 791, 792, 793, 794, 795, 796, 797, 798, 799, 800, 801, 802, 803, 804, 805, 806, 807, 808, 809, 810, 811, 812, 813, 814, 815, 816, 817, 818, 819, 820, 821, 822, 823, 824, 825, 826, 827, 828, 829, 830, 831, 832, 833, 834, 835, 836, 837, 838, 839, 840, 841, 842, 843, 844, 845, 846, 847, 848, 849, 850, 851, 852, 853, 854, 855, 856, 857, 858, 859, 860, 861, 862, 863, 864, 865, 866, 867, 868, 869, 870, 871, 872, 873, 874, 875, 876, 877, 878, 879, 880, 881, 882, 883, 884, 885, 886, 887, 888, 889, 890, 891, 892, 893, 894, 895, 896, 897, 898, 899, 900, 901, 902, 903, 904, 905, 906, 907, 908, 909, 910, 911, 912, 913, 914, 915, 916, 917, 918, 919, 920, 921, 922, 923, 924, 925, 926, 927, 928, 929, 930, 931, 932, 933, 934, 935, 936, 937, 938, 939, 940, 941, 942, 943, 944, 945, 946, 947, 948, 949, 950, 951, 952, 953, 954, 955, 956, 957, 958, 959, 960, 961, 962, 963, 964, 965, 966, 967, 968, 969, 970, 971, 972, 973, 974, 975, 976, 977, 978, 979, 980, 981, 982, 983, 984, 985, 986, 987, 988, 989, 990, 991, 992, 993, 994, 995, 996, 997, 998, 999, 1000, 1001, 1002, 1003, 1004, 1005, 1006, 1007, 1008, 1009, 1010, 1011, 1012, 1013, 1014, 1015, 1016, 1017, 1018, 1019, 1020, 1021, 1022, 1023, 1024, 1025, 1026, 1027, 1028, 1029, 1030, 1031, 1032, 1033, 1034, 1035, 1036, 1037, 1038, 1039, 1040, 1041, 1042, 1043, 1044, 1045, 1046, 1047, 1048, 1049, 1050, 1051, 1052, 1053, 1054, 1055, 1056, 1057, 1058, 1059, 1060, 1061, 1062, 1063, 1064, 1065, 1066, 1067, 1068, 1069, 1070],
      "AcquisitionTime": ["151005.855000", "151006.642500", "151007.430000", "151008.217500", "151009.007500", "151009.795000", "151010.582500", "151011.370000", "151012.160000", "151012.947500", "151013.735000", "151014.522500", "151015.312500", "151016.100000", "151016.887500", "151017.677500", "151018.465000", "151019.252500", "151020.040000", "151020.830000", "151021.617500", "151022.405000", "151023.192500", "151023.982500", "151024.770000", "151025.557500", "151026.345000", "151027.135000", "151027.922500", "151028.710000", "151029.497500", "151030.287500", "151031.075000", "151031.862500", "151032.650000", "151033.440000", "151034.227500", "151035.015000", "151035.805000", "151036.592500", "151037.380000", "151038.167500", "151038.957500", "151039.745000", "151040.532500", "151041.320000", "151042.110000", "151042.897500", "151043.685000", "151044.472500", "151045.262500", "151046.050000", "151046.837500", "151047.625000", "151048.415000", "151049.202500", "151049.990000", "151050.777500", "151051.567500", "151052.355000", "151053.142500", "151053.932500", "151054.720000", "151055.507500", "151056.295000", "151057.085000", "151057.872500", "151058.660000", "151059.447500", "151100.237500", "151101.025000", "151101.812500", "151102.600000", "151103.390000", "151104.177500", "151104.965000", "151105.752500", "151106.542500", "151107.330000", "151108.117500", "151108.905000", "151109.695000", "151110.482500", "151111.270000", "151112.060000", "151112.847500", "151113.635000", "151114.422500", "151115.212500", "151116.000000", "151116.787500", "151117.575000", "151118.365000", "151119.152500", "151119.940000", "151120.727500", "151121.517500", "151122.305000", "151123.092500", "151123.880000", "151124.670000", "151125.457500", "151126.245000", "151127.032500", "151127.822500", "151128.610000", "151129.397500", "151130.187500", "151130.975000", "151131.762500", "151132.550000", "151133.340000", "151134.127500", "151134.915000", "151135.702500", "151136.492500", "151137.280000", "151138.067500", "151138.855000", "151139.645000", "151140.432500", "151141.220000", "151142.007500", "151142.797500", "151143.585000", "151144.372500", "151145.160000", "151145.950000", "151146.737500", "151147.525000", "151148.315000", "151149.102500", "151149.890000", "151150.677500", "151151.467500", "151152.255000", "151153.042500", "151153.830000", "151154.620000", "151155.407500", "151156.195000", "151156.982500", "151157.772500", "151158.560000", "151159.347500", "151200.135000", "151200.925000", "151201.712500", "151202.500000", "151203.287500", "151204.077500", "151204.865000", "151205.652500", "151206.442500", "151207.230000", "151208.017500", "151208.805000", "151209.595000", "151210.382500", "151211.170000", "151211.957500", "151212.747500", "151213.535000", "151214.322500", "151215.110000", "151215.900000", "151216.687500", "151217.475000", "151218.262500", "151219.052500", "151219.840000", "151220.627500", "151221.415000", "151222.205000", "151222.992500", "151223.780000", "151224.570000", "151225.357500", "151226.145000", "151226.932500", "151227.722500", "151228.510000", "151229.297500", "151230.085000", "151230.875000", "151231.662500", "151232.450000", "151233.237500", "151234.027500", "151234.815000", "151235.602500", "151236.390000", "151237.180000", "151237.967500", "151238.755000", "151239.542500", "151240.332500", "151241.120000", "151241.907500", "151242.697500", "151243.485000", "151244.272500", "151245.060000", "151245.850000", "151246.637500", "151247.425000", "151248.212500", "151249.002500", "151249.790000", "151250.577500", "151251.365000", "151252.155000", "151252.942500", "151253.730000", "151254.517500", "151255.307500", "151256.095000", "151256.882500", "151257.672500", "151258.460000", "151259.247500", "151300.035000", "151300.825000", "151301.612500", "151302.400000", "151303.187500", "151303.977500", "151304.765000", "151305.552500", "151306.340000", "151307.130000", "151307.917500", "151308.705000", "151309.492500", "151310.282500", "151311.070000", "151311.857500", "151312.645000", "151313.435000", "151314.222500", "151315.010000", "151315.800000", "151316.587500", "151317.375000", "151318.162500", "151318.952500", "151319.740000", "151320.527500", "151321.315000", "151322.105000", "151322.892500", "151323.680000", "151324.467500", "151325.257500", "151326.045000", "151326.832500", "151327.620000", "151328.410000", "151329.197500", "151329.985000", "151330.772500", "151331.562500", "151332.350000", "151333.137500", "151333.927500", "151334.715000", "151335.502500", "151336.290000", "151337.080000", "151337.867500", "151338.655000", "151339.442500", "151340.232500", "151341.020000", "151341.807500", "151342.595000", "151343.385000", "151344.172500", "151344.960000", "151345.747500", "151346.537500", "151347.325000", "151348.112500", "151348.900000", "151349.690000", "151350.477500", "151351.265000", "151352.055000", "151352.842500", "151353.630000", "151354.417500", "151355.207500", "151355.995000", "151356.782500", "151357.570000", "151358.360000", "151359.147500", "151359.935000", "151400.722500", "151401.512500", "151402.300000", "151403.087500", "151403.875000", "151404.665000", "151405.452500", "151406.240000", "151407.027500", "151407.817500", "151408.605000", "151409.392500", "151410.182500", "151410.970000", "151411.757500", "151412.545000", "151413.335000", "151414.122500", "151414.910000", "151415.697500", "151416.487500", "151417.275000", "151418.062500", "151418.850000", "151419.640000", "151420.427500", "151421.215000", "151422.002500", "151422.792500", "151423.580000", "151424.367500", "151425.155000", "151425.945000", "151426.732500", "151427.520000", "151428.310000", "151429.097500", "151429.885000", "151430.672500", "151431.462500", "151432.250000", "151433.037500", "151433.825000", "151434.615000", "151435.402500", "151436.190000", "151436.977500", "151437.767500", "151438.555000", "151439.342500", "151440.130000", "151440.920000", "151441.707500", "151442.495000", "151443.282500", "151444.072500", "151444.860000", "151445.647500", "151446.437500", "151447.225000", "151448.012500", "151448.800000", "151449.590000", "151450.377500", "151451.165000", "151451.952500", "151452.742500", "151453.530000", "151454.317500", "151455.105000", "151455.895000", "151456.682500", "151457.470000", "151458.257500", "151459.047500", "151459.835000", "151500.622500", "151501.410000", "151502.200000", "151502.987500", "151503.775000", "151504.565000", "151505.352500", "151506.140000", "151506.927500", "151507.717500", "151508.505000", "151509.292500", "151510.080000", "151510.870000", "151511.657500", "151512.445000", "151513.232500", "151514.022500", "151514.810000", "151515.597500", "151516.385000", "151517.175000", "151517.962500", "151518.750000", "151519.537500", "151520.327500", "151521.115000", "151521.902500", "151522.692500", "151523.480000", "151524.267500", "151525.055000", "151525.845000", "151526.632500", "151527.420000", "151528.207500", "151528.997500", "151529.785000", "151530.572500", "151531.360000", "151532.150000", "151532.937500", "151533.725000", "151534.512500", "151535.302500", "151536.090000", "151536.877500", "151537.665000", "151538.455000", "151539.242500", "151540.030000", "151540.820000", "151541.607500", "151542.395000", "151543.182500", "151543.972500", "151544.760000", "151545.547500", "151546.335000", "151547.125000", "151547.912500", "151548.700000", "151549.487500", "151550.277500", "151551.065000", "151551.852500", "151552.640000", "151553.430000", "151554.217500", "151555.005000", "151555.792500", "151556.582500", "151557.370000", "151558.157500", "151558.947500", "151559.735000", "151600.522500", "151601.310000", "151602.100000", "151602.887500", "151603.675000", "151604.462500", "151605.252500", "151606.040000", "151606.827500", "151607.615000", "151608.405000", "151609.192500", "151609.980000", "151610.767500", "151611.557500", "151612.345000", "151613.132500", "151613.922500", "151614.710000", "151615.497500", "151616.285000", "151617.075000", "151617.862500", "151618.650000", "151619.437500", "151620.227500", "151621.015000", "151621.802500", "151622.590000", "151623.380000", "151624.167500", "151624.955000", "151625.742500", "151626.532500", "151627.320000", "151628.107500", "151628.895000", "151629.685000", "151630.472500", "151631.260000", "151632.050000", "151632.837500", "151633.625000", "151634.412500", "151635.202500", "151635.990000", "151636.777500", "151637.565000", "151638.355000", "151639.142500", "151639.930000", "151640.717500", "151641.507500", "151642.295000", "151643.082500", "151643.870000", "151644.660000", "151645.447500", "151646.235000", "151647.022500", "151647.812500", "151648.600000", "151649.387500", "151650.177500", "151650.965000", "151651.752500", "151652.540000", "151653.330000", "151654.117500", "151654.905000", "151655.692500", "151656.482500", "151657.270000", "151658.057500", "151658.845000", "151659.635000", "151700.422500", "151701.210000", "151701.997500", "151702.787500", "151703.575000", "151704.362500", "151705.150000", "151705.940000", "151706.727500", "151707.515000", "151708.305000", "151709.092500", "151709.880000", "151710.667500", "151711.457500", "151712.245000", "151713.032500", "151713.820000", "151714.610000", "151715.397500", "151716.185000", "151716.972500", "151717.762500", "151718.550000", "151719.337500", "151720.125000", "151720.915000", "151721.702500", "151722.490000", "151723.277500", "151724.067500", "151724.855000", "151725.642500", "151726.432500", "151727.220000", "151728.007500", "151728.795000", "151729.585000", "151730.372500", "151731.160000", "151731.947500", "151732.737500", "151733.525000", "151734.312500", "151735.100000", "151735.890000", "151736.677500", "151737.465000", "151738.252500", "151739.042500", "151739.830000", "151740.617500", "151741.405000", "151742.195000", "151742.982500", "151743.770000", "151744.560000", "151745.347500", "151746.135000", "151746.922500", "151747.712500", "151748.500000", "151749.287500", "151750.075000", "151750.865000", "151751.652500", "151752.440000", "151753.227500", "151754.017500", "151754.805000", "151755.592500", "151756.380000", "151757.170000", "151757.957500", "151758.745000", "151759.532500", "151800.322500", "151801.110000", "151801.897500", "151802.687500", "151803.475000", "151804.262500", "151805.050000", "151805.840000", "151806.627500", "151807.415000", "151808.202500", "151808.992500", "151809.780000", "151810.567500", "151811.355000", "151812.145000", "151812.932500", "151813.720000", "151814.507500", "151815.297500", "151816.085000", "151816.872500", "151817.660000", "151818.450000", "151819.237500", "151820.025000", "151820.815000", "151821.602500", "151822.390000", "151823.177500", "151823.967500", "151824.755000", "151825.542500", "151826.330000", "151827.120000", "151827.907500", "151828.695000", "151829.482500", "151830.272500", "151831.060000", "151831.847500", "151832.635000", "151833.425000", "151834.212500", "151835.000000", "151835.787500", "151836.577500", "151837.365000", "151838.152500", "151838.942500", "151839.730000", "151840.517500", "151841.305000", "151842.095000", "151842.882500", "151843.670000", "151844.457500", "151845.247500", "151846.035000", "151846.822500", "151847.610000", "151848.400000", "151849.187500", "151849.975000", "151850.762500", "151851.552500", "151852.340000", "151853.127500", "151853.915000", "151854.705000", "151855.492500", "151856.280000", "151857.070000", "151857.857500", "151858.645000", "151859.432500", "151900.222500", "151901.010000", "151901.797500", "151902.585000", "151903.375000", "151904.162500", "151904.950000", "151905.737500", "151906.527500", "151907.315000", "151908.102500", "151908.890000", "151909.680000", "151910.467500", "151911.255000", "151912.042500", "151912.832500", "151913.620000", "151914.407500", "151915.197500", "151915.985000", "151916.772500", "151917.560000", "151918.350000", "151919.137500", "151919.925000", "151920.712500", "151921.502500", "151922.290000", "151923.077500", "151923.865000", "151924.655000", "151925.442500", "151926.230000", "151927.017500", "151927.807500", "151928.595000", "151929.382500", "151930.172500", "151930.960000", "151931.747500", "151932.535000", "151933.325000", "151934.112500", "151934.900000", "151935.687500", "151936.477500", "151937.265000", "151938.052500", "151938.840000", "151939.630000", "151940.417500", "151941.205000", "151941.992500", "151942.782500", "151943.570000", "151944.357500", "151945.145000", "151945.935000", "151946.722500", "151947.510000", "151948.300000", "151949.087500", "151949.875000", "151950.662500", "151951.452500", "151952.240000", "151953.027500", "151953.815000", "151954.605000", "151955.392500", "151956.180000", "151956.967500", "151957.757500", "151958.545000", "151959.332500", "152000.120000", "152000.910000", "152001.697500", "152002.485000", "152003.272500", "152004.062500", "152004.850000", "152005.637500", "152006.427500", "152007.215000", "152008.002500", "152008.790000", "152009.580000", "152010.367500", "152011.155000", "152011.942500", "152012.732500", "152013.520000", "152014.307500", "152015.095000", "152015.885000", "152016.672500", "152017.460000", "152018.247500", "152019.037500", "152019.825000", "152020.612500", "152021.400000", "152022.190000", "152022.977500", "152023.765000", "152024.555000", "152025.342500", "152026.130000", "152026.917500", "152027.707500", "152028.495000", "152029.282500", "152030.070000", "152030.860000", "152031.647500", "152032.435000", "152033.222500", "152034.012500", "152034.800000", "152035.587500", "152036.375000", "152037.165000", "152037.952500", "152038.740000", "152039.527500", "152040.317500", "152041.105000", "152041.892500", "152042.682500", "152043.470000", "152044.257500", "152045.045000", "152045.835000", "152046.622500", "152047.410000", "152048.197500", "152048.987500", "152049.775000", "152050.562500", "152051.350000", "152052.140000", "152052.927500", "152053.715000", "152054.502500", "152055.292500", "152056.080000", "152056.867500", "152057.655000", "152058.445000", "152059.232500", "152100.020000", "152100.810000", "152101.597500", "152102.385000", "152103.172500", "152103.962500", "152104.750000", "152105.537500", "152106.325000", "152107.115000", "152107.902500", "152108.690000", "152109.477500", "152110.267500", "152111.055000", "152111.842500", "152112.630000", "152113.420000", "152114.207500", "152114.995000", "152115.782500", "152116.572500", "152117.360000", "152118.147500", "152118.937500", "152119.725000", "152120.512500", "152121.300000", "152122.090000", "152122.877500", "152123.665000", "152124.452500", "152125.242500", "152126.030000", "152126.817500", "152127.605000", "152128.395000", "152129.182500", "152129.970000", "152130.757500", "152131.547500", "152132.335000", "152133.122500", "152133.910000", "152134.700000", "152135.487500", "152136.275000", "152137.065000", "152137.852500", "152138.640000", "152139.427500", "152140.217500", "152141.005000", "152141.792500", "152142.580000", "152143.370000", "152144.157500", "152144.945000", "152145.732500", "152146.522500", "152147.310000", "152148.097500", "152148.885000", "152149.675000", "152150.462500", "152151.250000", "152152.037500", "152152.827500", "152153.615000", "152154.402500", "152155.192500", "152155.980000", "152156.767500", "152157.555000", "152158.345000", "152159.132500", "152159.920000", "152200.707500", "152201.497500", "152202.285000", "152203.072500", "152203.860000", "152204.650000", "152205.437500", "152206.225000", "152207.012500", "152207.802500", "152208.590000", "152209.377500", "152210.165000", "152210.955000", "152211.742500", "152212.530000", "152213.320000", "152214.107500", "152214.895000", "152215.682500", "152216.472500", "152217.260000", "152218.047500", "152218.835000", "152219.625000", "152220.412500", "152221.200000", "152221.987500", "152222.777500", "152223.565000", "152224.352500", "152225.140000", "152225.930000", "152226.717500", "152227.505000", "152228.292500", "152229.082500", "152229.870000", "152230.657500", "152231.447500", "152232.235000", "152233.022500", "152233.810000", "152234.600000", "152235.387500", "152236.175000", "152236.962500", "152237.752500", "152238.540000", "152239.327500", "152240.115000", "152240.905000", "152241.692500", "152242.480000", "152243.267500", "152244.057500", "152244.845000", "152245.632500", "152246.422500", "152247.210000", "152247.997500", "152248.785000", "152249.575000", "152250.362500", "152251.150000", "152251.937500", "152252.727500", "152253.515000", "152254.302500", "152255.090000", "152255.880000", "152256.667500", "152257.455000", "152258.242500", "152259.032500", "152259.820000", "152300.607500", "152301.395000", "152302.185000", "152302.972500", "152303.760000", "152304.550000", "152305.337500", "152306.125000", "152306.912500", "152307.702500", "152308.490000", "152309.277500", "152310.065000", "152310.855000", "152311.642500", "152312.430000", "152313.217500", "152314.007500", "152314.795000", "152315.582500", "152316.370000", "152317.160000", "152317.947500", "152318.735000", "152319.522500", "152320.312500", "152321.100000", "152321.887500", "152322.677500", "152323.465000", "152324.252500", "152325.040000", "152325.830000", "152326.617500", "152327.405000", "152328.192500", "152328.982500", "152329.770000", "152330.557500", "152331.345000", "152332.135000", "152332.922500", "152333.710000", "152334.497500", "152335.287500", "152336.075000", "152336.862500", "152337.650000", "152338.440000", "152339.227500", "152340.015000", "152340.805000", "152341.592500", "152342.380000", "152343.167500", "152343.957500", "152344.745000", "152345.532500", "152346.320000", "152347.110000", "152347.897500", "152348.685000", "152349.472500", "152350.262500", "152351.050000", "152351.837500", "152352.625000", "152353.415000", "152354.202500", "152354.990000", "152355.777500", "152356.567500", "152357.355000", "152358.142500", "152358.932500", "152359.720000", "152400.507500", "152401.295000", "152402.085000", "152402.872500", "152403.660000", "152404.447500", "152405.237500", "152406.025000", "152406.812500", "152407.600000", "152408.390000"],
