{
  "AcquisitionMatrixPE": 104,
  "AcquisitionNumber": 1,
  "AcquisitionTime": "16:19:2.742500",
  "BandwidthPerPixelPhaseEncode": 13.935,
  "BaseResolution": 104,
  "CoilString": "C:HEA;HEP",
  "ConversionSoftware": "dcm2niix",
  "ConversionSoftwareVersion": "v1.0.20210317",
  "DerivedVendorReportedEchoSpacing": 0.000690017,
  "DeviceSerialNumber": "35450",
  "DwellTime": 2.5e-06,
  "EchoTime": 0.0348,
  "EffectiveEchoSpacing": 0.000690017,
  "FlipAngle": 55,
  "ImageComments": "Unaliased MB8/PE3",
  "ImageOrientationPatientDICOM": [1, 0, 0, 0, 0.990748, 0.135716],
  "ImageType": [
    "ORIGINAL",
    "PRIMARY",
    "M",
    "MB",
    "ND",
    "MOSAIC"
],
  "ImagingFrequency": 123.235,
  "InPlanePhaseEncodingDirectionDICOM": "COL",
  "InstitutionAddress": "Univeristy Ave. 197,Newark,North East,US,07102-1814",
  "InstitutionName": "RUBIC",
  "InstitutionalDepartmentName": "Department",
  "MRAcquisitionType": "2D",
  "MagneticFieldStrength": 3,
  "Manufacturer": "Siemens",
  "ManufacturersModelName": "TrioTim",
  "Modality": "MR",
  "MultibandAccelerationFactor": 8,
  "PartialFourier": 0.875,
  "PatientPosition": "HFS",
  "PercentPhaseFOV": 100,
  "PercentSampling": 100,
  "PhaseEncodingDirection": "j-",
  "PhaseEncodingSteps": 91,
  "PhaseResolution": 1,
  "PixelBandwidth": 1923,
  "ProcedureStepDescription": "Cole^Michael",
  "ProtocolName": "cmrr_mbep2d_bold_2mm_MB8_Task_8x",
  "PulseSequenceDetails": "%CustomerSeq%\\cmrr_mbep2d_bold",
  "ReceiveCoilName": "32Ch_Head",
  "ReconMatrixPE": 104,
  "RepetitionTime": 0.785,
  "SAR": 0.113731,
  "ScanOptions": "PFP\\FS",
  "ScanningSequence": "EP",
  "SequenceName": "epfid2d1_104",
  "SequenceVariant": "SK\\SS",
  "SeriesDescription": "cmrr_mbep2d_bold_2mm_MB8_Task_8x",
  "SeriesNumber": 25,
  "ShimSetting": [2145, -403, -7279, 592, 30, -427, 83, -3],
  "SliceThickness": 2,
  "SliceTiming": [0, 0.4375, 0.0875, 0.525, 0.175, 0.6125, 0.2625, 0.7, 0.35, 0, 0.4375, 0.0875, 0.525, 0.175, 0.6125, 0.2625, 0.7, 0.35, 0, 0.4375, 0.0875, 0.525, 0.175, 0.6125, 0.2625, 0.7, 0.35, 0, 0.4375, 0.0875, 0.525, 0.175, 0.6125, 0.2625, 0.7, 0.35, 0, 0.4375, 0.0875, 0.525, 0.175, 0.6125, 0.2625, 0.7, 0.35, 0, 0.4375, 0.0875, 0.525, 0.175, 0.6125, 0.2625, 0.7, 0.35, 0, 0.4375, 0.0875, 0.525, 0.175, 0.6125, 0.2625, 0.7, 0.35, 0, 0.4375, 0.0875, 0.525, 0.175, 0.6125, 0.2625, 0.7, 0.35],
  "SoftwareVersions": "syngo MR B19",
  "SpacingBetweenSlices": 2,
  "StationName": "MRC35450",
  "TaskName": "cpro",
  "TotalReadoutTime": 0.0710717,
  "TxRefAmp": 320.856,
  "dcmmeta_affine": [
    [-2.0, 0.0, 0.0, 104.0],
    [0.0, 1.98149573802948, 0.2714311480522156, -85.66545104980469],
    [0.0, -0.2714311480522156, 1.9814956188201904, -83.46379089355469],
    [0.0, 0.0, 0.0, 1.0]
],
  "dcmmeta_reorient_transform": [
    [0.0, -1.0, 0.0, 103.0],
    [1.0, 0.0, 0.0, 0.0],
    [0.0, 0.0, 1.0, 0.0],
    [0.0, 0.0, 0.0, 1.0]
],
  "dcmmeta_shape": [104, 104, 72, 581],
  "dcmmeta_slice_dim": 2,
  "dcmmeta_version": 0.6,
  "global": {
    "const": {
      "AcquisitionMatrix": [104, 0, 0, 104],
      "AngioFlag": "N",
      "BitsAllocated": 16,
      "BitsStored": 12,
      "Columns": 936,
      "EchoNumbers": 1,
      "EchoTime": 34.8,
      "EchoTrainLength": 1,
      "FlipAngle": 55.0,
      "HighBit": 11,
      "ImageOrientationPatient": [1.0, 0.0, 0.0, 0.0, 0.99074784093424, 0.13571556905579],
      "ImagePositionPatient": [-936.0, -942.73080820075, -224.33655059032],
      "ImageType": [
        "ORIGINAL",
        "PRIMARY",
        "M",
        "MB",
        "ND",
        "MOSAIC"
],
      "ImagedNucleus": "1H",
      "ImagingFrequency": 123.234835,
      "InPlanePhaseEncodingDirection": "COL",
      "MRAcquisitionType": "2D",
      "MagneticFieldStrength": 3.0,
      "Manufacturer": "SIEMENS",
      "ManufacturerModelName": "TrioTim",
      "Modality": "MR",
      "NumberOfAverages": 1.0,
      "NumberOfPhaseEncodingSteps": 91,
      "PercentPhaseFieldOfView": 100.0,
      "PercentSampling": 100.0,
      "PerformedProcedureStepStartTime": "144623.218000",
      "PhotometricInterpretation": "MONOCHROME2",
      "PixelBandwidth": 1923.0,
      "PixelRepresentation": 0,
      "PixelSpacing": [2.0, 2.0],
      "ProtocolName": "cmrr_mbep2d_bold_2mm_MB8_Task_8x",
      "RepetitionTime": 785.0,
      "Rows": 936,
      "SAR": 0.11373092949726,
      "SamplesPerPixel": 1,
      "ScanOptions": [
        "PFP",
        "FS"
],
      "ScanningSequence": "EP",
      "SequenceName": "epfid2d1_104",
      "SequenceVariant": [
        "SK",
        "SS"
],
      "SeriesDescription": "cmrr_mbep2d_bold_2mm_MB8_Task_8x",
      "SeriesNumber": 25,
      "SeriesTime": "174833.078000",
      "SliceLocation": -94.317705038606,
      "SliceThickness": 2.0,
      "SmallestImagePixelValue": 0,
      "SoftwareVersions": "syngo MR B19",
      "SpacingBetweenSlices": 1.9999999767337,
      "SpecificCharacterSet": "ISO_IR 100",
      "StudyID": "1",
      "StudyTime": "144623.187000",
      "TransmitCoilName": "Body",
      "VariableFlipAngleFlag": "N",
      "WindowCenterWidthExplanation": "Algo1",
      "dBdt": 0.0},
    "slices": {}
  },
  "time": {
    "samples": {
      "AcquisitionNumber": [1, 2, 3, 4, 5, 6, 7, 8, 9, 10, 11, 12, 13, 14, 15, 16, 17, 18, 19, 20, 21, 22, 23, 24, 25, 26, 27, 28, 29, 30, 31, 32, 33, 34, 35, 36, 37, 38, 39, 40, 41, 42, 43, 44, 45, 46, 47, 48, 49, 50, 51, 52, 53, 54, 55, 56, 57, 58, 59, 60, 61, 62, 63, 64, 65, 66, 67, 68, 69, 70, 71, 72, 73, 74, 75, 76, 77, 78, 79, 80, 81, 82, 83, 84, 85, 86, 87, 88, 89, 90, 91, 92, 93, 94, 95, 96, 97, 98, 99, 100, 101, 102, 103, 104, 105, 106, 107, 108, 109, 110, 111, 112, 113, 114, 115, 116, 117, 118, 119, 120, 121, 122, 123, 124, 125, 126, 127, 128, 129, 130, 131, 132, 133, 134, 135, 136, 137, 138, 139, 140, 141, 142, 143, 144, 145, 146, 147, 148, 149, 150, 151, 152, 153, 154, 155, 156, 157, 158, 159, 160, 161, 162, 163, 164, 165, 166, 167, 168, 169, 170, 171, 172, 173, 174, 175, 176, 177, 178, 179, 180, 181, 182, 183, 184, 185, 186, 187, 188, 189, 190, 191, 192, 193, 194, 195, 196, 197, 198, 199, 200, 201, 202, 203, 204, 205, 206, 207, 208, 209, 210, 211, 212, 213, 214, 215, 216, 217, 218, 219, 220, 221, 222, 223, 224, 225, 226, 227, 228, 229, 230, 231, 232, 233, 234, 235, 236, 237, 238, 239, 240, 241, 242, 243, 244, 245, 246, 247, 248, 249, 250, 251, 252, 253, 254, 255, 256, 257, 258, 259, 260, 261, 262, 263, 264, 265, 266, 267, 268, 269, 270, 271, 272, 273, 274, 275, 276, 277, 278, 279, 280, 281, 282, 283, 284, 285, 286, 287, 288, 289, 290, 291, 292, 293, 294, 295, 296, 297, 298, 299, 300, 301, 302, 303, 304, 305, 306, 307, 308, 309, 310, 311, 312, 313, 314, 315, 316, 317, 318, 319, 320, 321, 322, 323, 324, 325, 326, 327, 328, 329, 330, 331, 332, 333, 334, 335, 336, 337, 338, 339, 340, 341, 342, 343, 344, 345, 346, 347, 348, 349, 350, 351, 352, 353, 354, 355, 356, 357, 358, 359, 360, 361, 362, 363, 364, 365, 366, 367, 368, 369, 370, 371, 372, 373, 374, 375, 376, 377, 378, 379, 380, 381, 382, 383, 384, 385, 386, 387, 388, 389, 390, 391, 392, 393, 394, 395, 396, 397, 398, 399, 400, 401, 402, 403, 404, 405, 406, 407, 408, 409, 410, 411, 412, 413, 414, 415, 416, 417, 418, 419, 420, 421, 422, 423, 424, 425, 426, 427, 428, 429, 430, 431, 432, 433, 434, 435, 436, 437, 438, 439, 440, 441, 442, 443, 444, 445, 446, 447, 448, 449, 450, 451, 452, 453, 454, 455, 456, 457, 458, 459, 460, 461, 462, 463, 464, 465, 466, 467, 468, 469, 470, 471, 472, 473, 474, 475, 476, 477, 478, 479, 480, 481, 482, 483, 484, 485, 486, 487, 488, 489, 490, 491, 492, 493, 494, 495, 496, 497, 498, 499, 500, 501, 502, 503, 504, 505, 506, 507, 508, 509, 510, 511, 512, 513, 514, 515, 516, 517, 518, 519, 520, 521, 522, 523, 524, 525, 526, 527, 528, 529, 530, 531, 532, 533, 534, 535, 536, 537, 538, 539, 540, 541, 542, 543, 544, 545, 546, 547, 548, 549, 550, 551, 552, 553, 554, 555, 556, 557, 558, 559, 560, 561, 562, 563, 564, 565, 566, 567, 568, 569, 570, 571, 572, 573, 574, 575, 576, 577, 578, 579, 580, 581],
      "AcquisitionTime": ["161902.742500", "161903.530000", "161904.317500", "161905.105000", "161905.895000", "161906.682500", "161907.470000", "161908.257500", "161909.047500", "161909.835000", "161910.622500", "161911.410000", "161912.200000", "161912.987500", "161913.775000", "161914.565000", "161915.352500", "161916.140000", "161916.927500", "161917.717500", "161918.505000", "161919.292500", "161920.080000", "161920.870000", "161921.657500", "161922.445000", "161923.232500", "161924.022500", "161924.810000", "161925.597500", "161926.385000", "161927.175000", "161927.962500", "161928.750000", "161929.537500", "161930.327500", "161931.115000", "161931.902500", "161932.692500", "161933.480000", "161934.267500", "161935.055000", "161935.845000", "161936.632500", "161937.420000", "161938.207500", "161938.997500", "161939.785000", "161940.572500", "161941.360000", "161942.150000", "161942.937500", "161943.725000", "161944.512500", "161945.302500", "161946.090000", "161946.877500", "161947.665000", "161948.455000", "161949.242500", "161950.030000", "161950.820000", "161951.607500", "161952.395000", "161953.182500", "161953.972500", "161954.760000", "161955.547500", "161956.335000", "161957.125000", "161957.912500", "161958.700000", "161959.487500", "162000.277500", "162001.065000", "162001.852500", "162002.640000", "162003.430000", "162004.217500", "162005.005000", "162005.792500", "162006.582500", "162007.370000", "162008.157500", "162008.947500", "162009.735000", "162010.522500", "162011.310000", "162012.100000", "162012.887500", "162013.675000", "162014.462500", "162015.252500", "162016.040000", "162016.827500", "162017.615000", "162018.405000", "162019.192500", "162019.980000", "162020.767500", "162021.557500", "162022.345000", "162023.132500", "162023.920000", "162024.710000", "162025.497500", "162026.285000", "162027.075000", "162027.862500", "162028.650000", "162029.437500", "162030.227500", "162031.015000", "162031.802500", "162032.590000", "162033.380000", "162034.167500", "162034.955000", "162035.742500", "162036.532500", "162037.320000", "162038.107500", "162038.895000", "162039.685000", "162040.472500", "162041.260000", "162042.047500", "162042.837500", "162043.625000", "162044.412500", "162045.202500", "162045.990000", "162046.777500", "162047.565000", "162048.355000", "162049.142500", "162049.930000", "162050.717500", "162051.507500", "162052.295000", "162053.082500", "162053.870000", "162054.660000", "162055.447500", "162056.235000", "162057.022500", "162057.812500", "162058.600000", "162059.387500", "162100.175000", "162100.965000", "162101.752500", "162102.540000", "162103.330000", "162104.117500", "162104.905000", "162105.692500", "162106.482500", "162107.270000", "162108.057500", "162108.845000", "162109.635000", "162110.422500", "162111.210000", "162111.997500", "162112.787500", "162113.575000", "162114.362500", "162115.150000", "162115.940000", "162116.727500", "162117.515000", "162118.302500", "162119.092500", "162119.880000", "162120.667500", "162121.457500", "162122.245000", "162123.032500", "162123.820000", "162124.610000", "162125.397500", "162126.185000", "162126.972500", "162127.762500", "162128.550000", "162129.337500", "162130.125000", "162130.915000", "162131.702500", "162132.490000", "162133.277500", "162134.067500", "162134.855000", "162135.642500", "162136.430000", "162137.220000", "162138.007500", "162138.795000", "162139.585000", "162140.372500", "162141.160000", "162141.947500", "162142.737500", "162143.525000", "162144.312500", "162145.100000", "162145.890000", "162146.677500", "162147.465000", "162148.252500", "162149.042500", "162149.830000", "162150.617500", "162151.405000", "162152.195000", "162152.982500", "162153.770000", "162154.557500", "162155.347500", "162156.135000", "162156.922500", "162157.712500", "162158.500000", "162159.287500", "162200.075000", "162200.865000", "162201.652500", "162202.440000", "162203.227500", "162204.017500", "162204.805000", "162205.592500", "162206.380000", "162207.170000", "162207.957500", "162208.745000", "162209.532500", "162210.322500", "162211.110000", "162211.897500", "162212.687500", "162213.475000", "162214.262500", "162215.050000", "162215.840000", "162216.627500", "162217.415000", "162218.202500", "162218.992500", "162219.780000", "162220.567500", "162221.355000", "162222.145000", "162222.932500", "162223.720000", "162224.507500", "162225.297500", "162226.085000", "162226.872500", "162227.660000", "162228.450000", "162229.237500", "162230.025000", "162230.815000", "162231.602500", "162232.390000", "162233.177500", "162233.967500", "162234.755000", "162235.542500", "162236.330000", "162237.120000", "162237.907500", "162238.695000", "162239.482500", "162240.272500", "162241.060000", "162241.847500", "162242.635000", "162243.425000", "162244.212500", "162245.000000", "162245.787500", "162246.577500", "162247.365000", "162248.152500", "162248.942500", "162249.730000", "162250.517500", "162251.305000", "162252.095000", "162252.882500", "162253.670000", "162254.457500", "162255.247500", "162256.035000", "162256.822500", "162257.610000", "162258.400000", "162259.187500", "162259.975000", "162300.762500", "162301.552500", "162302.340000", "162303.127500", "162303.915000", "162304.705000", "162305.492500", "162306.280000", "162307.070000", "162307.857500", "162308.645000", "162309.432500", "162310.222500", "162311.010000", "162311.797500", "162312.585000", "162313.375000", "162314.162500", "162314.950000", "162315.737500", "162316.527500", "162317.315000", "162318.102500", "162318.890000", "162319.680000", "162320.467500", "162321.255000", "162322.042500", "162322.832500", "162323.620000", "162324.407500", "162325.197500", "162325.985000", "162326.772500", "162327.560000", "162328.350000", "162329.137500", "162329.925000", "162330.712500", "162331.502500", "162332.290000", "162333.077500", "162333.865000", "162334.655000", "162335.442500", "162336.230000", "162337.017500", "162337.807500", "162338.595000", "162339.382500", "162340.170000", "162340.960000", "162341.747500", "162342.535000", "162343.325000", "162344.112500", "162344.900000", "162345.687500", "162346.477500", "162347.265000", "162348.052500", "162348.840000", "162349.630000", "162350.417500", "162351.205000", "162351.992500", "162352.782500", "162353.570000", "162354.357500", "162355.145000", "162355.935000", "162356.722500", "162357.510000", "162358.297500", "162359.087500", "162359.875000", "162400.662500", "162401.452500", "162402.240000", "162403.027500", "162403.815000", "162404.605000", "162405.392500", "162406.180000", "162406.967500", "162407.757500", "162408.545000", "162409.332500", "162410.120000", "162410.910000", "162411.697500", "162412.485000", "162413.272500", "162414.062500", "162414.850000", "162415.637500", "162416.425000", "162417.215000", "162418.002500", "162418.790000", "162419.580000", "162420.367500", "162421.155000", "162421.942500", "162422.732500", "162423.520000", "162424.307500", "162425.095000", "162425.885000", "162426.672500", "162427.460000", "162428.247500", "162429.037500", "162429.825000", "162430.612500", "162431.400000", "162432.190000", "162432.977500", "162433.765000", "162434.552500", "162435.342500", "162436.130000", "162436.917500", "162437.707500", "162438.495000", "162439.282500", "162440.070000", "162440.860000", "162441.647500", "162442.435000", "162443.222500", "162444.012500", "162444.800000", "162445.587500", "162446.375000", "162447.165000", "162447.952500", "162448.740000", "162449.527500", "162450.317500", "162451.105000", "162451.892500", "162452.680000", "162453.470000", "162454.257500", "162455.045000", "162455.835000", "162456.622500", "162457.410000", "162458.197500", "162458.987500", "162459.775000", "162500.562500", "162501.350000", "162502.140000", "162502.927500", "162503.715000", "162504.502500", "162505.292500", "162506.080000", "162506.867500", "162507.655000", "162508.445000", "162509.232500", "162510.020000", "162510.807500", "162511.597500", "162512.385000", "162513.172500", "162513.962500", "162514.750000", "162515.537500", "162516.325000", "162517.115000", "162517.902500", "162518.690000", "162519.477500", "162520.267500", "162521.055000", "162521.842500", "162522.630000", "162523.420000", "162524.207500", "162524.995000", "162525.782500", "162526.572500", "162527.360000", "162528.147500", "162528.937500", "162529.725000", "162530.512500", "162531.300000", "162532.090000", "162532.877500", "162533.665000", "162534.452500", "162535.242500", "162536.030000", "162536.817500", "162537.605000", "162538.395000", "162539.182500", "162539.970000", "162540.757500", "162541.547500", "162542.335000", "162543.122500", "162543.910000", "162544.700000", "162545.487500", "162546.275000", "162547.065000", "162547.852500", "162548.640000", "162549.427500", "162550.217500", "162551.005000", "162551.792500", "162552.580000", "162553.370000", "162554.157500", "162554.945000", "162555.732500", "162556.522500", "162557.310000", "162558.097500", "162558.885000", "162559.675000", "162600.462500", "162601.250000", "162602.037500", "162602.827500", "162603.615000", "162604.402500", "162605.192500", "162605.980000", "162606.767500", "162607.555000", "162608.345000", "162609.132500", "162609.920000", "162610.707500", "162611.497500", "162612.285000", "162613.072500", "162613.860000", "162614.650000", "162615.437500", "162616.225000", "162617.012500", "162617.802500", "162618.590000", "162619.377500", "162620.165000", "162620.955000", "162621.742500", "162622.530000", "162623.320000", "162624.107500", "162624.895000", "162625.682500", "162626.472500", "162627.260000", "162628.047500", "162628.835000", "162629.625000", "162630.412500", "162631.200000", "162631.987500", "162632.777500", "162633.565000", "162634.352500", "162635.140000", "162635.930000", "162636.717500", "162637.505000", "162638.292500", "162639.082500", "162639.870000"],
      "ContentTime": ["174833.078000", "174833.078000", "174853.046000", "174853.062000", "174853.062000", "174853.062000", "174853.062000", "174853.062000", "174853.062000", "174853.078000", "174853.078000", "174853.078000", "174953.046000", "174953.062000", "174953.062000", "174953.062000", "174953.062000", "174953.062000", "174953.062000", "174953.078000", "174953.078000", "174953.078000", "174953.078000", "174953.078000", "174953.093000", "174953.093000", "174953.093000", "174953.093000", "174953.093000", "174953.093000", "174953.109000", "174953.109000", "174953.109000", "174953.109000", "174953.109000", "174953.109000", "174953.125000", "174953.125000", "174953.125000", "174953.125000", "175053.046000", "175053.062000", "175053.062000", "175053.062000", "175053.062000", "175053.062000", "175053.062000", "175053.078000", "175053.078000", "175053.078000", "175053.093000", "175053.093000", "175053.093000", "175053.093000", "175053.093000", "175053.093000", "175053.109000", "175053.109000", "175053.109000", "175053.109000", "175053.109000", "175053.125000", "175053.125000", "175053.125000", "175053.140000", "175053.140000", "175053.140000", "175053.140000", "175153.046000", "175153.062000", "175153.062000", "175153.062000", "175153.062000", "175153.062000", "175153.078000", "175153.078000", "175153.078000", "175153.078000", "175153.078000", "175153.078000", "175153.078000", "175153.093000", "175153.093000", "175153.093000", "175153.093000", "175153.093000", "175153.109000", "175153.109000", "175153.109000", "175153.109000", "175153.109000", "175153.109000", "175153.125000", "175153.125000", "175153.125000", "175153.125000", "175153.125000", "175253.046000", "175253.062000", "175253.062000", "175253.062000", "175253.062000", "175253.062000", "175253.062000", "175253.078000", "175253.078000", "175253.078000", "175253.078000", "175253.078000", "175253.093000", "175253.093000", "175253.093000", "175253.109000", "175253.109000", "175253.109000", "175253.109000", "175253.109000", "175253.109000", "175253.125000", "175253.125000", "175253.125000", "175253.125000", "175253.125000", "175253.125000", "175253.125000", "175353.046000", "175353.062000", "175353.062000", "175353.062000", "175353.062000", "175353.062000", "175353.062000", "175353.078000", "175353.078000", "175353.078000", "175353.078000", "175353.093000", "175353.093000", "175353.093000", "175353.093000", "175353.093000", "175353.093000", "175353.093000", "175353.109000", "175353.109000", "175353.109000", "175353.109000", "175353.109000", "175353.109000", "175353.109000", "175353.125000", "175353.125000", "175353.125000", "175453.046000", "175453.062000", "175453.062000", "175453.078000", "175453.078000", "175453.078000", "175453.078000", "175453.078000", "175453.078000", "175453.078000", "175453.093000", "175453.093000", "175453.093000", "175453.093000", "175453.093000", "175453.093000", "175453.093000", "175453.109000", "175453.109000", "175453.109000", "175453.109000", "175453.125000", "175453.125000", "175453.125000", "175453.125000", "175453.125000", "175453.125000", "175453.125000", "175453.140000", "175553.046000", "175553.062000", "175553.062000", "175553.062000", "175553.062000", "175553.062000", "175553.062000", "175553.062000", "175553.078000", "175553.078000", "175553.078000", "175553.078000", "175553.078000", "175553.078000", "175553.093000", "175553.093000", "175553.093000", "175553.109000", "175553.109000", "175553.109000", "175553.109000", "175553.109000", "175553.109000", "175553.109000", "175553.125000", "175553.125000", "175553.125000", "175553.125000", "175653.046000", "175653.062000", "175653.062000", "175653.062000", "175653.062000", "175653.062000", "175653.062000", "175653.078000", "175653.078000", "175653.078000", "175653.078000", "175653.093000", "175653.093000", "175653.093000", "175653.093000", "175653.093000", "175653.109000", "175653.109000", "175653.109000", "175653.109000", "175653.109000", "175653.109000", "175653.125000", "175653.125000", "175653.125000", "175653.125000", "175653.140000", "175653.140000", "175753.046000", "175753.062000", "175753.062000", "175753.062000", "175753.062000", "175753.078000", "175753.078000", "175753.078000", "175753.078000", "175753.078000", "175753.078000", "175753.078000", "175753.078000", "175753.093000", "175753.093000", "175753.093000", "175753.093000", "175753.093000", "175753.093000", "175753.093000", "175753.109000", "175753.109000", "175753.109000", "175753.109000", "175753.125000", "175753.125000", "175753.125000", "175753.125000", "175753.125000", "175853.046000", "175853.062000", "175853.062000", "175853.062000", "175853.062000", "175853.062000", "175853.062000", "175853.078000", "175853.078000", "175853.078000", "175853.078000", "175853.078000", "175853.078000", "175853.078000", "175853.093000", "175853.093000", "175853.093000", "175853.093000", "175853.093000", "175853.109000", "175853.109000", "175853.109000", "175853.109000", "175853.109000", "175853.109000", "175853.109000", "175853.125000", "175853.125000", "175913.046000", "175913.062000", "175913.062000", "175913.062000", "175913.062000", "175913.078000", "175913.078000", "175913.078000", "175913.078000", "180013.046000", "180013.062000", "180013.062000", "180013.062000", "180013.062000", "180013.062000", "180013.062000", "180013.062000", "180013.078000", "180013.078000", "180013.078000", "180013.078000", "180013.078000", "180013.078000", "180013.093000", "180013.093000", "180013.109000", "180013.109000", "180013.109000", "180013.109000", "180013.125000", "180013.125000", "180013.125000", "180013.125000", "180013.125000", "180013.125000", "180013.125000", "180013.140000", "180013.140000", "180113.046000", "180113.062000", "180113.062000", "180113.062000", "180113.062000", "180113.062000", "180113.062000", "180113.078000", "180113.078000", "180113.078000", "180113.078000", "180113.093000", "180113.093000", "180113.093000", "180113.093000", "180113.093000", "180113.093000", "180113.093000", "180113.109000", "180113.109000", "180113.109000", "180113.109000", "180113.109000", "180113.109000", "180113.125000", "180113.125000", "180113.140000", "180113.140000", "180213.046000", "180213.062000", "180213.062000", "180213.062000", "180213.062000", "180213.078000", "180213.078000", "180213.078000", "180213.078000", "180213.078000", "180213.078000", "180213.078000", "180213.093000", "180213.093000", "180213.093000", "180213.093000", "180213.109000", "180213.109000", "180213.109000", "180213.109000", "180213.109000", "180213.125000", "180213.125000", "180213.125000", "180213.125000", "180213.125000", "180213.125000", "180213.140000", "180313.046000", "180313.062000", "180313.062000", "180313.062000", "180313.062000", "180313.062000", "180313.062000", "180313.078000", "180313.078000", "180313.078000", "180313.078000", "180313.078000", "180313.078000", "180313.078000", "180313.093000", "180313.093000", "180313.093000", "180313.109000", "180313.109000", "180313.109000", "180313.109000", "180313.109000", "180313.109000", "180313.109000", "180313.125000", "180313.125000", "180313.125000", "180313.125000", "180313.125000", "180413.046000", "180413.062000", "180413.062000", "180413.062000", "180413.062000", "180413.062000", "180413.062000", "180413.078000", "180413.078000", "180413.078000", "180413.093000", "180413.093000", "180413.093000", "180413.093000", "180413.093000", "180413.093000", "180413.109000", "180413.109000", "180413.109000", "180413.109000", "180413.125000", "180413.125000", "180413.125000", "180413.125000", "180413.125000", "180413.125000", "180413.140000", "180413.140000", "180513.046000", "180513.062000", "180513.062000", "180513.062000", "180513.062000", "180513.062000", "180513.078000", "180513.078000", "180513.078000", "180513.078000", "180513.078000", "180513.093000", "180513.093000", "180513.093000", "180513.093000", "180513.093000", "180513.093000", "180513.093000", "180513.109000", "180513.109000", "180513.109000", "180513.109000", "180513.125000", "180513.125000", "180513.125000", "180513.125000", "180513.125000", "180513.125000", "180613.046000", "180613.062000", "180613.062000", "180613.062000", "180613.062000", "180613.062000", "180613.062000", "180613.062000", "180613.078000", "180613.078000", "180613.078000", "180613.078000", "180613.078000", "180613.078000", "180613.078000", "180613.093000", "180613.093000", "180613.109000", "180613.109000", "180613.109000", "180613.109000", "180613.109000", "180613.109000", "180613.109000", "180613.125000", "180613.125000", "180613.125000", "180613.125000", "180613.125000", "180713.046000", "180713.062000", "180713.062000", "180713.062000", "180713.062000", "180713.062000", "180713.062000", "180713.078000", "180713.078000", "180713.078000", "180713.078000", "180713.078000", "180713.078000", "180713.093000", "180713.093000", "180713.093000", "180713.093000", "180713.093000", "180713.093000", "180713.093000", "180713.109000", "180713.109000", "180713.109000", "180713.109000", "180713.109000", "180713.109000", "180713.109000", "180713.125000", "180813.046000", "180813.062000", "180813.062000", "180813.062000", "180813.062000", "180813.062000", "180813.062000", "180813.078000", "180813.078000", "180813.078000", "180813.078000", "180813.093000", "180813.093000", "180813.093000", "180813.093000", "180813.093000", "180813.093000", "180813.109000", "180813.109000", "180813.109000", "180813.109000", "180813.109000", "180813.109000", "180813.125000", "180813.125000", "180813.125000", "180813.125000", "180813.125000", "180857.281000", "180857.281000", "180857.281000", "180857.281000", "180857.281000", "180857.281000", "180857.296000", "180857.296000", "180857.296000", "180857.296000", "180857.296000", "180857.296000", "180857.296000", "180857.312000", "180857.312000", "180857.312000", "180857.328000", "180857.328000", "180857.328000", "180857.328000", "180857.328000", "180857.328000"],
