{
  "AcquisitionMatrixPE": 104,
  "AcquisitionNumber": 1,
  "AcquisitionTime": "11:32:33.725000",
  "BandwidthPerPixelPhaseEncode": 13.935,
  "BaseResolution": 104,
  "CoilString": "C:HEA;HEP",
  "ConversionSoftware": "dcm2niix",
  "ConversionSoftwareVersion": "v1.0.20210317",
  "DerivedVendorReportedEchoSpacing": 0.000690017,
  "DeviceSerialNumber": "35450",
  "DwellTime": 2.5e-06,
  "EchoTime": 0.0348,
  "EffectiveEchoSpacing": 0.000690017,
  "FlipAngle": 55,
  "ImageComments": "Unaliased MB8/PE3 (remote)",
  "ImageOrientationPatientDICOM": [0.999784, 0.000796899, 0.0207445, 7.43641e-09, 0.999263, -0.0383871],
  "ImageType": [
    "ORIGINAL",
    "PRIMARY",
    "M",
    "MB",
    "ND",
    "MOSAIC"
],
  "ImagingFrequency": 123.234,
  "InPlanePhaseEncodingDirectionDICOM": "COL",
  "InstitutionAddress": "Univeristy Ave. 197,Newark,North East,US,07102-1814",
  "InstitutionName": "RUBIC",
  "InstitutionalDepartmentName": "Department",
  "MRAcquisitionType": "2D",
  "MagneticFieldStrength": 3,
  "Manufacturer": "Siemens",
  "ManufacturersModelName": "TrioTim",
  "Modality": "MR",
  "MultibandAccelerationFactor": 8,
  "PartialFourier": 0.875,
  "PatientPosition": "HFS",
  "PercentPhaseFOV": 100,
  "PercentSampling": 100,
  "PhaseEncodingDirection": "j-",
  "PhaseEncodingSteps": 91,
  "PhaseResolution": 1,
  "PixelBandwidth": 1923,
  "ProcedureStepDescription": "Cole^Michael",
  "ProtocolName": "cmrr_mbep2d_bold_2mm_MB8_Task_8x",
  "PulseSequenceDetails": "%CustomerSeq%\\cmrr_mbep2d_bold",
  "ReceiveCoilName": "32Ch_Head",
  "ReconMatrixPE": 104,
  "RepetitionTime": 0.785,
  "SAR": 0.121206,
  "ScanOptions": "PFP\\FS",
  "ScanningSequence": "EP",
  "SequenceName": "epfid2d1_104",
  "SequenceVariant": "SK\\SS",
  "SeriesDescription": "cmrr_mbep2d_bold_2mm_MB8_Task_8x",
  "SeriesNumber": 15,
  "ShimSetting": [2133, -475, -7193, 335, 4, -77, -214, 94],
  "SliceThickness": 2,
  "SliceTiming": [0, 0.4375, 0.0875, 0.525, 0.175, 0.6125, 0.2625, 0.7, 0.35, 0, 0.4375, 0.0875, 0.525, 0.175, 0.6125, 0.2625, 0.7, 0.35, 0, 0.4375, 0.0875, 0.525, 0.175, 0.6125, 0.2625, 0.7, 0.35, 0, 0.4375, 0.0875, 0.525, 0.175, 0.6125, 0.2625, 0.7, 0.35, 0, 0.4375, 0.0875, 0.525, 0.175, 0.6125, 0.2625, 0.7, 0.35, 0, 0.4375, 0.0875, 0.525, 0.175, 0.6125, 0.2625, 0.7, 0.35, 0, 0.4375, 0.0875, 0.525, 0.175, 0.6125, 0.2625, 0.7, 0.35, 0, 0.4375, 0.0875, 0.525, 0.175, 0.6125, 0.2625, 0.7, 0.35],
  "SoftwareVersions": "syngo MR B19",
  "SpacingBetweenSlices": 2,
  "StationName": "MRC35450",
  "TaskName": "cpro",
  "TotalReadoutTime": 0.0710717,
  "TxRefAmp": 319.569,
  "dcmmeta_affine": [
    [-1.9995689392089844, 1.4872817644118186e-08, 0.04151950776576996, 101.12844848632812],
    [-0.0015937975840643048, 1.998525857925415, -0.07675760984420776, -70.0103759765625],
    [0.041488904505968094, 0.07677415013313293, 1.9980952739715576, -100.8836441040039],
    [0.0, 0.0, 0.0, 1.0]
],
  "dcmmeta_reorient_transform": [
    [0.0, -1.0, 0.0, 103.0],
    [1.0, 0.0, 0.0, 0.0],
    [0.0, 0.0, 1.0, 0.0],
    [0.0, 0.0, 0.0, 1.0]
],
  "dcmmeta_shape": [104, 104, 72, 581],
  "dcmmeta_slice_dim": 2,
  "dcmmeta_version": 0.6,
  "global": {
    "const": {
      "AcquisitionMatrix": [104, 0, 0, 104],
      "AngioFlag": "N",
      "BitsAllocated": 16,
      "BitsStored": 12,
      "Columns": 936,
      "EchoNumbers": 1,
      "EchoTime": 34.8,
      "EchoTrainLength": 1,
      "FlipAngle": 55.0,
      "HighBit": 11,
      "ImageOrientationPatient": [0.99978449309807, 0.00079689880947, 0.02074445258201, 7.436409e-09, 0.99926294455824, -0.0383870763773],
      "ImagePositionPatient": [-932.94915614773, -967.88758115646, -78.297241737518],
      "ImageType": [
        "ORIGINAL",
        "PRIMARY",
        "M",
        "MB",
        "ND",
        "MOSAIC"
],
      "ImagedNucleus": "1H",
      "ImagingFrequency": 123.234476,
      "InPlanePhaseEncodingDirection": "COL",
      "MRAcquisitionType": "2D",
      "MagneticFieldStrength": 3.0,
      "Manufacturer": "SIEMENS",
      "ManufacturerModelName": "TrioTim",
      "Modality": "MR",
      "NumberOfAverages": 1.0,
      "NumberOfPhaseEncodingSteps": 91,
      "PercentPhaseFieldOfView": 100.0,
      "PercentSampling": 100.0,
      "PerformedProcedureStepStartTime": "100952.953000",
      "PhotometricInterpretation": "MONOCHROME2",
      "PixelBandwidth": 1923.0,
      "PixelRepresentation": 0,
      "PixelSpacing": [2.0, 2.0],
      "ProtocolName": "cmrr_mbep2d_bold_2mm_MB8_Task_8x",
      "RepetitionTime": 785.0,
      "Rows": 936,
      "SAR": 0.12120559906608,
      "SamplesPerPixel": 1,
      "ScanOptions": [
        "PFP",
        "FS"
],
      "ScanningSequence": "EP",
      "SequenceName": "epfid2d1_104",
      "SequenceVariant": [
        "SK",
        "SS"
],
      "SeriesDescription": "cmrr_mbep2d_bold_2mm_MB8_Task_8x",
      "SeriesNumber": 15,
      "SeriesTime": "113255.578000",
      "SliceLocation": -96.001244394221,
      "SliceThickness": 2.0,
      "SmallestImagePixelValue": 0,
      "SoftwareVersions": "syngo MR B19",
      "SpacingBetweenSlices": 2.0000000377246,
      "SpecificCharacterSet": "ISO_IR 100",
      "StudyID": "1",
      "StudyTime": "100952.843000",
      "TransmitCoilName": "Body",
      "VariableFlipAngleFlag": "N",
      "WindowCenterWidthExplanation": "Algo1",
      "dBdt": 0.0},
    "slices": {}
  },
  "time": {
    "samples": {
      "AcquisitionNumber": [1, 2, 3, 4, 5, 6, 7, 8, 9, 10, 11, 12, 13, 14, 15, 16, 17, 18, 19, 20, 21, 22, 23, 24, 25, 26, 27, 28, 29, 30, 31, 32, 33, 34, 35, 36, 37, 38, 39, 40, 41, 42, 43, 44, 45, 46, 47, 48, 49, 50, 51, 52, 53, 54, 55, 56, 57, 58, 59, 60, 61, 62, 63, 64, 65, 66, 67, 68, 69, 70, 71, 72, 73, 74, 75, 76, 77, 78, 79, 80, 81, 82, 83, 84, 85, 86, 87, 88, 89, 90, 91, 92, 93, 94, 95, 96, 97, 98, 99, 100, 101, 102, 103, 104, 105, 106, 107, 108, 109, 110, 111, 112, 113, 114, 115, 116, 117, 118, 119, 120, 121, 122, 123, 124, 125, 126, 127, 128, 129, 130, 131, 132, 133, 134, 135, 136, 137, 138, 139, 140, 141, 142, 143, 144, 145, 146, 147, 148, 149, 150, 151, 152, 153, 154, 155, 156, 157, 158, 159, 160, 161, 162, 163, 164, 165, 166, 167, 168, 169, 170, 171, 172, 173, 174, 175, 176, 177, 178, 179, 180, 181, 182, 183, 184, 185, 186, 187, 188, 189, 190, 191, 192, 193, 194, 195, 196, 197, 198, 199, 200, 201, 202, 203, 204, 205, 206, 207, 208, 209, 210, 211, 212, 213, 214, 215, 216, 217, 218, 219, 220, 221, 222, 223, 224, 225, 226, 227, 228, 229, 230, 231, 232, 233, 234, 235, 236, 237, 238, 239, 240, 241, 242, 243, 244, 245, 246, 247, 248, 249, 250, 251, 252, 253, 254, 255, 256, 257, 258, 259, 260, 261, 262, 263, 264, 265, 266, 267, 268, 269, 270, 271, 272, 273, 274, 275, 276, 277, 278, 279, 280, 281, 282, 283, 284, 285, 286, 287, 288, 289, 290, 291, 292, 293, 294, 295, 296, 297, 298, 299, 300, 301, 302, 303, 304, 305, 306, 307, 308, 309, 310, 311, 312, 313, 314, 315, 316, 317, 318, 319, 320, 321, 322, 323, 324, 325, 326, 327, 328, 329, 330, 331, 332, 333, 334, 335, 336, 337, 338, 339, 340, 341, 342, 343, 344, 345, 346, 347, 348, 349, 350, 351, 352, 353, 354, 355, 356, 357, 358, 359, 360, 361, 362, 363, 364, 365, 366, 367, 368, 369, 370, 371, 372, 373, 374, 375, 376, 377, 378, 379, 380, 381, 382, 383, 384, 385, 386, 387, 388, 389, 390, 391, 392, 393, 394, 395, 396, 397, 398, 399, 400, 401, 402, 403, 404, 405, 406, 407, 408, 409, 410, 411, 412, 413, 414, 415, 416, 417, 418, 419, 420, 421, 422, 423, 424, 425, 426, 427, 428, 429, 430, 431, 432, 433, 434, 435, 436, 437, 438, 439, 440, 441, 442, 443, 444, 445, 446, 447, 448, 449, 450, 451, 452, 453, 454, 455, 456, 457, 458, 459, 460, 461, 462, 463, 464, 465, 466, 467, 468, 469, 470, 471, 472, 473, 474, 475, 476, 477, 478, 479, 480, 481, 482, 483, 484, 485, 486, 487, 488, 489, 490, 491, 492, 493, 494, 495, 496, 497, 498, 499, 500, 501, 502, 503, 504, 505, 506, 507, 508, 509, 510, 511, 512, 513, 514, 515, 516, 517, 518, 519, 520, 521, 522, 523, 524, 525, 526, 527, 528, 529, 530, 531, 532, 533, 534, 535, 536, 537, 538, 539, 540, 541, 542, 543, 544, 545, 546, 547, 548, 549, 550, 551, 552, 553, 554, 555, 556, 557, 558, 559, 560, 561, 562, 563, 564, 565, 566, 567, 568, 569, 570, 571, 572, 573, 574, 575, 576, 577, 578, 579, 580, 581],
      "AcquisitionTime": ["113233.725000", "113234.512500", "113235.300000", "113236.090000", "113236.877500", "113237.665000", "113238.452500", "113239.242500", "113240.030000", "113240.817500", "113241.605000", "113242.395000", "113243.182500", "113243.970000", "113244.757500", "113245.547500", "113246.335000", "113247.122500", "113247.910000", "113248.700000", "113249.487500", "113250.275000", "113251.065000", "113251.852500", "113252.640000", "113253.427500", "113254.217500", "113255.005000", "113255.792500", "113256.580000", "113257.370000", "113258.157500", "113258.945000", "113259.732500", "113300.522500", "113301.310000", "113302.097500", "113302.885000", "113303.675000", "113304.462500", "113305.250000", "113306.037500", "113306.827500", "113307.615000", "113308.402500", "113309.192500", "113309.980000", "113310.767500", "113311.555000", "113312.345000", "113313.132500", "113313.920000", "113314.707500", "113315.497500", "113316.285000", "113317.072500", "113317.860000", "113318.650000", "113319.437500", "113320.225000", "113321.012500", "113321.802500", "113322.590000", "113323.377500", "113324.165000", "113324.955000", "113325.742500", "113326.530000", "113327.320000", "113328.107500", "113328.895000", "113329.682500", "113330.472500", "113331.260000", "113332.047500", "113332.835000", "113333.625000", "113334.412500", "113335.200000", "113335.987500", "113336.777500", "113337.565000", "113338.352500", "113339.140000", "113339.930000", "113340.717500", "113341.505000", "113342.292500", "113343.082500", "113343.870000", "113344.657500", "113345.447500", "113346.235000", "113347.022500", "113347.810000", "113348.600000", "113349.387500", "113350.175000", "113350.962500", "113351.752500", "113352.540000", "113353.327500", "113354.115000", "113354.905000", "113355.692500", "113356.480000", "113357.267500", "113358.057500", "113358.845000", "113359.632500", "113400.420000", "113401.210000", "113401.997500", "113402.785000", "113403.575000", "113404.362500", "113405.150000", "113405.937500", "113406.727500", "113407.515000", "113408.302500", "113409.090000", "113409.880000", "113410.667500", "113411.455000", "113412.242500", "113413.032500", "113413.820000", "113414.607500", "113415.395000", "113416.185000", "113416.972500", "113417.760000", "113418.547500", "113419.337500", "113420.125000", "113420.912500", "113421.702500", "113422.490000", "113423.277500", "113424.065000", "113424.855000", "113425.642500", "113426.430000", "113427.217500", "113428.007500", "113428.795000", "113429.582500", "113430.370000", "113431.160000", "113431.947500", "113432.735000", "113433.522500", "113434.312500", "113435.100000", "113435.887500", "113436.675000", "113437.465000", "113438.252500", "113439.040000", "113439.830000", "113440.617500", "113441.405000", "113442.192500", "113442.982500", "113443.770000", "113444.557500", "113445.345000", "113446.135000", "113446.922500", "113447.710000", "113448.497500", "113449.287500", "113450.075000", "113450.862500", "113451.650000", "113452.440000", "113453.227500", "113454.015000", "113454.802500", "113455.592500", "113456.380000", "113457.167500", "113457.957500", "113458.745000", "113459.532500", "113500.320000", "113501.110000", "113501.897500", "113502.685000", "113503.472500", "113504.262500", "113505.050000", "113505.837500", "113506.625000", "113507.415000", "113508.202500", "113508.990000", "113509.777500", "113510.567500", "113511.355000", "113512.142500", "113512.930000", "113513.720000", "113514.507500", "113515.295000", "113516.085000", "113516.872500", "113517.660000", "113518.447500", "113519.237500", "113520.025000", "113520.812500", "113521.600000", "113522.390000", "113523.177500", "113523.965000", "113524.752500", "113525.542500", "113526.330000", "113527.117500", "113527.905000", "113528.695000", "113529.482500", "113530.270000", "113531.060000", "113531.847500", "113532.635000", "113533.422500", "113534.212500", "113535.000000", "113535.787500", "113536.575000", "113537.365000", "113538.152500", "113538.940000", "113539.727500", "113540.517500", "113541.305000", "113542.092500", "113542.880000", "113543.670000", "113544.457500", "113545.245000", "113546.032500", "113546.822500", "113547.610000", "113548.397500", "113549.187500", "113549.975000", "113550.762500", "113551.550000", "113552.340000", "113553.127500", "113553.915000", "113554.702500", "113555.492500", "113556.280000", "113557.067500", "113557.855000", "113558.645000", "113559.432500", "113600.220000", "113601.007500", "113601.797500", "113602.585000", "113603.372500", "113604.160000", "113604.950000", "113605.737500", "113606.525000", "113607.315000", "113608.102500", "113608.890000", "113609.677500", "113610.467500", "113611.255000", "113612.042500", "113612.830000", "113613.620000", "113614.407500", "113615.195000", "113615.982500", "113616.772500", "113617.560000", "113618.347500", "113619.135000", "113619.925000", "113620.712500", "113621.500000", "113622.287500", "113623.077500", "113623.865000", "113624.652500", "113625.442500", "113626.230000", "113627.017500", "113627.805000", "113628.595000", "113629.382500", "113630.170000", "113630.957500", "113631.747500", "113632.535000", "113633.322500", "113634.110000", "113634.900000", "113635.687500", "113636.475000", "113637.262500", "113638.052500", "113638.840000", "113639.627500", "113640.415000", "113641.205000", "113641.992500", "113642.780000", "113643.570000", "113644.357500", "113645.145000", "113645.932500", "113646.722500", "113647.510000", "113648.297500", "113649.085000", "113649.875000", "113650.662500", "113651.450000", "113652.237500", "113653.027500", "113653.815000", "113654.602500", "113655.390000", "113656.180000", "113656.967500", "113657.755000", "113658.542500", "113659.332500", "113700.120000", "113700.907500", "113701.697500", "113702.485000", "113703.272500", "113704.060000", "113704.850000", "113705.637500", "113706.425000", "113707.212500", "113708.002500", "113708.790000", "113709.577500", "113710.365000", "113711.155000", "113711.942500", "113712.730000", "113713.517500", "113714.307500", "113715.095000", "113715.882500", "113716.670000", "113717.460000", "113718.247500", "113719.035000", "113719.825000", "113720.612500", "113721.400000", "113722.187500", "113722.977500", "113723.765000", "113724.552500", "113725.340000", "113726.130000", "113726.917500", "113727.705000", "113728.492500", "113729.282500", "113730.070000", "113730.857500", "113731.645000", "113732.435000", "113733.222500", "113734.010000", "113734.797500", "113735.587500", "113736.375000", "113737.162500", "113737.952500", "113738.740000", "113739.527500", "113740.315000", "113741.105000", "113741.892500", "113742.680000", "113743.467500", "113744.257500", "113745.045000", "113745.832500", "113746.620000", "113747.410000", "113748.197500", "113748.985000", "113749.772500", "113750.562500", "113751.350000", "113752.137500", "113752.925000", "113753.715000", "113754.502500", "113755.290000", "113756.080000", "113756.867500", "113757.655000", "113758.442500", "113759.232500", "113800.020000", "113800.807500", "113801.595000", "113802.385000", "113803.172500", "113803.960000", "113804.747500", "113805.537500", "113806.325000", "113807.112500", "113807.900000", "113808.690000", "113809.477500", "113810.265000", "113811.052500", "113811.842500", "113812.630000", "113813.417500", "113814.207500", "113814.995000", "113815.782500", "113816.570000", "113817.360000", "113818.147500", "113818.935000", "113819.722500", "113820.512500", "113821.300000", "113822.087500", "113822.875000", "113823.665000", "113824.452500", "113825.240000", "113826.027500", "113826.817500", "113827.605000", "113828.392500", "113829.180000", "113829.970000", "113830.757500", "113831.545000", "113832.335000", "113833.122500", "113833.910000", "113834.697500", "113835.487500", "113836.275000", "113837.062500", "113837.850000", "113838.640000", "113839.427500", "113840.215000", "113841.002500", "113841.792500", "113842.580000", "113843.367500", "113844.155000", "113844.945000", "113845.732500", "113846.520000", "113847.310000", "113848.097500", "113848.885000", "113849.672500", "113850.462500", "113851.250000", "113852.037500", "113852.825000", "113853.615000", "113854.402500", "113855.190000", "113855.977500", "113856.767500", "113857.555000", "113858.342500", "113859.130000", "113859.920000", "113900.707500", "113901.495000", "113902.282500", "113903.072500", "113903.860000", "113904.647500", "113905.437500", "113906.225000", "113907.012500", "113907.800000", "113908.590000", "113909.377500", "113910.165000", "113910.952500", "113911.742500", "113912.530000", "113913.317500", "113914.105000", "113914.895000", "113915.682500", "113916.470000", "113917.257500", "113918.047500", "113918.835000", "113919.622500", "113920.410000", "113921.200000", "113921.987500", "113922.775000", "113923.565000", "113924.352500", "113925.140000", "113925.927500", "113926.717500", "113927.505000", "113928.292500", "113929.080000", "113929.870000", "113930.657500", "113931.445000", "113932.232500", "113933.022500", "113933.810000", "113934.597500", "113935.385000", "113936.175000", "113936.962500", "113937.750000", "113938.537500", "113939.327500", "113940.115000", "113940.902500", "113941.692500", "113942.480000", "113943.267500", "113944.055000", "113944.845000", "113945.632500", "113946.420000", "113947.207500", "113947.997500", "113948.785000", "113949.572500", "113950.360000", "113951.150000", "113951.937500", "113952.725000", "113953.512500", "113954.302500", "113955.090000", "113955.877500", "113956.665000", "113957.455000", "113958.242500", "113959.030000", "113959.820000", "114000.607500", "114001.395000", "114002.182500", "114002.972500", "114003.760000", "114004.547500", "114005.335000", "114006.125000", "114006.912500", "114007.700000", "114008.487500", "114009.277500", "114010.065000", "114010.852500"],
      "ContentTime": ["113255.578000", "113255.593000", "113255.593000", "113255.593000", "113255.593000", "113255.593000", "113255.593000", "113255.593000", "113255.593000", "113255.609000", "113255.609000", "113255.609000", "113255.609000", "113255.609000", "113255.609000", "113255.609000", "113255.609000", "113255.625000", "113255.625000", "113255.625000", "113255.625000", "113255.625000", "113255.625000", "113255.625000", "113255.640000", "113315.546000", "113315.546000", "113315.562000", "113315.562000", "113315.562000", "113315.562000", "113315.562000", "113315.562000", "113315.562000", "113315.562000", "113315.578000", "113315.578000", "113315.578000", "113315.578000", "113315.578000", "113315.593000", "113315.593000", "113315.593000", "113315.593000", "113315.593000", "113315.593000", "113315.593000", "113315.593000", "113315.609000", "113315.609000", "113315.609000", "113335.546000", "113335.546000", "113335.562000", "113335.562000", "113335.562000", "113335.562000", "113335.562000", "113335.562000", "113335.562000", "113335.562000", "113335.578000", "113335.578000", "113335.578000", "113335.578000", "113335.578000", "113335.578000", "113335.578000", "113335.593000", "113335.593000", "113335.593000", "113335.593000", "113335.593000", "113335.593000", "113335.593000", "113335.609000", "113355.546000", "113355.546000", "113355.562000", "113355.562000", "113355.562000", "113355.562000", "113355.562000", "113355.562000", "113355.562000", "113355.562000", "113355.578000", "113355.578000", "113355.578000", "113355.578000", "113355.578000", "113355.578000", "113355.578000", "113355.593000", "113355.593000", "113355.593000", "113355.593000", "113355.593000", "113355.593000", "113355.609000", "113355.609000", "113355.609000", "113415.546000", "113415.546000", "113415.562000", "113415.562000", "113415.562000", "113415.562000", "113415.562000", "113415.562000", "113415.562000", "113415.562000", "113415.578000", "113415.578000", "113415.578000", "113415.578000", "113415.578000", "113415.578000", "113415.578000", "113415.593000", "113415.593000", "113415.593000", "113415.593000", "113415.593000", "113415.593000", "113415.593000", "113415.609000", "113435.546000", "113435.546000", "113435.562000", "113435.562000", "113435.562000", "113435.562000", "113435.562000", "113435.562000", "113435.562000", "113435.562000", "113435.578000", "113435.578000", "113435.578000", "113435.578000", "113435.578000", "113435.593000", "113435.593000", "113435.593000", "113435.593000", "113435.593000", "113435.593000", "113435.593000", "113435.609000", "113435.609000", "113435.609000", "113435.609000", "113455.546000", "113455.546000", "113455.562000", "113455.562000", "113455.562000", "113455.562000", "113455.562000", "113455.562000", "113455.562000", "113455.562000", "113455.578000", "113455.578000", "113455.578000", "113455.578000", "113455.578000", "113455.593000", "113455.593000", "113455.593000", "113455.593000", "113455.593000", "113455.593000", "113455.593000", "113455.609000", "113455.609000", "113455.609000", "113515.546000", "113515.546000", "113515.562000", "113515.562000", "113515.562000", "113515.562000", "113515.562000", "113515.562000", "113515.562000", "113515.578000", "113515.578000", "113515.578000", "113515.578000", "113515.578000", "113515.578000", "113515.578000", "113515.578000", "113515.593000", "113515.593000", "113515.593000", "113515.593000", "113515.593000", "113515.593000", "113515.593000", "113515.593000", "113515.609000", "113535.546000", "113535.546000", "113535.562000", "113535.562000", "113535.562000", "113535.562000", "113535.562000", "113535.562000", "113535.562000", "113535.562000", "113535.578000", "113535.578000", "113535.578000", "113535.578000", "113535.578000", "113535.578000", "113535.578000", "113535.593000", "113535.593000", "113535.593000", "113535.593000", "113535.593000", "113535.593000", "113535.593000", "113535.593000", "113555.546000", "113555.546000", "113555.562000", "113555.562000", "113555.562000", "113555.562000", "113555.562000", "113555.562000", "113555.562000", "113555.578000", "113555.578000", "113555.578000", "113555.578000", "113555.578000", "113555.578000", "113555.578000", "113555.578000", "113555.593000", "113555.593000", "113555.593000", "113555.593000", "113555.593000", "113555.593000", "113555.593000", "113555.593000", "113555.609000", "113615.546000", "113615.546000", "113615.562000", "113615.562000", "113615.562000", "113615.562000", "113615.562000", "113615.578000", "113615.578000", "113615.578000", "113615.578000", "113615.578000", "113615.578000", "113615.593000", "113615.593000", "113615.593000", "113615.593000", "113615.593000", "113615.593000", "113615.593000", "113615.609000", "113615.609000", "113615.609000", "113615.609000", "113615.609000", "113635.546000", "113635.546000", "113635.562000", "113635.562000", "113635.562000", "113635.562000", "113635.562000", "113635.562000", "113635.562000", "113635.562000", "113635.578000", "113635.578000", "113635.578000", "113635.578000", "113635.578000", "113635.578000", "113635.578000", "113635.593000", "113635.593000", "113635.593000", "113635.593000", "113635.593000", "113635.593000", "113635.593000", "113635.609000", "113635.609000", "113655.546000", "113655.546000", "113655.562000", "113655.562000", "113655.562000", "113655.562000", "113655.562000", "113655.562000", "113655.562000", "113655.562000", "113655.578000", "113655.578000", "113655.578000", "113655.578000", "113655.578000", "113655.578000", "113655.578000", "113655.593000", "113655.593000", "113655.593000", "113655.593000", "113655.593000", "113655.593000", "113655.593000", "113655.593000", "113715.546000", "113715.546000", "113715.562000", "113715.562000", "113715.562000", "113715.562000", "113715.562000", "113715.562000", "113715.562000", "113715.562000", "113715.578000", "113715.578000", "113715.578000", "113715.578000", "113715.578000", "113715.578000", "113715.578000", "113715.593000", "113715.593000", "113715.593000", "113715.593000", "113715.593000", "113715.593000", "113715.609000", "113715.609000", "113715.609000", "113735.546000", "113735.546000", "113735.562000", "113735.562000", "113735.562000", "113735.562000", "113735.562000", "113735.562000", "113735.562000", "113735.578000", "113735.578000", "113735.578000", "113735.578000", "113735.578000", "113735.578000", "113735.578000", "113735.578000", "113735.593000", "113735.593000", "113735.593000", "113735.593000", "113735.593000", "113735.609000", "113735.609000", "113735.609000", "113755.546000", "113755.546000", "113755.562000", "113755.562000", "113755.562000", "113755.562000", "113755.562000", "113755.562000", "113755.562000", "113755.562000", "113755.578000", "113755.578000", "113755.578000", "113755.578000", "113755.578000", "113755.578000", "113755.578000", "113755.593000", "113755.593000", "113755.593000", "113755.593000", "113755.593000", "113755.593000", "113755.609000", "113755.609000", "113755.609000", "113815.546000", "113815.546000", "113815.562000", "113815.562000", "113815.562000", "113815.562000", "113815.562000", "113815.562000", "113815.562000", "113815.562000", "113815.578000", "113815.578000", "113815.578000", "113815.578000", "113815.578000", "113815.578000", "113815.578000", "113815.593000", "113815.593000", "113815.593000", "113815.593000", "113815.593000", "113815.593000", "113815.593000", "113815.609000", "113835.546000", "113835.546000", "113835.562000", "113835.562000", "113835.562000", "113835.562000", "113835.562000", "113835.562000", "113835.562000", "113835.562000", "113835.578000", "113835.578000", "113835.578000", "113835.578000", "113835.578000", "113835.593000", "113835.593000", "113835.593000", "113835.593000", "113835.593000", "113835.593000", "113835.593000", "113835.593000", "113835.609000", "113835.609000", "113835.609000", "113855.546000", "113855.546000", "113855.562000", "113855.562000", "113855.562000", "113855.562000", "113855.562000", "113855.578000", "113855.578000", "113855.578000", "113855.578000", "113855.578000", "113855.578000", "113855.578000", "113855.578000", "113855.593000", "113855.593000", "113855.593000", "113855.593000", "113855.593000", "113855.593000", "113855.593000", "113855.609000", "113855.609000", "113855.609000", "113915.546000", "113915.546000", "113915.562000", "113915.562000", "113915.562000", "113915.562000", "113915.562000", "113915.562000", "113915.578000", "113915.578000", "113915.578000", "113915.578000", "113915.578000", "113915.578000", "113915.578000", "113915.593000", "113915.593000", "113915.593000", "113915.593000", "113915.593000", "113915.593000", "113915.593000", "113915.593000", "113915.609000", "113915.609000", "113935.546000", "113935.546000", "113935.562000", "113935.562000", "113935.562000", "113935.562000", "113935.562000", "113935.562000", "113935.562000", "113935.562000", "113935.578000", "113935.578000", "113935.578000", "113935.578000", "113935.578000", "113935.593000", "113935.593000", "113935.593000", "113935.593000", "113935.593000", "113935.593000", "113935.593000", "113935.609000", "113935.609000", "113935.609000", "113935.609000", "113955.546000", "113955.546000", "113955.562000", "113955.562000", "113955.562000", "113955.562000", "113955.562000", "113955.562000", "113955.562000", "113955.578000", "113955.578000", "113955.578000", "113955.578000", "113955.578000", "113955.578000", "113955.578000", "113955.593000", "113955.593000", "113955.593000", "113955.593000", "113955.593000", "113955.593000", "113955.609000", "113955.609000", "113955.609000", "114011.359000", "114011.359000", "114011.359000", "114011.375000", "114011.375000", "114011.375000", "114011.375000", "114011.375000", "114011.390000", "114011.390000", "114011.390000", "114011.390000", "114011.390000", "114011.390000", "114011.390000", "114011.406000", "114011.406000", "114011.406000", "114011.406000", "114011.406000", "114011.406000"],
