{
  "AcquisitionMatrixPE": 104,
  "AcquisitionNumber": 1,
  "AcquisitionTime": "11:24:34.612500",
  "BandwidthPerPixelPhaseEncode": 13.935,
  "BaseResolution": 104,
  "CoilString": "C:HEA;HEP",
  "ConversionSoftware": "dcm2niix",
  "ConversionSoftwareVersion": "v1.0.20210317",
  "DerivedVendorReportedEchoSpacing": 0.000690017,
  "DeviceSerialNumber": "35450",
  "DwellTime": 2.5e-06,
  "EchoTime": 0.0348,
  "EffectiveEchoSpacing": 0.000690017,
  "FlipAngle": 55,
  "ImageComments": "Unaliased MB8/PE3 (remote)",
  "ImageOrientationPatientDICOM": [0.999784, 0.000796899, 0.0207445, 7.43641e-09, 0.999263, -0.0383871],
  "ImageType": [
    "ORIGINAL",
    "PRIMARY",
    "M",
    "MB",
    "ND",
    "MOSAIC"
],
  "ImagingFrequency": 123.234,
  "InPlanePhaseEncodingDirectionDICOM": "COL",
  "InstitutionAddress": "Univeristy Ave. 197,Newark,North East,US,07102-1814",
  "InstitutionName": "RUBIC",
  "InstitutionalDepartmentName": "Department",
  "MRAcquisitionType": "2D",
  "MagneticFieldStrength": 3,
  "Manufacturer": "Siemens",
  "ManufacturersModelName": "TrioTim",
  "Modality": "MR",
  "MultibandAccelerationFactor": 8,
  "PartialFourier": 0.875,
  "PatientPosition": "HFS",
  "PercentPhaseFOV": 100,
  "PercentSampling": 100,
  "PhaseEncodingDirection": "j-",
  "PhaseEncodingSteps": 91,
  "PhaseResolution": 1,
  "PixelBandwidth": 1923,
  "ProcedureStepDescription": "Cole^Michael",
  "ProtocolName": "cmrr_mbep2d_bold_2mm_MB8_Task_8x",
  "PulseSequenceDetails": "%CustomerSeq%\\cmrr_mbep2d_bold",
  "ReceiveCoilName": "32Ch_Head",
  "ReconMatrixPE": 104,
  "RepetitionTime": 0.785,
  "SAR": 0.126694,
  "ScanOptions": "PFP\\FS",
  "ScanningSequence": "EP",
  "SequenceName": "epfid2d1_104",
  "SequenceVariant": "SK\\SS",
  "SeriesDescription": "cmrr_mbep2d_bold_2mm_MB8_Task_8x",
  "SeriesNumber": 13,
  "ShimSetting": [2133, -475, -7193, 335, 4, -77, -214, 94],
  "SliceThickness": 2,
  "SliceTiming": [0, 0.4375, 0.0875, 0.525, 0.175, 0.6125, 0.2625, 0.7, 0.35, 0, 0.4375, 0.0875, 0.525, 0.175, 0.6125, 0.2625, 0.7, 0.35, 0, 0.4375, 0.0875, 0.525, 0.175, 0.6125, 0.2625, 0.7, 0.35, 0, 0.4375, 0.0875, 0.525, 0.175, 0.6125, 0.2625, 0.7, 0.35, 0, 0.4375, 0.0875, 0.525, 0.175, 0.6125, 0.2625, 0.7, 0.35, 0, 0.4375, 0.0875, 0.525, 0.175, 0.6125, 0.2625, 0.7, 0.35, 0, 0.4375, 0.0875, 0.525, 0.175, 0.6125, 0.2625, 0.7, 0.35, 0, 0.4375, 0.0875, 0.525, 0.175, 0.6125, 0.2625, 0.7, 0.35],
  "SoftwareVersions": "syngo MR B19",
  "SpacingBetweenSlices": 2,
  "StationName": "MRC35450",
  "TaskName": "cpro",
  "TotalReadoutTime": 0.0710717,
  "TxRefAmp": 319.569,
  "dcmmeta_affine": [
    [-1.9995689392089844, 1.4872817644118186e-08, 0.04151950776576996, 101.12844848632812],
    [-0.0015937975840643048, 1.998525857925415, -0.07675760984420776, -70.0103759765625],
    [0.041488904505968094, 0.07677415013313293, 1.9980952739715576, -100.8836441040039],
    [0.0, 0.0, 0.0, 1.0]
],
  "dcmmeta_reorient_transform": [
    [0.0, -1.0, 0.0, 103.0],
    [1.0, 0.0, 0.0, 0.0],
    [0.0, 0.0, 1.0, 0.0],
    [0.0, 0.0, 0.0, 1.0]
],
  "dcmmeta_shape": [104, 104, 72, 581],
  "dcmmeta_slice_dim": 2,
  "dcmmeta_version": 0.6,
  "global": {
    "const": {
      "AcquisitionMatrix": [104, 0, 0, 104],
      "AngioFlag": "N",
      "BitsAllocated": 16,
      "BitsStored": 12,
      "Columns": 936,
      "EchoNumbers": 1,
      "EchoTime": 34.8,
      "EchoTrainLength": 1,
      "FlipAngle": 55.0,
      "HighBit": 11,
      "ImageOrientationPatient": [0.99978449309807, 0.00079689880947, 0.02074445258201, 7.436409e-09, 0.99926294455824, -0.0383870763773],
      "ImagePositionPatient": [-932.94915614773, -967.88758115646, -78.297241737518],
      "ImageType": [
        "ORIGINAL",
        "PRIMARY",
        "M",
        "MB",
        "ND",
        "MOSAIC"
],
      "ImagedNucleus": "1H",
      "ImagingFrequency": 123.234476,
      "InPlanePhaseEncodingDirection": "COL",
      "MRAcquisitionType": "2D",
      "MagneticFieldStrength": 3.0,
      "Manufacturer": "SIEMENS",
      "ManufacturerModelName": "TrioTim",
      "Modality": "MR",
      "NumberOfAverages": 1.0,
      "NumberOfPhaseEncodingSteps": 91,
      "PercentPhaseFieldOfView": 100.0,
      "PercentSampling": 100.0,
      "PerformedProcedureStepStartTime": "100952.953000",
      "PhotometricInterpretation": "MONOCHROME2",
      "PixelBandwidth": 1923.0,
      "PixelRepresentation": 0,
      "PixelSpacing": [2.0, 2.0],
      "ProtocolName": "cmrr_mbep2d_bold_2mm_MB8_Task_8x",
      "RepetitionTime": 785.0,
      "Rows": 936,
      "SAR": 0.12669438622052,
      "SamplesPerPixel": 1,
      "ScanOptions": [
        "PFP",
        "FS"
],
      "ScanningSequence": "EP",
      "SequenceName": "epfid2d1_104",
      "SequenceVariant": [
        "SK",
        "SS"
],
      "SeriesDescription": "cmrr_mbep2d_bold_2mm_MB8_Task_8x",
      "SeriesNumber": 13,
      "SeriesTime": "112454.781000",
      "SliceLocation": -96.001244394221,
      "SliceThickness": 2.0,
      "SmallestImagePixelValue": 0,
      "SoftwareVersions": "syngo MR B19",
      "SpacingBetweenSlices": 2.0000000377246,
      "SpecificCharacterSet": "ISO_IR 100",
      "StudyID": "1",
      "StudyTime": "100952.843000",
      "TransmitCoilName": "Body",
      "VariableFlipAngleFlag": "N",
      "WindowCenterWidthExplanation": "Algo1",
      "dBdt": 0.0},
    "slices": {}
  },
  "time": {
    "samples": {
      "AcquisitionNumber": [1, 2, 3, 4, 5, 6, 7, 8, 9, 10, 11, 12, 13, 14, 15, 16, 17, 18, 19, 20, 21, 22, 23, 24, 25, 26, 27, 28, 29, 30, 31, 32, 33, 34, 35, 36, 37, 38, 39, 40, 41, 42, 43, 44, 45, 46, 47, 48, 49, 50, 51, 52, 53, 54, 55, 56, 57, 58, 59, 60, 61, 62, 63, 64, 65, 66, 67, 68, 69, 70, 71, 72, 73, 74, 75, 76, 77, 78, 79, 80, 81, 82, 83, 84, 85, 86, 87, 88, 89, 90, 91, 92, 93, 94, 95, 96, 97, 98, 99, 100, 101, 102, 103, 104, 105, 106, 107, 108, 109, 110, 111, 112, 113, 114, 115, 116, 117, 118, 119, 120, 121, 122, 123, 124, 125, 126, 127, 128, 129, 130, 131, 132, 133, 134, 135, 136, 137, 138, 139, 140, 141, 142, 143, 144, 145, 146, 147, 148, 149, 150, 151, 152, 153, 154, 155, 156, 157, 158, 159, 160, 161, 162, 163, 164, 165, 166, 167, 168, 169, 170, 171, 172, 173, 174, 175, 176, 177, 178, 179, 180, 181, 182, 183, 184, 185, 186, 187, 188, 189, 190, 191, 192, 193, 194, 195, 196, 197, 198, 199, 200, 201, 202, 203, 204, 205, 206, 207, 208, 209, 210, 211, 212, 213, 214, 215, 216, 217, 218, 219, 220, 221, 222, 223, 224, 225, 226, 227, 228, 229, 230, 231, 232, 233, 234, 235, 236, 237, 238, 239, 240, 241, 242, 243, 244, 245, 246, 247, 248, 249, 250, 251, 252, 253, 254, 255, 256, 257, 258, 259, 260, 261, 262, 263, 264, 265, 266, 267, 268, 269, 270, 271, 272, 273, 274, 275, 276, 277, 278, 279, 280, 281, 282, 283, 284, 285, 286, 287, 288, 289, 290, 291, 292, 293, 294, 295, 296, 297, 298, 299, 300, 301, 302, 303, 304, 305, 306, 307, 308, 309, 310, 311, 312, 313, 314, 315, 316, 317, 318, 319, 320, 321, 322, 323, 324, 325, 326, 327, 328, 329, 330, 331, 332, 333, 334, 335, 336, 337, 338, 339, 340, 341, 342, 343, 344, 345, 346, 347, 348, 349, 350, 351, 352, 353, 354, 355, 356, 357, 358, 359, 360, 361, 362, 363, 364, 365, 366, 367, 368, 369, 370, 371, 372, 373, 374, 375, 376, 377, 378, 379, 380, 381, 382, 383, 384, 385, 386, 387, 388, 389, 390, 391, 392, 393, 394, 395, 396, 397, 398, 399, 400, 401, 402, 403, 404, 405, 406, 407, 408, 409, 410, 411, 412, 413, 414, 415, 416, 417, 418, 419, 420, 421, 422, 423, 424, 425, 426, 427, 428, 429, 430, 431, 432, 433, 434, 435, 436, 437, 438, 439, 440, 441, 442, 443, 444, 445, 446, 447, 448, 449, 450, 451, 452, 453, 454, 455, 456, 457, 458, 459, 460, 461, 462, 463, 464, 465, 466, 467, 468, 469, 470, 471, 472, 473, 474, 475, 476, 477, 478, 479, 480, 481, 482, 483, 484, 485, 486, 487, 488, 489, 490, 491, 492, 493, 494, 495, 496, 497, 498, 499, 500, 501, 502, 503, 504, 505, 506, 507, 508, 509, 510, 511, 512, 513, 514, 515, 516, 517, 518, 519, 520, 521, 522, 523, 524, 525, 526, 527, 528, 529, 530, 531, 532, 533, 534, 535, 536, 537, 538, 539, 540, 541, 542, 543, 544, 545, 546, 547, 548, 549, 550, 551, 552, 553, 554, 555, 556, 557, 558, 559, 560, 561, 562, 563, 564, 565, 566, 567, 568, 569, 570, 571, 572, 573, 574, 575, 576, 577, 578, 579, 580, 581],
      "AcquisitionTime": ["112434.612500", "112435.400000", "112436.187500", "112436.977500", "112437.765000", "112438.552500", "112439.340000", "112440.130000", "112440.917500", "112441.705000", "112442.492500", "112443.282500", "112444.070000", "112444.857500", "112445.645000", "112446.435000", "112447.222500", "112448.010000", "112448.797500", "112449.587500", "112450.375000", "112451.162500", "112451.952500", "112452.740000", "112453.527500", "112454.315000", "112455.105000", "112455.892500", "112456.680000", "112457.467500", "112458.257500", "112459.045000", "112459.832500", "112500.620000", "112501.410000", "112502.197500", "112502.985000", "112503.772500", "112504.562500", "112505.350000", "112506.137500", "112506.925000", "112507.715000", "112508.502500", "112509.290000", "112510.080000", "112510.867500", "112511.655000", "112512.442500", "112513.232500", "112514.020000", "112514.807500", "112515.595000", "112516.385000", "112517.172500", "112517.960000", "112518.747500", "112519.537500", "112520.325000", "112521.112500", "112521.900000", "112522.690000", "112523.477500", "112524.265000", "112525.052500", "112525.842500", "112526.630000", "112527.417500", "112528.207500", "112528.995000", "112529.782500", "112530.570000", "112531.360000", "112532.147500", "112532.935000", "112533.722500", "112534.512500", "112535.300000", "112536.087500", "112536.875000", "112537.665000", "112538.452500", "112539.240000", "112540.027500", "112540.817500", "112541.605000", "112542.392500", "112543.180000", "112543.970000", "112544.757500", "112545.545000", "112546.335000", "112547.122500", "112547.910000", "112548.697500", "112549.487500", "112550.275000", "112551.062500", "112551.850000", "112552.640000", "112553.427500", "112554.215000", "112555.002500", "112555.792500", "112556.580000", "112557.367500", "112558.155000", "112558.945000", "112559.732500", "112600.520000", "112601.307500", "112602.097500", "112602.885000", "112603.672500", "112604.462500", "112605.250000", "112606.037500", "112606.825000", "112607.615000", "112608.402500", "112609.190000", "112609.977500", "112610.767500", "112611.555000", "112612.342500", "112613.130000", "112613.920000", "112614.707500", "112615.495000", "112616.282500", "112617.072500", "112617.860000", "112618.647500", "112619.435000", "112620.225000", "112621.012500", "112621.800000", "112622.590000", "112623.377500", "112624.165000", "112624.952500", "112625.742500", "112626.530000", "112627.317500", "112628.105000", "112628.895000", "112629.682500", "112630.470000", "112631.257500", "112632.047500", "112632.835000", "112633.622500", "112634.410000", "112635.200000", "112635.987500", "112636.775000", "112637.562500", "112638.352500", "112639.140000", "112639.927500", "112640.717500", "112641.505000", "112642.292500", "112643.080000", "112643.870000", "112644.657500", "112645.445000", "112646.232500", "112647.022500", "112647.810000", "112648.597500", "112649.385000", "112650.175000", "112650.962500", "112651.750000", "112652.537500", "112653.327500", "112654.115000", "112654.902500", "112655.690000", "112656.480000", "112657.267500", "112658.055000", "112658.845000", "112659.632500", "112700.420000", "112701.207500", "112701.997500", "112702.785000", "112703.572500", "112704.360000", "112705.150000", "112705.937500", "112706.725000", "112707.512500", "112708.302500", "112709.090000", "112709.877500", "112710.665000", "112711.455000", "112712.242500", "112713.030000", "112713.820000", "112714.607500", "112715.395000", "112716.182500", "112716.972500", "112717.760000", "112718.547500", "112719.335000", "112720.125000", "112720.912500", "112721.700000", "112722.487500", "112723.277500", "112724.065000", "112724.852500", "112725.640000", "112726.430000", "112727.217500", "112728.005000", "112728.792500", "112729.582500", "112730.370000", "112731.157500", "112731.947500", "112732.735000", "112733.522500", "112734.310000", "112735.100000", "112735.887500", "112736.675000", "112737.462500", "112738.252500", "112739.040000", "112739.827500", "112740.615000", "112741.405000", "112742.192500", "112742.980000", "112743.767500", "112744.557500", "112745.345000", "112746.132500", "112746.920000", "112747.710000", "112748.497500", "112749.285000", "112750.075000", "112750.862500", "112751.650000", "112752.437500", "112753.227500", "112754.015000", "112754.802500", "112755.590000", "112756.380000", "112757.167500", "112757.955000", "112758.742500", "112759.532500", "112800.320000", "112801.107500", "112801.895000", "112802.685000", "112803.472500", "112804.260000", "112805.047500", "112805.837500", "112806.625000", "112807.412500", "112808.202500", "112808.990000", "112809.777500", "112810.565000", "112811.355000", "112812.142500", "112812.930000", "112813.717500", "112814.507500", "112815.295000", "112816.082500", "112816.870000", "112817.660000", "112818.447500", "112819.235000", "112820.022500", "112820.812500", "112821.600000", "112822.387500", "112823.175000", "112823.965000", "112824.752500", "112825.540000", "112826.330000", "112827.117500", "112827.905000", "112828.692500", "112829.482500", "112830.270000", "112831.057500", "112831.845000", "112832.635000", "112833.422500", "112834.210000", "112834.997500", "112835.787500", "112836.575000", "112837.362500", "112838.150000", "112838.940000", "112839.727500", "112840.515000", "112841.302500", "112842.092500", "112842.880000", "112843.667500", "112844.457500", "112845.245000", "112846.032500", "112846.820000", "112847.610000", "112848.397500", "112849.185000", "112849.972500", "112850.762500", "112851.550000", "112852.337500", "112853.125000", "112853.915000", "112854.702500", "112855.490000", "112856.277500", "112857.067500", "112857.855000", "112858.642500", "112859.430000", "112900.220000", "112901.007500", "112901.795000", "112902.585000", "112903.372500", "112904.160000", "112904.947500", "112905.737500", "112906.525000", "112907.312500", "112908.100000", "112908.890000", "112909.677500", "112910.465000", "112911.252500", "112912.042500", "112912.830000", "112913.617500", "112914.405000", "112915.195000", "112915.982500", "112916.770000", "112917.557500", "112918.347500", "112919.135000", "112919.922500", "112920.712500", "112921.500000", "112922.287500", "112923.075000", "112923.865000", "112924.652500", "112925.440000", "112926.227500", "112927.017500", "112927.805000", "112928.592500", "112929.380000", "112930.170000", "112930.957500", "112931.745000", "112932.532500", "112933.322500", "112934.110000", "112934.897500", "112935.685000", "112936.475000", "112937.262500", "112938.050000", "112938.840000", "112939.627500", "112940.415000", "112941.202500", "112941.992500", "112942.780000", "112943.567500", "112944.355000", "112945.145000", "112945.932500", "112946.720000", "112947.507500", "112948.297500", "112949.085000", "112949.872500", "112950.660000", "112951.450000", "112952.237500", "112953.025000", "112953.812500", "112954.602500", "112955.390000", "112956.177500", "112956.967500", "112957.755000", "112958.542500", "112959.330000", "113000.120000", "113000.907500", "113001.695000", "113002.482500", "113003.272500", "113004.060000", "113004.847500", "113005.635000", "113006.425000", "113007.212500", "113008.000000", "113008.787500", "113009.577500", "113010.365000", "113011.152500", "113011.940000", "113012.730000", "113013.517500", "113014.305000", "113015.095000", "113015.882500", "113016.670000", "113017.457500", "113018.247500", "113019.035000", "113019.822500", "113020.610000", "113021.400000", "113022.187500", "113022.975000", "113023.762500", "113024.552500", "113025.340000", "113026.127500", "113026.915000", "113027.705000", "113028.492500", "113029.280000", "113030.070000", "113030.857500", "113031.645000", "113032.432500", "113033.222500", "113034.010000", "113034.797500", "113035.585000", "113036.375000", "113037.162500", "113037.950000", "113038.737500", "113039.527500", "113040.315000", "113041.102500", "113041.890000", "113042.680000", "113043.467500", "113044.255000", "113045.042500", "113045.832500", "113046.620000", "113047.407500", "113048.197500", "113048.985000", "113049.772500", "113050.560000", "113051.350000", "113052.137500", "113052.925000", "113053.712500", "113054.502500", "113055.290000", "113056.077500", "113056.865000", "113057.655000", "113058.442500", "113059.230000", "113100.017500", "113100.807500", "113101.595000", "113102.382500", "113103.170000", "113103.960000", "113104.747500", "113105.535000", "113106.325000", "113107.112500", "113107.900000", "113108.687500", "113109.477500", "113110.265000", "113111.052500", "113111.840000", "113112.630000", "113113.417500", "113114.205000", "113114.992500", "113115.782500", "113116.570000", "113117.357500", "113118.145000", "113118.935000", "113119.722500", "113120.510000", "113121.297500", "113122.087500", "113122.875000", "113123.662500", "113124.452500", "113125.240000", "113126.027500", "113126.815000", "113127.605000", "113128.392500", "113129.180000", "113129.967500", "113130.757500", "113131.545000", "113132.332500", "113133.120000", "113133.910000", "113134.697500", "113135.485000", "113136.272500", "113137.062500", "113137.850000", "113138.637500", "113139.425000", "113140.215000", "113141.002500", "113141.790000", "113142.580000", "113143.367500", "113144.155000", "113144.942500", "113145.732500", "113146.520000", "113147.307500", "113148.095000", "113148.885000", "113149.672500", "113150.460000", "113151.247500", "113152.037500", "113152.825000", "113153.612500", "113154.400000", "113155.190000", "113155.977500", "113156.765000", "113157.552500", "113158.342500", "113159.130000", "113159.917500", "113200.707500", "113201.495000", "113202.282500", "113203.070000", "113203.860000", "113204.647500", "113205.435000", "113206.222500", "113207.012500", "113207.800000", "113208.587500", "113209.375000", "113210.165000", "113210.952500", "113211.740000"],
      "ContentTime": ["112454.781000", "112454.781000", "112454.781000", "112454.796000", "112454.796000", "112454.796000", "112454.796000", "112454.796000", "112454.812000", "112454.812000", "112454.812000", "112454.812000", "112454.812000", "112454.812000", "112454.828000", "112454.828000", "112454.828000", "112454.828000", "112454.828000", "112454.828000", "112454.828000", "112454.828000", "112454.843000", "112454.843000", "112514.750000", "112514.750000", "112514.765000", "112514.765000", "112514.765000", "112514.765000", "112514.781000", "112514.781000", "112514.781000", "112514.781000", "112514.781000", "112514.781000", "112514.781000", "112514.781000", "112514.796000", "112514.796000", "112514.796000", "112514.796000", "112514.796000", "112514.812000", "112514.812000", "112514.812000", "112514.812000", "112514.812000", "112514.812000", "112534.750000", "112534.750000", "112534.765000", "112534.765000", "112534.765000", "112534.765000", "112534.765000", "112534.765000", "112534.765000", "112534.765000", "112534.781000", "112534.781000", "112534.781000", "112534.781000", "112534.781000", "112534.781000", "112534.796000", "112534.796000", "112534.796000", "112534.796000", "112534.796000", "112534.796000", "112534.796000", "112534.796000", "112534.812000", "112534.812000", "112554.750000", "112554.750000", "112554.765000", "112554.765000", "112554.765000", "112554.765000", "112554.765000", "112554.765000", "112554.781000", "112554.781000", "112554.781000", "112554.781000", "112554.781000", "112554.781000", "112554.781000", "112554.796000", "112554.796000", "112554.796000", "112554.796000", "112554.796000", "112554.796000", "112554.796000", "112554.812000", "112554.812000", "112554.812000", "112554.812000", "112614.750000", "112614.796000", "112614.796000", "112614.796000", "112614.796000", "112614.796000", "112614.812000", "112614.812000", "112614.812000", "112614.812000", "112614.812000", "112614.812000", "112614.812000", "112614.828000", "112614.828000", "112614.828000", "112614.828000", "112614.828000", "112614.828000", "112614.828000", "112614.828000", "112614.843000", "112614.843000", "112614.843000", "112614.843000", "112634.750000", "112634.750000", "112634.765000", "112634.765000", "112634.765000", "112634.765000", "112634.765000", "112634.765000", "112634.781000", "112634.781000", "112634.781000", "112634.781000", "112634.781000", "112634.781000", "112634.781000", "112634.781000", "112634.796000", "112634.796000", "112634.796000", "112634.796000", "112634.796000", "112634.796000", "112634.812000", "112634.812000", "112634.812000", "112634.812000", "112654.750000", "112654.750000", "112654.765000", "112654.765000", "112654.765000", "112654.765000", "112654.765000", "112654.765000", "112654.765000", "112654.765000", "112654.781000", "112654.781000", "112654.781000", "112654.781000", "112654.781000", "112654.781000", "112654.796000", "112654.796000", "112654.796000", "112654.796000", "112654.796000", "112654.796000", "112654.796000", "112654.796000", "112654.812000", "112714.750000", "112714.765000", "112714.765000", "112714.765000", "112714.765000", "112714.765000", "112714.765000", "112714.765000", "112714.781000", "112714.781000", "112714.781000", "112714.781000", "112714.781000", "112714.781000", "112714.781000", "112714.796000", "112714.796000", "112714.796000", "112714.796000", "112714.796000", "112714.796000", "112714.796000", "112714.812000", "112714.812000", "112714.812000", "112734.750000", "112734.765000", "112734.781000", "112734.781000", "112734.781000", "112734.781000", "112734.781000", "112734.796000", "112734.796000", "112734.796000", "112734.796000", "112734.796000", "112734.796000", "112734.796000", "112734.812000", "112734.812000", "112734.812000", "112734.812000", "112734.812000", "112734.812000", "112734.812000", "112734.828000", "112734.828000", "112734.828000", "112734.828000", "112734.828000", "112754.750000", "112754.750000", "112754.765000", "112754.765000", "112754.765000", "112754.765000", "112754.765000", "112754.765000", "112754.781000", "112754.781000", "112754.781000", "112754.781000", "112754.781000", "112754.796000", "112754.796000", "112754.796000", "112754.796000", "112754.796000", "112754.796000", "112754.812000", "112754.812000", "112754.812000", "112754.812000", "112754.812000", "112754.812000", "112814.750000", "112814.750000", "112814.765000", "112814.765000", "112814.765000", "112814.765000", "112814.765000", "112814.765000", "112814.781000", "112814.781000", "112814.781000", "112814.781000", "112814.781000", "112814.781000", "112814.781000", "112814.781000", "112814.796000", "112814.796000", "112814.796000", "112814.796000", "112814.796000", "112814.796000", "112814.796000", "112814.796000", "112814.812000", "112814.812000", "112834.750000", "112834.750000", "112834.765000", "112834.765000", "112834.765000", "112834.765000", "112834.765000", "112834.765000", "112834.765000", "112834.781000", "112834.781000", "112834.781000", "112834.781000", "112834.781000", "112834.796000", "112834.796000", "112834.796000", "112834.796000", "112834.796000", "112834.796000", "112834.796000", "112834.796000", "112834.812000", "112834.812000", "112834.812000", "112854.750000", "112854.750000", "112854.765000", "112854.765000", "112854.765000", "112854.765000", "112854.765000", "112854.765000", "112854.781000", "112854.781000", "112854.781000", "112854.781000", "112854.781000", "112854.781000", "112854.796000", "112854.796000", "112854.796000", "112854.796000", "112854.796000", "112854.812000", "112854.828000", "112854.828000", "112854.828000", "112854.828000", "112854.843000", "112854.843000", "112914.750000", "112914.750000", "112914.765000", "112914.765000", "112914.765000", "112914.765000", "112914.765000", "112914.765000", "112914.765000", "112914.781000", "112914.781000", "112914.781000", "112914.781000", "112914.781000", "112914.781000", "112914.796000", "112914.796000", "112914.796000", "112914.796000", "112914.796000", "112914.796000", "112914.796000", "112914.812000", "112914.812000", "112914.812000", "112934.750000", "112934.750000", "112934.765000", "112934.765000", "112934.765000", "112934.765000", "112934.765000", "112934.765000", "112934.781000", "112934.781000", "112934.781000", "112934.781000", "112934.781000", "112934.781000", "112934.781000", "112934.796000", "112934.796000", "112934.796000", "112934.796000", "112934.796000", "112934.796000", "112934.796000", "112934.796000", "112934.812000", "112934.812000", "112934.812000", "112954.750000", "112954.750000", "112954.765000", "112954.765000", "112954.765000", "112954.765000", "112954.765000", "112954.765000", "112954.765000", "112954.765000", "112954.781000", "112954.781000", "112954.781000", "112954.781000", "112954.781000", "112954.796000", "112954.796000", "112954.796000", "112954.796000", "112954.796000", "112954.796000", "112954.796000", "112954.812000", "112954.812000", "112954.812000", "113014.750000", "113014.765000", "113014.765000", "113014.765000", "113014.765000", "113014.765000", "113014.765000", "113014.781000", "113014.781000", "113014.781000", "113014.781000", "113014.781000", "113014.781000", "113014.781000", "113014.796000", "113014.796000", "113014.796000", "113014.796000", "113014.796000", "113014.812000", "113014.812000", "113014.812000", "113014.812000", "113014.812000", "113014.812000", "113014.812000", "113034.750000", "113034.750000", "113034.765000", "113034.765000", "113034.765000", "113034.765000", "113034.765000", "113034.765000", "113034.765000", "113034.781000", "113034.781000", "113034.781000", "113034.781000", "113034.781000", "113034.781000", "113034.781000", "113034.781000", "113034.796000", "113034.796000", "113034.796000", "113034.796000", "113034.796000", "113034.796000", "113034.796000", "113034.812000", "113054.750000", "113054.750000", "113054.765000", "113054.765000", "113054.765000", "113054.765000", "113054.765000", "113054.765000", "113054.781000", "113054.781000", "113054.781000", "113054.781000", "113054.781000", "113054.796000", "113054.796000", "113054.796000", "113054.796000", "113054.796000", "113054.796000", "113054.796000", "113054.796000", "113054.812000", "113054.812000", "113054.812000", "113054.812000", "113054.828000", "113114.750000", "113114.750000", "113114.765000", "113114.765000", "113114.765000", "113114.765000", "113114.765000", "113114.765000", "113114.765000", "113114.781000", "113114.781000", "113114.781000", "113114.781000", "113114.781000", "113114.781000", "113114.781000", "113114.781000", "113114.796000", "113114.796000", "113114.796000", "113114.796000", "113114.796000", "113114.796000", "113114.796000", "113114.796000", "113134.750000", "113134.765000", "113134.765000", "113134.781000", "113134.781000", "113134.781000", "113134.781000", "113134.781000", "113134.781000", "113134.781000", "113134.796000", "113134.796000", "113134.796000", "113134.796000", "113134.796000", "113134.812000", "113134.812000", "113134.812000", "113134.812000", "113134.812000", "113134.828000", "113134.828000", "113134.828000", "113134.828000", "113134.828000", "113134.828000", "113154.750000", "113154.750000", "113154.765000", "113154.765000", "113154.765000", "113154.765000", "113154.765000", "113154.765000", "113154.765000", "113154.781000", "113154.781000", "113154.781000", "113154.781000", "113154.781000", "113154.781000", "113154.781000", "113154.781000", "113154.796000", "113154.796000", "113154.796000", "113154.796000", "113154.796000", "113154.812000", "113154.812000", "113154.812000", "113211.609000", "113211.609000", "113211.609000", "113211.609000", "113211.609000", "113211.609000", "113211.625000", "113211.625000", "113211.625000", "113211.625000", "113211.625000", "113211.625000", "113211.640000", "113211.640000", "113211.640000", "113211.640000", "113211.640000", "113211.640000", "113211.656000", "113211.656000", "113211.656000", "113211.656000"],
