{
  "AcquisitionMatrixPE": 104,
  "AcquisitionNumber": 1,
  "AcquisitionTime": "11:56:25.790000",
  "BandwidthPerPixelPhaseEncode": 13.935,
  "BaseResolution": 104,
  "CoilString": "C:HEA;HEP",
  "ConversionSoftware": "dcm2niix",
  "ConversionSoftwareVersion": "v1.0.20210317",
  "DerivedVendorReportedEchoSpacing": 0.000690017,
  "DeviceSerialNumber": "35450",
  "DwellTime": 2.5e-06,
  "EchoTime": 0.0348,
  "EffectiveEchoSpacing": 0.000690017,
  "FlipAngle": 55,
  "ImageComments": "Unaliased MB8/PE3 (remote)",
  "ImageOrientationPatientDICOM": [0.999784, 0.000796899, 0.0207445, 7.43641e-09, 0.999263, -0.0383871],
  "ImageType": [
    "ORIGINAL",
    "PRIMARY",
    "M",
    "MB",
    "ND",
    "MOSAIC"
],
  "ImagingFrequency": 123.234,
  "InPlanePhaseEncodingDirectionDICOM": "COL",
  "InstitutionAddress": "Univeristy Ave. 197,Newark,North East,US,07102-1814",
  "InstitutionName": "RUBIC",
  "InstitutionalDepartmentName": "Department",
  "MRAcquisitionType": "2D",
  "MagneticFieldStrength": 3,
  "Manufacturer": "Siemens",
  "ManufacturersModelName": "TrioTim",
  "Modality": "MR",
  "MultibandAccelerationFactor": 8,
  "PartialFourier": 0.875,
  "PatientPosition": "HFS",
  "PercentPhaseFOV": 100,
  "PercentSampling": 100,
  "PhaseEncodingDirection": "j-",
  "PhaseEncodingSteps": 91,
  "PhaseResolution": 1,
  "PixelBandwidth": 1923,
  "ProcedureStepDescription": "Cole^Michael",
  "ProtocolName": "cmrr_mbep2d_bold_2mm_MB8_Task_8x",
  "PulseSequenceDetails": "%CustomerSeq%\\cmrr_mbep2d_bold",
  "ReceiveCoilName": "32Ch_Head",
  "ReconMatrixPE": 104,
  "RepetitionTime": 0.785,
  "SAR": 0.121206,
  "ScanOptions": "PFP\\FS",
  "ScanningSequence": "EP",
  "SequenceName": "epfid2d1_104",
  "SequenceVariant": "SK\\SS",
  "SeriesDescription": "cmrr_mbep2d_bold_2mm_MB8_Task_8x",
  "SeriesNumber": 21,
  "ShimSetting": [2133, -475, -7193, 335, 4, -77, -214, 94],
  "SliceThickness": 2,
  "SliceTiming": [0, 0.4375, 0.0875, 0.525, 0.175, 0.6125, 0.2625, 0.7, 0.35, 0, 0.4375, 0.0875, 0.525, 0.175, 0.6125, 0.2625, 0.7, 0.35, 0, 0.4375, 0.0875, 0.525, 0.175, 0.6125, 0.2625, 0.7, 0.35, 0, 0.4375, 0.0875, 0.525, 0.175, 0.6125, 0.2625, 0.7, 0.35, 0, 0.4375, 0.0875, 0.525, 0.175, 0.6125, 0.2625, 0.7, 0.35, 0, 0.4375, 0.0875, 0.525, 0.175, 0.6125, 0.2625, 0.7, 0.35, 0, 0.4375, 0.0875, 0.525, 0.175, 0.6125, 0.2625, 0.7, 0.35, 0, 0.4375, 0.0875, 0.525, 0.175, 0.6125, 0.2625, 0.7, 0.35],
  "SoftwareVersions": "syngo MR B19",
  "SpacingBetweenSlices": 2,
  "StationName": "MRC35450",
  "TaskName": "cpro",
  "TotalReadoutTime": 0.0710717,
  "TxRefAmp": 319.569,
  "dcmmeta_affine": [
    [-1.9995689392089844, 1.4872817644118186e-08, 0.04151950776576996, 101.12844848632812],
    [-0.0015937975840643048, 1.998525857925415, -0.07675760984420776, -70.0103759765625],
    [0.041488904505968094, 0.07677415013313293, 1.9980952739715576, -100.8836441040039],
    [0.0, 0.0, 0.0, 1.0]
],
  "dcmmeta_reorient_transform": [
    [0.0, -1.0, 0.0, 103.0],
    [1.0, 0.0, 0.0, 0.0],
    [0.0, 0.0, 1.0, 0.0],
    [0.0, 0.0, 0.0, 1.0]
],
  "dcmmeta_shape": [104, 104, 72, 581],
  "dcmmeta_slice_dim": 2,
  "dcmmeta_version": 0.6,
  "global": {
    "const": {
      "AcquisitionMatrix": [104, 0, 0, 104],
      "AngioFlag": "N",
      "BitsAllocated": 16,
      "BitsStored": 12,
      "Columns": 936,
      "EchoNumbers": 1,
      "EchoTime": 34.8,
      "EchoTrainLength": 1,
      "FlipAngle": 55.0,
      "HighBit": 11,
      "ImageOrientationPatient": [0.99978449309807, 0.00079689880947, 0.02074445258201, 7.436409e-09, 0.99926294455824, -0.0383870763773],
      "ImagePositionPatient": [-932.94915614773, -967.88758115646, -78.297241737518],
      "ImageType": [
        "ORIGINAL",
        "PRIMARY",
        "M",
        "MB",
        "ND",
        "MOSAIC"
],
      "ImagedNucleus": "1H",
      "ImagingFrequency": 123.234476,
      "InPlanePhaseEncodingDirection": "COL",
      "MRAcquisitionType": "2D",
      "MagneticFieldStrength": 3.0,
      "Manufacturer": "SIEMENS",
      "ManufacturerModelName": "TrioTim",
      "Modality": "MR",
      "NumberOfAverages": 1.0,
      "NumberOfPhaseEncodingSteps": 91,
      "PercentPhaseFieldOfView": 100.0,
      "PercentSampling": 100.0,
      "PerformedProcedureStepStartTime": "100952.953000",
      "PhotometricInterpretation": "MONOCHROME2",
      "PixelBandwidth": 1923.0,
      "PixelRepresentation": 0,
      "PixelSpacing": [2.0, 2.0],
      "ProtocolName": "cmrr_mbep2d_bold_2mm_MB8_Task_8x",
      "RepetitionTime": 785.0,
      "Rows": 936,
      "SAR": 0.12120559906608,
      "SamplesPerPixel": 1,
      "ScanOptions": [
        "PFP",
        "FS"
],
      "ScanningSequence": "EP",
      "SequenceName": "epfid2d1_104",
      "SequenceVariant": [
        "SK",
        "SS"
],
      "SeriesDescription": "cmrr_mbep2d_bold_2mm_MB8_Task_8x",
      "SeriesNumber": 21,
      "SeriesTime": "115655.578000",
      "SliceLocation": -96.001244394221,
      "SliceThickness": 2.0,
      "SmallestImagePixelValue": 0,
      "SoftwareVersions": "syngo MR B19",
      "SpacingBetweenSlices": 2.0000000377246,
      "SpecificCharacterSet": "ISO_IR 100",
      "StudyID": "1",
      "StudyTime": "100952.843000",
      "TransmitCoilName": "Body",
      "VariableFlipAngleFlag": "N",
      "WindowCenterWidthExplanation": "Algo1",
      "dBdt": 0.0},
    "slices": {}
  },
  "time": {
    "samples": {
      "AcquisitionNumber": [1, 2, 3, 4, 5, 6, 7, 8, 9, 10, 11, 12, 13, 14, 15, 16, 17, 18, 19, 20, 21, 22, 23, 24, 25, 26, 27, 28, 29, 30, 31, 32, 33, 34, 35, 36, 37, 38, 39, 40, 41, 42, 43, 44, 45, 46, 47, 48, 49, 50, 51, 52, 53, 54, 55, 56, 57, 58, 59, 60, 61, 62, 63, 64, 65, 66, 67, 68, 69, 70, 71, 72, 73, 74, 75, 76, 77, 78, 79, 80, 81, 82, 83, 84, 85, 86, 87, 88, 89, 90, 91, 92, 93, 94, 95, 96, 97, 98, 99, 100, 101, 102, 103, 104, 105, 106, 107, 108, 109, 110, 111, 112, 113, 114, 115, 116, 117, 118, 119, 120, 121, 122, 123, 124, 125, 126, 127, 128, 129, 130, 131, 132, 133, 134, 135, 136, 137, 138, 139, 140, 141, 142, 143, 144, 145, 146, 147, 148, 149, 150, 151, 152, 153, 154, 155, 156, 157, 158, 159, 160, 161, 162, 163, 164, 165, 166, 167, 168, 169, 170, 171, 172, 173, 174, 175, 176, 177, 178, 179, 180, 181, 182, 183, 184, 185, 186, 187, 188, 189, 190, 191, 192, 193, 194, 195, 196, 197, 198, 199, 200, 201, 202, 203, 204, 205, 206, 207, 208, 209, 210, 211, 212, 213, 214, 215, 216, 217, 218, 219, 220, 221, 222, 223, 224, 225, 226, 227, 228, 229, 230, 231, 232, 233, 234, 235, 236, 237, 238, 239, 240, 241, 242, 243, 244, 245, 246, 247, 248, 249, 250, 251, 252, 253, 254, 255, 256, 257, 258, 259, 260, 261, 262, 263, 264, 265, 266, 267, 268, 269, 270, 271, 272, 273, 274, 275, 276, 277, 278, 279, 280, 281, 282, 283, 284, 285, 286, 287, 288, 289, 290, 291, 292, 293, 294, 295, 296, 297, 298, 299, 300, 301, 302, 303, 304, 305, 306, 307, 308, 309, 310, 311, 312, 313, 314, 315, 316, 317, 318, 319, 320, 321, 322, 323, 324, 325, 326, 327, 328, 329, 330, 331, 332, 333, 334, 335, 336, 337, 338, 339, 340, 341, 342, 343, 344, 345, 346, 347, 348, 349, 350, 351, 352, 353, 354, 355, 356, 357, 358, 359, 360, 361, 362, 363, 364, 365, 366, 367, 368, 369, 370, 371, 372, 373, 374, 375, 376, 377, 378, 379, 380, 381, 382, 383, 384, 385, 386, 387, 388, 389, 390, 391, 392, 393, 394, 395, 396, 397, 398, 399, 400, 401, 402, 403, 404, 405, 406, 407, 408, 409, 410, 411, 412, 413, 414, 415, 416, 417, 418, 419, 420, 421, 422, 423, 424, 425, 426, 427, 428, 429, 430, 431, 432, 433, 434, 435, 436, 437, 438, 439, 440, 441, 442, 443, 444, 445, 446, 447, 448, 449, 450, 451, 452, 453, 454, 455, 456, 457, 458, 459, 460, 461, 462, 463, 464, 465, 466, 467, 468, 469, 470, 471, 472, 473, 474, 475, 476, 477, 478, 479, 480, 481, 482, 483, 484, 485, 486, 487, 488, 489, 490, 491, 492, 493, 494, 495, 496, 497, 498, 499, 500, 501, 502, 503, 504, 505, 506, 507, 508, 509, 510, 511, 512, 513, 514, 515, 516, 517, 518, 519, 520, 521, 522, 523, 524, 525, 526, 527, 528, 529, 530, 531, 532, 533, 534, 535, 536, 537, 538, 539, 540, 541, 542, 543, 544, 545, 546, 547, 548, 549, 550, 551, 552, 553, 554, 555, 556, 557, 558, 559, 560, 561, 562, 563, 564, 565, 566, 567, 568, 569, 570, 571, 572, 573, 574, 575, 576, 577, 578, 579, 580, 581],
      "AcquisitionTime": ["115625.790000", "115626.580000", "115627.367500", "115628.155000", "115628.942500", "115629.732500", "115630.520000", "115631.307500", "115632.095000", "115632.885000", "115633.672500", "115634.460000", "115635.247500", "115636.037500", "115636.825000", "115637.612500", "115638.400000", "115639.190000", "115639.977500", "115640.765000", "115641.555000", "115642.342500", "115643.130000", "115643.917500", "115644.707500", "115645.495000", "115646.282500", "115647.070000", "115647.860000", "115648.647500", "115649.435000", "115650.222500", "115651.012500", "115651.800000", "115652.587500", "115653.375000", "115654.165000", "115654.952500", "115655.740000", "115656.527500", "115657.317500", "115658.105000", "115658.892500", "115659.682500", "115700.470000", "115701.257500", "115702.045000", "115702.835000", "115703.622500", "115704.410000", "115705.197500", "115705.987500", "115706.775000", "115707.562500", "115708.350000", "115709.140000", "115709.927500", "115710.715000", "115711.502500", "115712.292500", "115713.080000", "115713.867500", "115714.655000", "115715.445000", "115716.232500", "115717.020000", "115717.810000", "115718.597500", "115719.385000", "115720.172500", "115720.962500", "115721.750000", "115722.537500", "115723.325000", "115724.115000", "115724.902500", "115725.690000", "115726.477500", "115727.267500", "115728.055000", "115728.842500", "115729.630000", "115730.420000", "115731.207500", "115731.995000", "115732.782500", "115733.572500", "115734.360000", "115735.147500", "115735.937500", "115736.725000", "115737.512500", "115738.300000", "115739.090000", "115739.877500", "115740.665000", "115741.452500", "115742.242500", "115743.030000", "115743.817500", "115744.605000", "115745.395000", "115746.182500", "115746.970000", "115747.757500", "115748.547500", "115749.335000", "115750.122500", "115750.910000", "115751.700000", "115752.487500", "115753.275000", "115754.065000", "115754.852500", "115755.640000", "115756.427500", "115757.217500", "115758.005000", "115758.792500", "115759.580000", "115800.370000", "115801.157500", "115801.945000", "115802.732500", "115803.522500", "115804.310000", "115805.097500", "115805.885000", "115806.675000", "115807.462500", "115808.250000", "115809.037500", "115809.827500", "115810.615000", "115811.402500", "115812.192500", "115812.980000", "115813.767500", "115814.555000", "115815.345000", "115816.132500", "115816.920000", "115817.707500", "115818.497500", "115819.285000", "115820.072500", "115820.860000", "115821.650000", "115822.437500", "115823.225000", "115824.012500", "115824.802500", "115825.590000", "115826.377500", "115827.165000", "115827.955000", "115828.742500", "115829.530000", "115830.320000", "115831.107500", "115831.895000", "115832.682500", "115833.472500", "115834.260000", "115835.047500", "115835.835000", "115836.625000", "115837.412500", "115838.200000", "115838.987500", "115839.777500", "115840.565000", "115841.352500", "115842.140000", "115842.930000", "115843.717500", "115844.505000", "115845.292500", "115846.082500", "115846.870000", "115847.657500", "115848.447500", "115849.235000", "115850.022500", "115850.810000", "115851.600000", "115852.387500", "115853.175000", "115853.962500", "115854.752500", "115855.540000", "115856.327500", "115857.115000", "115857.905000", "115858.692500", "115859.480000", "115900.267500", "115901.057500", "115901.845000", "115902.632500", "115903.420000", "115904.210000", "115904.997500", "115905.785000", "115906.575000", "115907.362500", "115908.150000", "115908.937500", "115909.727500", "115910.515000", "115911.302500", "115912.090000", "115912.880000", "115913.667500", "115914.455000", "115915.242500", "115916.032500", "115916.820000", "115917.607500", "115918.395000", "115919.185000", "115919.972500", "115920.760000", "115921.547500", "115922.337500", "115923.125000", "115923.912500", "115924.702500", "115925.490000", "115926.277500", "115927.065000", "115927.855000", "115928.642500", "115929.430000", "115930.217500", "115931.007500", "115931.795000", "115932.582500", "115933.370000", "115934.160000", "115934.947500", "115935.735000", "115936.522500", "115937.312500", "115938.100000", "115938.887500", "115939.677500", "115940.465000", "115941.252500", "115942.040000", "115942.830000", "115943.617500", "115944.405000", "115945.192500", "115945.982500", "115946.770000", "115947.557500", "115948.345000", "115949.135000", "115949.922500", "115950.710000", "115951.497500", "115952.287500", "115953.075000", "115953.862500", "115954.650000", "115955.440000", "115956.227500", "115957.015000", "115957.805000", "115958.592500", "115959.380000", "120000.167500", "120000.957500", "120001.745000", "120002.532500", "120003.320000", "120004.110000", "120004.897500", "120005.685000", "120006.472500", "120007.262500", "120008.050000", "120008.837500", "120009.625000", "120010.415000", "120011.202500", "120011.990000", "120012.777500", "120013.567500", "120014.355000", "120015.142500", "120015.932500", "120016.720000", "120017.507500", "120018.295000", "120019.085000", "120019.872500", "120020.660000", "120021.447500", "120022.237500", "120023.025000", "120023.812500", "120024.600000", "120025.390000", "120026.177500", "120026.965000", "120027.752500", "120028.542500", "120029.330000", "120030.117500", "120030.905000", "120031.695000", "120032.482500", "120033.270000", "120034.060000", "120034.847500", "120035.635000", "120036.422500", "120037.212500", "120038.000000", "120038.787500", "120039.575000", "120040.365000", "120041.152500", "120041.940000", "120042.727500", "120043.517500", "120044.305000", "120045.092500", "120045.880000", "120046.670000", "120047.457500", "120048.245000", "120049.032500", "120049.822500", "120050.610000", "120051.397500", "120052.187500", "120052.975000", "120053.762500", "120054.550000", "120055.340000", "120056.127500", "120056.915000", "120057.702500", "120058.492500", "120059.280000", "120100.067500", "120100.855000", "120101.645000", "120102.432500", "120103.220000", "120104.007500", "120104.797500", "120105.585000", "120106.372500", "120107.160000", "120107.950000", "120108.737500", "120109.525000", "120110.315000", "120111.102500", "120111.890000", "120112.677500", "120113.467500", "120114.255000", "120115.042500", "120115.830000", "120116.620000", "120117.407500", "120118.195000", "120118.982500", "120119.772500", "120120.560000", "120121.347500", "120122.135000", "120122.925000", "120123.712500", "120124.500000", "120125.287500", "120126.077500", "120126.865000", "120127.652500", "120128.442500", "120129.230000", "120130.017500", "120130.805000", "120131.595000", "120132.382500", "120133.170000", "120133.957500", "120134.747500", "120135.535000", "120136.322500", "120137.110000", "120137.900000", "120138.687500", "120139.475000", "120140.262500", "120141.052500", "120141.840000", "120142.627500", "120143.415000", "120144.205000", "120144.992500", "120145.780000", "120146.570000", "120147.357500", "120148.145000", "120148.932500", "120149.722500", "120150.510000", "120151.297500", "120152.085000", "120152.875000", "120153.662500", "120154.450000", "120155.237500", "120156.027500", "120156.815000", "120157.602500", "120158.390000", "120159.180000", "120159.967500", "120200.755000", "120201.542500", "120202.332500", "120203.120000", "120203.907500", "120204.697500", "120205.485000", "120206.272500", "120207.060000", "120207.850000", "120208.637500", "120209.425000", "120210.212500", "120211.002500", "120211.790000", "120212.577500", "120213.365000", "120214.155000", "120214.942500", "120215.730000", "120216.517500", "120217.307500", "120218.095000", "120218.882500", "120219.670000", "120220.460000", "120221.247500", "120222.035000", "120222.825000", "120223.612500", "120224.400000", "120225.187500", "120225.977500", "120226.765000", "120227.552500", "120228.340000", "120229.130000", "120229.917500", "120230.705000", "120231.492500", "120232.282500", "120233.070000", "120233.857500", "120234.645000", "120235.435000", "120236.222500", "120237.010000", "120237.797500", "120238.587500", "120239.375000", "120240.162500", "120240.952500", "120241.740000", "120242.527500", "120243.315000", "120244.105000", "120244.892500", "120245.680000", "120246.467500", "120247.257500", "120248.045000", "120248.832500", "120249.620000", "120250.410000", "120251.197500", "120251.985000", "120252.772500", "120253.562500", "120254.350000", "120255.137500", "120255.927500", "120256.715000", "120257.502500", "120258.290000", "120259.080000", "120259.867500", "120300.655000", "120301.442500", "120302.232500", "120303.020000", "120303.807500", "120304.595000", "120305.385000", "120306.172500", "120306.960000", "120307.747500", "120308.537500", "120309.325000", "120310.112500", "120310.900000", "120311.690000", "120312.477500", "120313.265000", "120314.055000", "120314.842500", "120315.630000", "120316.417500", "120317.207500", "120317.995000", "120318.782500", "120319.570000", "120320.360000", "120321.147500", "120321.935000", "120322.722500", "120323.512500", "120324.300000", "120325.087500", "120325.875000", "120326.665000", "120327.452500", "120328.240000", "120329.027500", "120329.817500", "120330.605000", "120331.392500", "120332.182500", "120332.970000", "120333.757500", "120334.545000", "120335.335000", "120336.122500", "120336.910000", "120337.697500", "120338.487500", "120339.275000", "120340.062500", "120340.850000", "120341.640000", "120342.427500", "120343.215000", "120344.002500", "120344.792500", "120345.580000", "120346.367500", "120347.155000", "120347.945000", "120348.732500", "120349.520000", "120350.310000", "120351.097500", "120351.885000", "120352.672500", "120353.462500", "120354.250000", "120355.037500", "120355.825000", "120356.615000", "120357.402500", "120358.190000", "120358.977500", "120359.767500", "120400.555000", "120401.342500", "120402.130000", "120402.920000"],
      "ContentTime": ["115655.578000", "115655.578000", "115655.578000", "115655.578000", "115655.578000", "115655.593000", "115655.593000", "115655.593000", "115655.593000", "115655.609000", "115655.609000", "115655.609000", "115655.609000", "115655.609000", "115655.609000", "115655.609000", "115655.609000", "115655.625000", "115655.625000", "115655.625000", "115655.625000", "115655.625000", "115655.625000", "115655.625000", "115655.625000", "115655.640000", "115655.640000", "115655.640000", "115655.640000", "115655.640000", "115655.640000", "115655.640000", "115655.656000", "115655.656000", "115655.656000", "115715.546000", "115715.546000", "115715.562000", "115715.562000", "115715.562000", "115715.562000", "115715.562000", "115715.578000", "115715.578000", "115715.578000", "115715.578000", "115715.578000", "115715.578000", "115715.593000", "115715.593000", "115715.593000", "115715.593000", "115715.593000", "115715.593000", "115715.593000", "115715.609000", "115715.609000", "115715.609000", "115715.609000", "115715.609000", "115715.625000", "115735.546000", "115735.546000", "115735.562000", "115735.562000", "115735.562000", "115735.562000", "115735.562000", "115735.562000", "115735.578000", "115735.578000", "115735.578000", "115735.578000", "115735.578000", "115735.578000", "115735.593000", "115735.593000", "115735.593000", "115735.593000", "115735.593000", "115735.593000", "115735.593000", "115735.609000", "115735.609000", "115735.609000", "115735.609000", "115755.546000", "115755.546000", "115755.562000", "115755.562000", "115755.562000", "115755.562000", "115755.562000", "115755.562000", "115755.562000", "115755.562000", "115755.578000", "115755.578000", "115755.578000", "115755.578000", "115755.578000", "115755.578000", "115755.578000", "115755.593000", "115755.593000", "115755.593000", "115755.593000", "115755.593000", "115755.593000", "115755.593000", "115755.593000", "115755.609000", "115815.546000", "115815.546000", "115815.562000", "115815.562000", "115815.562000", "115815.562000", "115815.562000", "115815.562000", "115815.562000", "115815.578000", "115815.578000", "115815.578000", "115815.578000", "115815.578000", "115815.578000", "115815.578000", "115815.593000", "115815.593000", "115815.593000", "115815.593000", "115815.593000", "115815.593000", "115815.593000", "115815.609000", "115815.609000", "115835.546000", "115835.546000", "115835.562000", "115835.562000", "115835.562000", "115835.562000", "115835.562000", "115835.562000", "115835.562000", "115835.562000", "115835.578000", "115835.578000", "115835.578000", "115835.578000", "115835.578000", "115835.593000", "115835.593000", "115835.593000", "115835.593000", "115835.593000", "115835.593000", "115835.593000", "115835.609000", "115835.609000", "115835.609000", "115835.609000", "115855.546000", "115855.546000", "115855.562000", "115855.562000", "115855.562000", "115855.562000", "115855.562000", "115855.562000", "115855.562000", "115855.562000", "115855.578000", "115855.578000", "115855.578000", "115855.578000", "115855.578000", "115855.578000", "115855.578000", "115855.593000", "115855.593000", "115855.593000", "115855.593000", "115855.593000", "115855.593000", "115855.593000", "115855.593000", "115915.546000", "115915.546000", "115915.562000", "115915.562000", "115915.562000", "115915.562000", "115915.562000", "115915.562000", "115915.562000", "115915.562000", "115915.578000", "115915.578000", "115915.578000", "115915.578000", "115915.578000", "115915.578000", "115915.578000", "115915.593000", "115915.593000", "115915.593000", "115915.593000", "115915.593000", "115915.593000", "115915.593000", "115915.609000", "115915.609000", "115935.546000", "115935.546000", "115935.562000", "115935.562000", "115935.562000", "115935.562000", "115935.562000", "115935.562000", "115935.562000", "115935.562000", "115935.578000", "115935.578000", "115935.578000", "115935.578000", "115935.578000", "115935.578000", "115935.578000", "115935.593000", "115935.593000", "115935.593000", "115935.593000", "115935.593000", "115935.593000", "115935.593000", "115935.609000", "115955.546000", "115955.546000", "115955.562000", "115955.562000", "115955.562000", "115955.562000", "115955.562000", "115955.562000", "115955.562000", "115955.562000", "115955.578000", "115955.578000", "115955.578000", "115955.578000", "115955.578000", "115955.578000", "115955.578000", "115955.593000", "115955.593000", "115955.593000", "115955.593000", "115955.593000", "115955.593000", "115955.593000", "115955.609000", "115955.609000", "120015.546000", "120015.546000", "120015.562000", "120015.562000", "120015.562000", "120015.562000", "120015.562000", "120015.562000", "120015.562000", "120015.578000", "120015.578000", "120015.578000", "120015.578000", "120015.578000", "120015.578000", "120015.578000", "120015.578000", "120015.593000", "120015.593000", "120015.593000", "120015.593000", "120015.593000", "120015.593000", "120015.593000", "120015.609000", "120035.546000", "120035.546000", "120035.562000", "120035.562000", "120035.562000", "120035.562000", "120035.562000", "120035.562000", "120035.562000", "120035.578000", "120035.578000", "120035.578000", "120035.578000", "120035.578000", "120035.578000", "120035.578000", "120035.578000", "120035.593000", "120035.593000", "120035.593000", "120035.593000", "120035.593000", "120035.609000", "120035.609000", "120035.609000", "120035.609000", "120055.546000", "120055.546000", "120055.562000", "120055.562000", "120055.562000", "120055.562000", "120055.562000", "120055.562000", "120055.562000", "120055.578000", "120055.578000", "120055.578000", "120055.578000", "120055.578000", "120055.578000", "120055.578000", "120055.578000", "120055.593000", "120055.593000", "120055.593000", "120055.593000", "120055.593000", "120055.593000", "120055.593000", "120055.609000", "120115.546000", "120115.546000", "120115.562000", "120115.562000", "120115.562000", "120115.562000", "120115.562000", "120115.562000", "120115.578000", "120115.578000", "120115.578000", "120115.578000", "120115.578000", "120115.578000", "120115.593000", "120115.593000", "120115.593000", "120115.593000", "120115.593000", "120115.593000", "120115.593000", "120115.609000", "120115.609000", "120115.609000", "120115.609000", "120115.609000", "120135.546000", "120135.546000", "120135.562000", "120135.562000", "120135.562000", "120135.562000", "120135.562000", "120135.562000", "120135.562000", "120135.578000", "120135.578000", "120135.578000", "120135.578000", "120135.578000", "120135.578000", "120135.578000", "120135.578000", "120135.593000", "120135.593000", "120135.593000", "120135.593000", "120135.593000", "120135.593000", "120135.593000", "120135.609000", "120155.546000", "120155.546000", "120155.562000", "120155.562000", "120155.562000", "120155.562000", "120155.562000", "120155.562000", "120155.562000", "120155.562000", "120155.578000", "120155.578000", "120155.578000", "120155.578000", "120155.578000", "120155.578000", "120155.578000", "120155.593000", "120155.593000", "120155.593000", "120155.593000", "120155.593000", "120155.593000", "120155.593000", "120155.609000", "120155.609000", "120215.546000", "120215.546000", "120215.562000", "120215.562000", "120215.562000", "120215.562000", "120215.562000", "120215.562000", "120215.562000", "120215.578000", "120215.578000", "120215.578000", "120215.578000", "120215.578000", "120215.578000", "120215.578000", "120215.578000", "120215.593000", "120215.593000", "120215.593000", "120215.593000", "120215.593000", "120215.593000", "120215.593000", "120215.609000", "120235.546000", "120235.546000", "120235.562000", "120235.562000", "120235.562000", "120235.562000", "120235.578000", "120235.578000", "120235.578000", "120235.593000", "120235.593000", "120235.593000", "120235.593000", "120235.593000", "120235.593000", "120235.593000", "120235.609000", "120235.609000", "120235.609000", "120235.609000", "120235.609000", "120235.609000", "120235.609000", "120235.609000", "120235.625000", "120255.546000", "120255.546000", "120255.562000", "120255.562000", "120255.562000", "120255.562000", "120255.562000", "120255.562000", "120255.562000", "120255.578000", "120255.578000", "120255.578000", "120255.578000", "120255.578000", "120255.578000", "120255.593000", "120255.593000", "120255.593000", "120255.593000", "120255.609000", "120255.609000", "120255.609000", "120255.609000", "120255.609000", "120255.609000", "120255.609000", "120315.546000", "120315.546000", "120315.562000", "120315.562000", "120315.562000", "120315.562000", "120315.562000", "120315.562000", "120315.562000", "120315.578000", "120315.578000", "120315.578000", "120315.578000", "120315.578000", "120315.578000", "120315.578000", "120315.578000", "120315.593000", "120315.593000", "120315.593000", "120315.593000", "120315.593000", "120315.593000", "120315.609000", "120315.609000", "120335.546000", "120335.546000", "120335.562000", "120335.562000", "120335.562000", "120335.562000", "120335.562000", "120335.562000", "120335.578000", "120335.578000", "120335.578000", "120335.578000", "120335.578000", "120335.578000", "120335.578000", "120335.593000", "120335.593000", "120335.593000", "120335.593000", "120335.593000", "120335.593000", "120335.593000", "120335.609000", "120335.609000", "120335.609000", "120335.609000", "120355.546000", "120355.562000", "120355.562000", "120355.562000", "120355.562000", "120355.562000", "120355.562000", "120355.562000", "120355.578000", "120355.578000", "120355.578000", "120355.593000", "120355.593000", "120355.593000", "120355.609000", "120355.609000", "120355.609000", "120355.609000", "120355.609000", "120355.609000", "120355.609000", "120355.625000", "120355.625000", "120355.625000", "120355.625000", "120403.500000", "120403.500000", "120403.500000", "120403.500000", "120403.515000", "120403.515000", "120403.515000", "120403.515000", "120403.515000", "120403.515000", "120403.515000"],
