{
  "AcquisitionMatrixPE": 104,
  "AcquisitionNumber": 1,
  "AcquisitionTime": "12:12:27.697500",
  "BandwidthPerPixelPhaseEncode": 13.935,
  "BaseResolution": 104,
  "CoilString": "C:HEA;HEP",
  "ConversionSoftware": "dcm2niix",
  "ConversionSoftwareVersion": "v1.0.20210317",
  "DerivedVendorReportedEchoSpacing": 0.000690017,
  "DeviceSerialNumber": "35450",
  "DwellTime": 2.5e-06,
  "EchoTime": 0.0348,
  "EffectiveEchoSpacing": 0.000690017,
  "FlipAngle": 55,
  "ImageComments": "Unaliased MB8/PE3 (remote)",
  "ImageOrientationPatientDICOM": [0.999784, 0.000796899, 0.0207445, 7.43641e-09, 0.999263, -0.0383871],
  "ImageType": [
    "ORIGINAL",
    "PRIMARY",
    "M",
    "MB",
    "ND",
    "MOSAIC"
],
  "ImagingFrequency": 123.234,
  "InPlanePhaseEncodingDirectionDICOM": "COL",
  "InstitutionAddress": "Univeristy Ave. 197,Newark,North East,US,07102-1814",
  "InstitutionName": "RUBIC",
  "InstitutionalDepartmentName": "Department",
  "MRAcquisitionType": "2D",
  "MagneticFieldStrength": 3,
  "Manufacturer": "Siemens",
  "ManufacturersModelName": "TrioTim",
  "Modality": "MR",
  "MultibandAccelerationFactor": 8,
  "PartialFourier": 0.875,
  "PatientPosition": "HFS",
  "PercentPhaseFOV": 100,
  "PercentSampling": 100,
  "PhaseEncodingDirection": "j-",
  "PhaseEncodingSteps": 91,
  "PhaseResolution": 1,
  "PixelBandwidth": 1923,
  "ProcedureStepDescription": "Cole^Michael",
  "ProtocolName": "cmrr_mbep2d_bold_2mm_MB8_Task_8x",
  "PulseSequenceDetails": "%CustomerSeq%\\cmrr_mbep2d_bold",
  "ReceiveCoilName": "32Ch_Head",
  "ReconMatrixPE": 104,
  "RepetitionTime": 0.785,
  "SAR": 0.121206,
  "ScanOptions": "PFP\\FS",
  "ScanningSequence": "EP",
  "SequenceName": "epfid2d1_104",
  "SequenceVariant": "SK\\SS",
  "SeriesDescription": "cmrr_mbep2d_bold_2mm_MB8_Task_8x",
  "SeriesNumber": 25,
  "ShimSetting": [2133, -475, -7193, 335, 4, -77, -214, 94],
  "SliceThickness": 2,
  "SliceTiming": [0, 0.4375, 0.0875, 0.525, 0.175, 0.6125, 0.2625, 0.7, 0.35, 0, 0.4375, 0.0875, 0.525, 0.175, 0.6125, 0.2625, 0.7, 0.35, 0, 0.4375, 0.0875, 0.525, 0.175, 0.6125, 0.2625, 0.7, 0.35, 0, 0.4375, 0.0875, 0.525, 0.175, 0.6125, 0.2625, 0.7, 0.35, 0, 0.4375, 0.0875, 0.525, 0.175, 0.6125, 0.2625, 0.7, 0.35, 0, 0.4375, 0.0875, 0.525, 0.175, 0.6125, 0.2625, 0.7, 0.35, 0, 0.4375, 0.0875, 0.525, 0.175, 0.6125, 0.2625, 0.7, 0.35, 0, 0.4375, 0.0875, 0.525, 0.175, 0.6125, 0.2625, 0.7, 0.35],
  "SoftwareVersions": "syngo MR B19",
  "SpacingBetweenSlices": 2,
  "StationName": "MRC35450",
  "TaskName": "cpro",
  "TotalReadoutTime": 0.0710717,
  "TxRefAmp": 319.569,
  "dcmmeta_affine": [
    [-1.9995689392089844, 1.4872817644118186e-08, 0.04151950776576996, 101.12844848632812],
    [-0.0015937975840643048, 1.998525857925415, -0.07675760984420776, -70.0103759765625],
    [0.041488904505968094, 0.07677415013313293, 1.9980952739715576, -100.8836441040039],
    [0.0, 0.0, 0.0, 1.0]
],
  "dcmmeta_reorient_transform": [
    [0.0, -1.0, 0.0, 103.0],
    [1.0, 0.0, 0.0, 0.0],
    [0.0, 0.0, 1.0, 0.0],
    [0.0, 0.0, 0.0, 1.0]
],
  "dcmmeta_shape": [104, 104, 72, 581],
  "dcmmeta_slice_dim": 2,
  "dcmmeta_version": 0.6,
  "global": {
    "const": {
      "AcquisitionMatrix": [104, 0, 0, 104],
      "AngioFlag": "N",
      "BitsAllocated": 16,
      "BitsStored": 12,
      "Columns": 936,
      "EchoNumbers": 1,
      "EchoTime": 34.8,
      "EchoTrainLength": 1,
      "FlipAngle": 55.0,
      "HighBit": 11,
      "ImageOrientationPatient": [0.99978449309807, 0.00079689880947, 0.02074445258201, 7.436409e-09, 0.99926294455824, -0.0383870763773],
      "ImagePositionPatient": [-932.94915614773, -967.88758115646, -78.297241737518],
      "ImageType": [
        "ORIGINAL",
        "PRIMARY",
        "M",
        "MB",
        "ND",
        "MOSAIC"
],
      "ImagedNucleus": "1H",
      "ImagingFrequency": 123.234476,
      "InPlanePhaseEncodingDirection": "COL",
      "MRAcquisitionType": "2D",
      "MagneticFieldStrength": 3.0,
      "Manufacturer": "SIEMENS",
      "ManufacturerModelName": "TrioTim",
      "Modality": "MR",
      "NumberOfAverages": 1.0,
      "NumberOfPhaseEncodingSteps": 91,
      "PercentPhaseFieldOfView": 100.0,
      "PercentSampling": 100.0,
      "PerformedProcedureStepStartTime": "100952.953000",
      "PhotometricInterpretation": "MONOCHROME2",
      "PixelBandwidth": 1923.0,
      "PixelRepresentation": 0,
      "PixelSpacing": [2.0, 2.0],
      "ProtocolName": "cmrr_mbep2d_bold_2mm_MB8_Task_8x",
      "RepetitionTime": 785.0,
      "Rows": 936,
      "SAR": 0.12120559906608,
      "SamplesPerPixel": 1,
      "ScanOptions": [
        "PFP",
        "FS"
],
      "ScanningSequence": "EP",
      "SequenceName": "epfid2d1_104",
      "SequenceVariant": [
        "SK",
        "SS"
],
      "SeriesDescription": "cmrr_mbep2d_bold_2mm_MB8_Task_8x",
      "SeriesNumber": 25,
      "SeriesTime": "121254.781000",
      "SliceLocation": -96.001244394221,
      "SliceThickness": 2.0,
      "SmallestImagePixelValue": 0,
      "SoftwareVersions": "syngo MR B19",
      "SpacingBetweenSlices": 2.0000000377246,
      "SpecificCharacterSet": "ISO_IR 100",
      "StudyID": "1",
      "StudyTime": "100952.843000",
      "TransmitCoilName": "Body",
      "VariableFlipAngleFlag": "N",
      "WindowCenterWidthExplanation": "Algo1",
      "dBdt": 0.0},
    "slices": {}
  },
  "time": {
    "samples": {
      "AcquisitionNumber": [1, 2, 3, 4, 5, 6, 7, 8, 9, 10, 11, 12, 13, 14, 15, 16, 17, 18, 19, 20, 21, 22, 23, 24, 25, 26, 27, 28, 29, 30, 31, 32, 33, 34, 35, 36, 37, 38, 39, 40, 41, 42, 43, 44, 45, 46, 47, 48, 49, 50, 51, 52, 53, 54, 55, 56, 57, 58, 59, 60, 61, 62, 63, 64, 65, 66, 67, 68, 69, 70, 71, 72, 73, 74, 75, 76, 77, 78, 79, 80, 81, 82, 83, 84, 85, 86, 87, 88, 89, 90, 91, 92, 93, 94, 95, 96, 97, 98, 99, 100, 101, 102, 103, 104, 105, 106, 107, 108, 109, 110, 111, 112, 113, 114, 115, 116, 117, 118, 119, 120, 121, 122, 123, 124, 125, 126, 127, 128, 129, 130, 131, 132, 133, 134, 135, 136, 137, 138, 139, 140, 141, 142, 143, 144, 145, 146, 147, 148, 149, 150, 151, 152, 153, 154, 155, 156, 157, 158, 159, 160, 161, 162, 163, 164, 165, 166, 167, 168, 169, 170, 171, 172, 173, 174, 175, 176, 177, 178, 179, 180, 181, 182, 183, 184, 185, 186, 187, 188, 189, 190, 191, 192, 193, 194, 195, 196, 197, 198, 199, 200, 201, 202, 203, 204, 205, 206, 207, 208, 209, 210, 211, 212, 213, 214, 215, 216, 217, 218, 219, 220, 221, 222, 223, 224, 225, 226, 227, 228, 229, 230, 231, 232, 233, 234, 235, 236, 237, 238, 239, 240, 241, 242, 243, 244, 245, 246, 247, 248, 249, 250, 251, 252, 253, 254, 255, 256, 257, 258, 259, 260, 261, 262, 263, 264, 265, 266, 267, 268, 269, 270, 271, 272, 273, 274, 275, 276, 277, 278, 279, 280, 281, 282, 283, 284, 285, 286, 287, 288, 289, 290, 291, 292, 293, 294, 295, 296, 297, 298, 299, 300, 301, 302, 303, 304, 305, 306, 307, 308, 309, 310, 311, 312, 313, 314, 315, 316, 317, 318, 319, 320, 321, 322, 323, 324, 325, 326, 327, 328, 329, 330, 331, 332, 333, 334, 335, 336, 337, 338, 339, 340, 341, 342, 343, 344, 345, 346, 347, 348, 349, 350, 351, 352, 353, 354, 355, 356, 357, 358, 359, 360, 361, 362, 363, 364, 365, 366, 367, 368, 369, 370, 371, 372, 373, 374, 375, 376, 377, 378, 379, 380, 381, 382, 383, 384, 385, 386, 387, 388, 389, 390, 391, 392, 393, 394, 395, 396, 397, 398, 399, 400, 401, 402, 403, 404, 405, 406, 407, 408, 409, 410, 411, 412, 413, 414, 415, 416, 417, 418, 419, 420, 421, 422, 423, 424, 425, 426, 427, 428, 429, 430, 431, 432, 433, 434, 435, 436, 437, 438, 439, 440, 441, 442, 443, 444, 445, 446, 447, 448, 449, 450, 451, 452, 453, 454, 455, 456, 457, 458, 459, 460, 461, 462, 463, 464, 465, 466, 467, 468, 469, 470, 471, 472, 473, 474, 475, 476, 477, 478, 479, 480, 481, 482, 483, 484, 485, 486, 487, 488, 489, 490, 491, 492, 493, 494, 495, 496, 497, 498, 499, 500, 501, 502, 503, 504, 505, 506, 507, 508, 509, 510, 511, 512, 513, 514, 515, 516, 517, 518, 519, 520, 521, 522, 523, 524, 525, 526, 527, 528, 529, 530, 531, 532, 533, 534, 535, 536, 537, 538, 539, 540, 541, 542, 543, 544, 545, 546, 547, 548, 549, 550, 551, 552, 553, 554, 555, 556, 557, 558, 559, 560, 561, 562, 563, 564, 565, 566, 567, 568, 569, 570, 571, 572, 573, 574, 575, 576, 577, 578, 579, 580, 581],
      "AcquisitionTime": ["121227.697500", "121228.485000", "121229.272500", "121230.062500", "121230.850000", "121231.637500", "121232.427500", "121233.215000", "121234.002500", "121234.790000", "121235.580000", "121236.367500", "121237.155000", "121237.942500", "121238.732500", "121239.520000", "121240.307500", "121241.095000", "121241.885000", "121242.672500", "121243.460000", "121244.247500", "121245.037500", "121245.825000", "121246.612500", "121247.400000", "121248.190000", "121248.977500", "121249.765000", "121250.555000", "121251.342500", "121252.130000", "121252.917500", "121253.707500", "121254.495000", "121255.282500", "121256.070000", "121256.860000", "121257.647500", "121258.435000", "121259.222500", "121300.012500", "121300.800000", "121301.587500", "121302.375000", "121303.165000", "121303.952500", "121304.740000", "121305.527500", "121306.317500", "121307.105000", "121307.892500", "121308.682500", "121309.470000", "121310.257500", "121311.045000", "121311.835000", "121312.622500", "121313.410000", "121314.197500", "121314.987500", "121315.775000", "121316.562500", "121317.350000", "121318.140000", "121318.927500", "121319.715000", "121320.502500", "121321.292500", "121322.080000", "121322.867500", "121323.655000", "121324.445000", "121325.232500", "121326.020000", "121326.810000", "121327.597500", "121328.385000", "121329.172500", "121329.962500", "121330.750000", "121331.537500", "121332.325000", "121333.115000", "121333.902500", "121334.690000", "121335.477500", "121336.267500", "121337.055000", "121337.842500", "121338.630000", "121339.420000", "121340.207500", "121340.995000", "121341.785000", "121342.572500", "121343.360000", "121344.147500", "121344.937500", "121345.725000", "121346.512500", "121347.300000", "121348.090000", "121348.877500", "121349.665000", "121350.452500", "121351.242500", "121352.030000", "121352.817500", "121353.605000", "121354.395000", "121355.182500", "121355.970000", "121356.757500", "121357.547500", "121358.335000", "121359.122500", "121359.912500", "121400.700000", "121401.487500", "121402.275000", "121403.065000", "121403.852500", "121404.640000", "121405.427500", "121406.217500", "121407.005000", "121407.792500", "121408.580000", "121409.370000", "121410.157500", "121410.945000", "121411.732500", "121412.522500", "121413.310000", "121414.097500", "121414.885000", "121415.675000", "121416.462500", "121417.250000", "121418.040000", "121418.827500", "121419.615000", "121420.402500", "121421.192500", "121421.980000", "121422.767500", "121423.555000", "121424.345000", "121425.132500", "121425.920000", "121426.707500", "121427.497500", "121428.285000", "121429.072500", "121429.860000", "121430.650000", "121431.437500", "121432.225000", "121433.012500", "121433.802500", "121434.590000", "121435.377500", "121436.167500", "121436.955000", "121437.742500", "121438.530000", "121439.320000", "121440.107500", "121440.895000", "121441.682500", "121442.472500", "121443.260000", "121444.047500", "121444.835000", "121445.625000", "121446.412500", "121447.200000", "121447.987500", "121448.777500", "121449.565000", "121450.352500", "121451.140000", "121451.930000", "121452.717500", "121453.505000", "121454.295000", "121455.082500", "121455.870000", "121456.657500", "121457.447500", "121458.235000", "121459.022500", "121459.810000", "121500.600000", "121501.387500", "121502.175000", "121502.962500", "121503.752500", "121504.540000", "121505.327500", "121506.115000", "121506.905000", "121507.692500", "121508.480000", "121509.267500", "121510.057500", "121510.845000", "121511.632500", "121512.422500", "121513.210000", "121513.997500", "121514.785000", "121515.575000", "121516.362500", "121517.150000", "121517.937500", "121518.727500", "121519.515000", "121520.302500", "121521.090000", "121521.880000", "121522.667500", "121523.455000", "121524.242500", "121525.032500", "121525.820000", "121526.607500", "121527.395000", "121528.185000", "121528.972500", "121529.760000", "121530.550000", "121531.337500", "121532.125000", "121532.912500", "121533.702500", "121534.490000", "121535.277500", "121536.065000", "121536.855000", "121537.642500", "121538.430000", "121539.217500", "121540.007500", "121540.795000", "121541.582500", "121542.370000", "121543.160000", "121543.947500", "121544.735000", "121545.522500", "121546.312500", "121547.100000", "121547.887500", "121548.677500", "121549.465000", "121550.252500", "121551.040000", "121551.830000", "121552.617500", "121553.405000", "121554.192500", "121554.982500", "121555.770000", "121556.557500", "121557.345000", "121558.135000", "121558.922500", "121559.710000", "121600.497500", "121601.287500", "121602.075000", "121602.862500", "121603.650000", "121604.440000", "121605.227500", "121606.015000", "121606.805000", "121607.592500", "121608.380000", "121609.167500", "121609.957500", "121610.745000", "121611.532500", "121612.320000", "121613.110000", "121613.897500", "121614.685000", "121615.472500", "121616.262500", "121617.050000", "121617.837500", "121618.625000", "121619.415000", "121620.202500", "121620.990000", "121621.777500", "121622.567500", "121623.355000", "121624.142500", "121624.932500", "121625.720000", "121626.507500", "121627.295000", "121628.085000", "121628.872500", "121629.660000", "121630.447500", "121631.237500", "121632.025000", "121632.812500", "121633.600000", "121634.390000", "121635.177500", "121635.965000", "121636.752500", "121637.542500", "121638.330000", "121639.117500", "121639.905000", "121640.695000", "121641.482500", "121642.270000", "121643.060000", "121643.847500", "121644.635000", "121645.422500", "121646.212500", "121647.000000", "121647.787500", "121648.575000", "121649.365000", "121650.152500", "121650.940000", "121651.727500", "121652.517500", "121653.305000", "121654.092500", "121654.880000", "121655.670000", "121656.457500", "121657.245000", "121658.035000", "121658.822500", "121659.610000", "121700.397500", "121701.187500", "121701.975000", "121702.762500", "121703.550000", "121704.340000", "121705.127500", "121705.915000", "121706.702500", "121707.492500", "121708.280000", "121709.067500", "121709.855000", "121710.645000", "121711.432500", "121712.220000", "121713.007500", "121713.797500", "121714.585000", "121715.372500", "121716.162500", "121716.950000", "121717.737500", "121718.525000", "121719.315000", "121720.102500", "121720.890000", "121721.677500", "121722.467500", "121723.255000", "121724.042500", "121724.830000", "121725.620000", "121726.407500", "121727.195000", "121727.982500", "121728.772500", "121729.560000", "121730.347500", "121731.135000", "121731.925000", "121732.712500", "121733.500000", "121734.290000", "121735.077500", "121735.865000", "121736.652500", "121737.442500", "121738.230000", "121739.017500", "121739.805000", "121740.595000", "121741.382500", "121742.170000", "121742.957500", "121743.747500", "121744.535000", "121745.322500", "121746.110000", "121746.900000", "121747.687500", "121748.475000", "121749.262500", "121750.052500", "121750.840000", "121751.627500", "121752.417500", "121753.205000", "121753.992500", "121754.780000", "121755.570000", "121756.357500", "121757.145000", "121757.932500", "121758.722500", "121759.510000", "121800.297500", "121801.085000", "121801.875000", "121802.662500", "121803.450000", "121804.237500", "121805.027500", "121805.815000", "121806.602500", "121807.390000", "121808.180000", "121808.967500", "121809.755000", "121810.545000", "121811.332500", "121812.120000", "121812.907500", "121813.697500", "121814.485000", "121815.272500", "121816.060000", "121816.850000", "121817.637500", "121818.425000", "121819.212500", "121820.002500", "121820.790000", "121821.577500", "121822.365000", "121823.155000", "121823.942500", "121824.730000", "121825.517500", "121826.307500", "121827.095000", "121827.882500", "121828.672500", "121829.460000", "121830.247500", "121831.035000", "121831.825000", "121832.612500", "121833.400000", "121834.187500", "121834.977500", "121835.765000", "121836.552500", "121837.340000", "121838.130000", "121838.917500", "121839.705000", "121840.492500", "121841.282500", "121842.070000", "121842.857500", "121843.645000", "121844.435000", "121845.222500", "121846.010000", "121846.800000", "121847.587500", "121848.375000", "121849.162500", "121849.952500", "121850.740000", "121851.527500", "121852.315000", "121853.105000", "121853.892500", "121854.680000", "121855.467500", "121856.257500", "121857.045000", "121857.832500", "121858.620000", "121859.410000", "121900.197500", "121900.985000", "121901.772500", "121902.562500", "121903.350000", "121904.137500", "121904.927500", "121905.715000", "121906.502500", "121907.290000", "121908.080000", "121908.867500", "121909.655000", "121910.442500", "121911.232500", "121912.020000", "121912.807500", "121913.595000", "121914.385000", "121915.172500", "121915.960000", "121916.747500", "121917.537500", "121918.325000", "121919.112500", "121919.900000", "121920.690000", "121921.477500", "121922.265000", "121923.055000", "121923.842500", "121924.630000", "121925.417500", "121926.207500", "121926.995000", "121927.782500", "121928.570000", "121929.360000", "121930.147500", "121930.935000", "121931.722500", "121932.512500", "121933.300000", "121934.087500", "121934.875000", "121935.665000", "121936.452500", "121937.240000", "121938.027500", "121938.817500", "121939.605000", "121940.392500", "121941.182500", "121941.970000", "121942.757500", "121943.545000", "121944.335000", "121945.122500", "121945.910000", "121946.697500", "121947.487500", "121948.275000", "121949.062500", "121949.850000", "121950.640000", "121951.427500", "121952.215000", "121953.002500", "121953.792500", "121954.580000", "121955.367500", "121956.155000", "121956.945000", "121957.732500", "121958.520000", "121959.310000", "122000.097500", "122000.885000", "122001.672500", "122002.462500", "122003.250000", "122004.037500", "122004.825000"],
      "ContentTime": ["121254.781000", "121254.781000", "121254.781000", "121254.781000", "121254.781000", "121254.796000", "121254.796000", "121254.796000", "121254.796000", "121254.796000", "121254.796000", "121254.812000", "121254.812000", "121254.812000", "121254.812000", "121254.812000", "121254.812000", "121254.812000", "121254.812000", "121254.828000", "121254.828000", "121254.828000", "121254.828000", "121254.843000", "121254.843000", "121254.843000", "121254.843000", "121254.843000", "121254.843000", "121254.843000", "121254.843000", "121254.859000", "121314.750000", "121314.750000", "121314.765000", "121314.765000", "121314.765000", "121314.765000", "121314.765000", "121314.765000", "121314.765000", "121314.781000", "121314.781000", "121314.781000", "121314.781000", "121314.781000", "121314.781000", "121314.781000", "121314.781000", "121314.796000", "121314.796000", "121314.796000", "121314.796000", "121314.796000", "121314.796000", "121314.812000", "121314.812000", "121334.750000", "121334.750000", "121334.765000", "121334.765000", "121334.765000", "121334.765000", "121334.765000", "121334.765000", "121334.765000", "121334.765000", "121334.781000", "121334.781000", "121334.781000", "121334.781000", "121334.781000", "121334.781000", "121334.781000", "121334.781000", "121334.796000", "121334.796000", "121334.796000", "121334.796000", "121334.796000", "121334.796000", "121334.796000", "121334.812000", "121354.750000", "121354.750000", "121354.765000", "121354.765000", "121354.765000", "121354.765000", "121354.765000", "121354.765000", "121354.765000", "121354.781000", "121354.781000", "121354.781000", "121354.781000", "121354.781000", "121354.781000", "121354.781000", "121354.781000", "121354.796000", "121354.796000", "121354.796000", "121354.796000", "121354.796000", "121354.796000", "121354.812000", "121354.812000", "121414.750000", "121414.750000", "121414.765000", "121414.765000", "121414.765000", "121414.765000", "121414.765000", "121414.765000", "121414.765000", "121414.765000", "121414.781000", "121414.781000", "121414.781000", "121414.781000", "121414.781000", "121414.781000", "121414.781000", "121414.781000", "121414.796000", "121414.796000", "121414.796000", "121414.796000", "121414.796000", "121414.796000", "121414.796000", "121414.812000", "121434.750000", "121434.750000", "121434.765000", "121434.765000", "121434.765000", "121434.765000", "121434.765000", "121434.765000", "121434.765000", "121434.781000", "121434.781000", "121434.781000", "121434.781000", "121434.781000", "121434.781000", "121434.781000", "121434.796000", "121434.796000", "121434.796000", "121434.796000", "121434.796000", "121434.796000", "121434.796000", "121434.796000", "121434.812000", "121454.750000", "121454.750000", "121454.765000", "121454.765000", "121454.765000", "121454.765000", "121454.765000", "121454.765000", "121454.765000", "121454.765000", "121454.781000", "121454.781000", "121454.781000", "121454.781000", "121454.781000", "121454.781000", "121454.781000", "121454.781000", "121454.796000", "121454.796000", "121454.796000", "121454.796000", "121454.796000", "121454.796000", "121454.812000", "121454.812000", "121514.750000", "121514.750000", "121514.765000", "121514.765000", "121514.765000", "121514.765000", "121514.765000", "121514.765000", "121514.765000", "121514.781000", "121514.781000", "121514.781000", "121514.781000", "121514.781000", "121514.781000", "121514.781000", "121514.781000", "121514.796000", "121514.796000", "121514.796000", "121514.796000", "121514.796000", "121514.796000", "121514.796000", "121514.812000", "121534.750000", "121534.750000", "121534.765000", "121534.765000", "121534.765000", "121534.765000", "121534.765000", "121534.765000", "121534.765000", "121534.765000", "121534.781000", "121534.781000", "121534.781000", "121534.781000", "121534.781000", "121534.781000", "121534.781000", "121534.796000", "121534.796000", "121534.796000", "121534.796000", "121534.796000", "121534.796000", "121534.812000", "121534.812000", "121534.812000", "121554.750000", "121554.750000", "121554.765000", "121554.765000", "121554.765000", "121554.765000", "121554.765000", "121554.765000", "121554.765000", "121554.765000", "121554.781000", "121554.781000", "121554.781000", "121554.781000", "121554.781000", "121554.781000", "121554.796000", "121554.796000", "121554.796000", "121554.796000", "121554.796000", "121554.796000", "121554.796000", "121554.796000", "121554.812000", "121614.750000", "121614.750000", "121614.765000", "121614.765000", "121614.765000", "121614.765000", "121614.765000", "121614.765000", "121614.765000", "121614.765000", "121614.781000", "121614.781000", "121614.781000", "121614.781000", "121614.781000", "121614.781000", "121614.781000", "121614.796000", "121614.796000", "121614.796000", "121614.796000", "121614.796000", "121614.796000", "121614.796000", "121614.796000", "121614.812000", "121634.750000", "121634.750000", "121634.765000", "121634.765000", "121634.765000", "121634.765000", "121634.765000", "121634.765000", "121634.765000", "121634.781000", "121634.781000", "121634.781000", "121634.781000", "121634.781000", "121634.781000", "121634.781000", "121634.781000", "121634.796000", "121634.796000", "121634.796000", "121634.796000", "121634.796000", "121634.796000", "121634.796000", "121634.812000", "121654.750000", "121654.750000", "121654.765000", "121654.765000", "121654.765000", "121654.765000", "121654.765000", "121654.765000", "121654.765000", "121654.765000", "121654.781000", "121654.781000", "121654.781000", "121654.781000", "121654.781000", "121654.781000", "121654.781000", "121654.796000", "121654.796000", "121654.796000", "121654.796000", "121654.796000", "121654.796000", "121654.796000", "121654.796000", "121654.812000", "121714.750000", "121714.750000", "121714.765000", "121714.765000", "121714.765000", "121714.765000", "121714.765000", "121714.765000", "121714.765000", "121714.781000", "121714.781000", "121714.781000", "121714.781000", "121714.781000", "121714.781000", "121714.781000", "121714.796000", "121714.796000", "121714.796000", "121714.796000", "121714.796000", "121714.796000", "121714.796000", "121714.796000", "121714.812000", "121734.750000", "121734.750000", "121734.765000", "121734.765000", "121734.765000", "121734.765000", "121734.765000", "121734.765000", "121734.765000", "121734.765000", "121734.781000", "121734.781000", "121734.781000", "121734.781000", "121734.781000", "121734.781000", "121734.781000", "121734.796000", "121734.796000", "121734.796000", "121734.796000", "121734.796000", "121734.796000", "121734.796000", "121734.796000", "121734.812000", "121754.750000", "121754.750000", "121754.765000", "121754.765000", "121754.765000", "121754.765000", "121754.765000", "121754.765000", "121754.765000", "121754.765000", "121754.781000", "121754.781000", "121754.781000", "121754.781000", "121754.781000", "121754.781000", "121754.781000", "121754.796000", "121754.796000", "121754.796000", "121754.796000", "121754.796000", "121754.796000", "121754.796000", "121754.796000", "121814.750000", "121814.750000", "121814.765000", "121814.765000", "121814.765000", "121814.765000", "121814.765000", "121814.765000", "121814.765000", "121814.765000", "121814.781000", "121814.781000", "121814.781000", "121814.781000", "121814.781000", "121814.781000", "121814.781000", "121814.796000", "121814.796000", "121814.796000", "121814.796000", "121814.796000", "121814.796000", "121814.796000", "121814.796000", "121814.812000", "121834.750000", "121834.750000", "121834.765000", "121834.765000", "121834.765000", "121834.765000", "121834.765000", "121834.765000", "121834.765000", "121834.765000", "121834.781000", "121834.781000", "121834.781000", "121834.781000", "121834.781000", "121834.781000", "121834.781000", "121834.796000", "121834.796000", "121834.796000", "121834.796000", "121834.796000", "121834.796000", "121834.812000", "121834.812000", "121854.750000", "121854.750000", "121854.765000", "121854.765000", "121854.765000", "121854.765000", "121854.765000", "121854.765000", "121854.765000", "121854.765000", "121854.781000", "121854.781000", "121854.781000", "121854.781000", "121854.781000", "121854.781000", "121854.781000", "121854.796000", "121854.796000", "121854.796000", "121854.796000", "121854.796000", "121854.796000", "121854.796000", "121854.812000", "121854.812000", "121914.750000", "121914.750000", "121914.765000", "121914.765000", "121914.765000", "121914.765000", "121914.765000", "121914.765000", "121914.765000", "121914.781000", "121914.781000", "121914.781000", "121914.781000", "121914.781000", "121914.781000", "121914.796000", "121914.796000", "121914.796000", "121914.796000", "121914.796000", "121914.796000", "121914.796000", "121914.812000", "121914.812000", "121914.812000", "121934.750000", "121934.750000", "121934.765000", "121934.765000", "121934.765000", "121934.765000", "121934.765000", "121934.781000", "121934.781000", "121934.781000", "121934.781000", "121934.781000", "121934.781000", "121934.781000", "121934.781000", "121934.796000", "121934.796000", "121934.796000", "121934.796000", "121934.796000", "121934.796000", "121934.796000", "121934.812000", "121934.812000", "121934.812000", "121954.750000", "121954.750000", "121954.765000", "121954.765000", "121954.765000", "121954.765000", "121954.765000", "121954.765000", "121954.765000", "121954.765000", "121954.781000", "121954.781000", "121954.781000", "121954.781000", "121954.781000", "121954.781000", "121954.781000", "121954.796000", "121954.796000", "121954.796000", "121954.796000", "121954.796000", "121954.796000", "121954.796000", "121954.796000", "121954.812000", "122005.468000", "122005.468000", "122005.484000", "122005.484000", "122005.484000", "122005.484000", "122005.484000", "122005.484000", "122005.484000", "122005.484000", "122005.500000", "122005.500000", "122005.500000", "122005.500000"],
