{
  "AcquisitionMatrixPE": 104,
  "AcquisitionNumber": 1,
  "AcquisitionTime": "16:00:13.802500",
  "BandwidthPerPixelPhaseEncode": 13.935,
  "BaseResolution": 104,
  "CoilString": "C:HEA;HEP",
  "ConversionSoftware": "dcm2niix",
  "ConversionSoftwareVersion": "v1.0.20210317",
  "DerivedVendorReportedEchoSpacing": 0.000690017,
  "DeviceSerialNumber": "35450",
  "DwellTime": 2.5e-06,
  "EchoTime": 0.0348,
  "EffectiveEchoSpacing": 0.000690017,
  "FlipAngle": 55,
  "ImageComments": "Unaliased MB8/PE3",
  "ImageOrientationPatientDICOM": [0.999455, 0.0011516, 0.0330027, -2.49611e-08, 0.999392, -0.0348722],
  "ImageType": [
    "ORIGINAL",
    "PRIMARY",
    "M",
    "MB",
    "ND",
    "MOSAIC"
],
  "ImagingFrequency": 123.235,
  "InPlanePhaseEncodingDirectionDICOM": "COL",
  "InstitutionAddress": "Univeristy Ave. 197,Newark,North East,US,07102-1814",
  "InstitutionName": "RUBIC",
  "InstitutionalDepartmentName": "Department",
  "MRAcquisitionType": "2D",
  "MagneticFieldStrength": 3,
  "Manufacturer": "Siemens",
  "ManufacturersModelName": "TrioTim",
  "Modality": "MR",
  "MultibandAccelerationFactor": 8,
  "PartialFourier": 0.875,
  "PatientPosition": "HFS",
  "PercentPhaseFOV": 100,
  "PercentSampling": 100,
  "PhaseEncodingDirection": "j-",
  "PhaseEncodingSteps": 91,
  "PhaseResolution": 1,
  "PixelBandwidth": 1923,
  "ProcedureStepDescription": "Cole^Michael",
  "ProtocolName": "cmrr_mbep2d_bold_2mm_MB8_Task_8x",
  "PulseSequenceDetails": "%CustomerSeq%\\cmrr_mbep2d_bold",
  "ReceiveCoilName": "32Ch_Head",
  "ReconMatrixPE": 104,
  "RepetitionTime": 0.785,
  "SAR": 0.122387,
  "ScanOptions": "PFP\\FS",
  "ScanningSequence": "EP",
  "SequenceName": "epfid2d1_104",
  "SequenceVariant": "SK\\SS",
  "SeriesDescription": "cmrr_mbep2d_bold_2mm_MB8_Task_8x",
  "SeriesNumber": 17,
  "ShimSetting": [2131, -432, -7335, 727, -145, -395, 180, -29],
  "SliceThickness": 2,
  "SliceTiming": [0, 0.4375, 0.0875, 0.525, 0.175, 0.6125, 0.2625, 0.7, 0.35, 0, 0.4375, 0.0875, 0.525, 0.175, 0.6125, 0.2625, 0.7, 0.35, 0, 0.4375, 0.0875, 0.525, 0.175, 0.6125, 0.2625, 0.7, 0.35, 0, 0.4375, 0.0875, 0.525, 0.175, 0.6125, 0.2625, 0.7, 0.35, 0, 0.4375, 0.0875, 0.525, 0.175, 0.6125, 0.2625, 0.7, 0.35, 0, 0.4375, 0.0875, 0.525, 0.175, 0.6125, 0.2625, 0.7, 0.35, 0, 0.4375, 0.0875, 0.525, 0.175, 0.6125, 0.2625, 0.7, 0.35, 0, 0.4375, 0.0875, 0.525, 0.175, 0.6125, 0.2625, 0.7, 0.35],
  "SoftwareVersions": "syngo MR B19",
  "SpacingBetweenSlices": 2,
  "StationName": "MRC35450",
  "TaskName": "cpro",
  "TotalReadoutTime": 0.0710717,
  "TxRefAmp": 322.289,
  "dcmmeta_affine": [
    [-1.9989092350006104, -4.9922274314440074e-08, 0.06604553759098053, 101.6417236328125],
    [-0.0023032010067254305, 1.9987835884094238, -0.06970629841089249, -82.3194351196289],
    [0.06600537151098251, 0.06974433362483978, 1.997693419456482, -97.9209213256836],
    [0.0, 0.0, 0.0, 1.0]
],
  "dcmmeta_reorient_transform": [
    [0.0, -1.0, 0.0, 103.0],
    [1.0, 0.0, 0.0, 0.0],
    [0.0, 0.0, 1.0, 0.0],
    [0.0, 0.0, 0.0, 1.0]
],
  "dcmmeta_shape": [104, 104, 72, 581],
  "dcmmeta_slice_dim": 2,
  "dcmmeta_version": 0.6,
  "global": {
    "const": {
      "AcquisitionMatrix": [104, 0, 0, 104],
      "AngioFlag": "N",
      "BitsAllocated": 16,
      "BitsStored": 12,
      "Columns": 936,
      "EchoNumbers": 1,
      "EchoTime": 34.8,
      "EchoTrainLength": 1,
      "FlipAngle": 55.0,
      "HighBit": 11,
      "ImageOrientationPatient": [0.99945459959621, 0.00115160049858, 0.0330026841677, -2.4961138e-08, 0.9993917810065, -0.034872167364],
      "ImagePositionPatient": [-933.18792789381, -956.00736340479, -89.181842500236],
      "ImageType": [
        "ORIGINAL",
        "PRIMARY",
        "M",
        "MB",
        "ND",
        "MOSAIC"
],
      "ImagedNucleus": "1H",
      "ImagingFrequency": 123.234906,
      "InPlanePhaseEncodingDirection": "COL",
      "MRAcquisitionType": "2D",
      "MagneticFieldStrength": 3.0,
      "Manufacturer": "SIEMENS",
      "ManufacturerModelName": "TrioTim",
      "Modality": "MR",
      "NumberOfAverages": 1.0,
      "NumberOfPhaseEncodingSteps": 91,
      "PercentPhaseFieldOfView": 100.0,
      "PercentSampling": 100.0,
      "PerformedProcedureStepStartTime": "145138.734000",
      "PhotometricInterpretation": "MONOCHROME2",
      "PixelBandwidth": 1923.0,
      "PixelRepresentation": 0,
      "PixelSpacing": [2.0, 2.0],
      "ProtocolName": "cmrr_mbep2d_bold_2mm_MB8_Task_8x",
      "RepetitionTime": 785.0,
      "Rows": 936,
      "SAR": 0.12238748232834,
      "SamplesPerPixel": 1,
      "ScanOptions": [
        "PFP",
        "FS"
],
      "ScanningSequence": "EP",
      "SequenceName": "epfid2d1_104",
      "SequenceVariant": [
        "SK",
        "SS"
],
      "SeriesDescription": "cmrr_mbep2d_bold_2mm_MB8_Task_8x",
      "SeriesNumber": 17,
      "SeriesTime": "165651.296000",
      "SliceLocation": -91.582405172427,
      "SliceThickness": 2.0,
      "SmallestImagePixelValue": 0,
      "SoftwareVersions": "syngo MR B19",
      "SpacingBetweenSlices": 2.0000000266374,
      "SpecificCharacterSet": "ISO_IR 100",
      "StudyID": "1",
      "StudyTime": "145138.703000",
      "TransmitCoilName": "Body",
      "VariableFlipAngleFlag": "N",
      "WindowCenterWidthExplanation": "Algo1",
      "dBdt": 0.0},
    "slices": {}
  },
  "time": {
    "samples": {
      "AcquisitionNumber": [1, 2, 3, 4, 5, 6, 7, 8, 9, 10, 11, 12, 13, 14, 15, 16, 17, 18, 19, 20, 21, 22, 23, 24, 25, 26, 27, 28, 29, 30, 31, 32, 33, 34, 35, 36, 37, 38, 39, 40, 41, 42, 43, 44, 45, 46, 47, 48, 49, 50, 51, 52, 53, 54, 55, 56, 57, 58, 59, 60, 61, 62, 63, 64, 65, 66, 67, 68, 69, 70, 71, 72, 73, 74, 75, 76, 77, 78, 79, 80, 81, 82, 83, 84, 85, 86, 87, 88, 89, 90, 91, 92, 93, 94, 95, 96, 97, 98, 99, 100, 101, 102, 103, 104, 105, 106, 107, 108, 109, 110, 111, 112, 113, 114, 115, 116, 117, 118, 119, 120, 121, 122, 123, 124, 125, 126, 127, 128, 129, 130, 131, 132, 133, 134, 135, 136, 137, 138, 139, 140, 141, 142, 143, 144, 145, 146, 147, 148, 149, 150, 151, 152, 153, 154, 155, 156, 157, 158, 159, 160, 161, 162, 163, 164, 165, 166, 167, 168, 169, 170, 171, 172, 173, 174, 175, 176, 177, 178, 179, 180, 181, 182, 183, 184, 185, 186, 187, 188, 189, 190, 191, 192, 193, 194, 195, 196, 197, 198, 199, 200, 201, 202, 203, 204, 205, 206, 207, 208, 209, 210, 211, 212, 213, 214, 215, 216, 217, 218, 219, 220, 221, 222, 223, 224, 225, 226, 227, 228, 229, 230, 231, 232, 233, 234, 235, 236, 237, 238, 239, 240, 241, 242, 243, 244, 245, 246, 247, 248, 249, 250, 251, 252, 253, 254, 255, 256, 257, 258, 259, 260, 261, 262, 263, 264, 265, 266, 267, 268, 269, 270, 271, 272, 273, 274, 275, 276, 277, 278, 279, 280, 281, 282, 283, 284, 285, 286, 287, 288, 289, 290, 291, 292, 293, 294, 295, 296, 297, 298, 299, 300, 301, 302, 303, 304, 305, 306, 307, 308, 309, 310, 311, 312, 313, 314, 315, 316, 317, 318, 319, 320, 321, 322, 323, 324, 325, 326, 327, 328, 329, 330, 331, 332, 333, 334, 335, 336, 337, 338, 339, 340, 341, 342, 343, 344, 345, 346, 347, 348, 349, 350, 351, 352, 353, 354, 355, 356, 357, 358, 359, 360, 361, 362, 363, 364, 365, 366, 367, 368, 369, 370, 371, 372, 373, 374, 375, 376, 377, 378, 379, 380, 381, 382, 383, 384, 385, 386, 387, 388, 389, 390, 391, 392, 393, 394, 395, 396, 397, 398, 399, 400, 401, 402, 403, 404, 405, 406, 407, 408, 409, 410, 411, 412, 413, 414, 415, 416, 417, 418, 419, 420, 421, 422, 423, 424, 425, 426, 427, 428, 429, 430, 431, 432, 433, 434, 435, 436, 437, 438, 439, 440, 441, 442, 443, 444, 445, 446, 447, 448, 449, 450, 451, 452, 453, 454, 455, 456, 457, 458, 459, 460, 461, 462, 463, 464, 465, 466, 467, 468, 469, 470, 471, 472, 473, 474, 475, 476, 477, 478, 479, 480, 481, 482, 483, 484, 485, 486, 487, 488, 489, 490, 491, 492, 493, 494, 495, 496, 497, 498, 499, 500, 501, 502, 503, 504, 505, 506, 507, 508, 509, 510, 511, 512, 513, 514, 515, 516, 517, 518, 519, 520, 521, 522, 523, 524, 525, 526, 527, 528, 529, 530, 531, 532, 533, 534, 535, 536, 537, 538, 539, 540, 541, 542, 543, 544, 545, 546, 547, 548, 549, 550, 551, 552, 553, 554, 555, 556, 557, 558, 559, 560, 561, 562, 563, 564, 565, 566, 567, 568, 569, 570, 571, 572, 573, 574, 575, 576, 577, 578, 579, 580, 581],
      "AcquisitionTime": ["160013.802500", "160014.590000", "160015.380000", "160016.167500", "160016.955000", "160017.742500", "160018.532500", "160019.320000", "160020.107500", "160020.895000", "160021.685000", "160022.472500", "160023.260000", "160024.047500", "160024.837500", "160025.625000", "160026.412500", "160027.200000", "160027.990000", "160028.777500", "160029.565000", "160030.355000", "160031.142500", "160031.930000", "160032.717500", "160033.507500", "160034.295000", "160035.082500", "160035.870000", "160036.660000", "160037.447500", "160038.235000", "160039.022500", "160039.812500", "160040.600000", "160041.387500", "160042.175000", "160042.965000", "160043.752500", "160044.540000", "160045.330000", "160046.117500", "160046.905000", "160047.692500", "160048.482500", "160049.270000", "160050.057500", "160050.845000", "160051.635000", "160052.422500", "160053.210000", "160053.997500", "160054.787500", "160055.575000", "160056.362500", "160057.150000", "160057.940000", "160058.727500", "160059.515000", "160100.302500", "160101.092500", "160101.880000", "160102.667500", "160103.457500", "160104.245000", "160105.032500", "160105.820000", "160106.610000", "160107.397500", "160108.185000", "160108.972500", "160109.762500", "160110.550000", "160111.337500", "160112.125000", "160112.915000", "160113.702500", "160114.490000", "160115.277500", "160116.067500", "160116.855000", "160117.642500", "160118.430000", "160119.220000", "160120.007500", "160120.795000", "160121.585000", "160122.372500", "160123.160000", "160123.947500", "160124.737500", "160125.525000", "160126.312500", "160127.100000", "160127.890000", "160128.677500", "160129.465000", "160130.252500", "160131.042500", "160131.830000", "160132.617500", "160133.405000", "160134.195000", "160134.982500", "160135.770000", "160136.557500", "160137.347500", "160138.135000", "160138.922500", "160139.712500", "160140.500000", "160141.287500", "160142.075000", "160142.865000", "160143.652500", "160144.440000", "160145.227500", "160146.017500", "160146.805000", "160147.592500", "160148.380000", "160149.170000", "160149.957500", "160150.745000", "160151.532500", "160152.322500", "160153.110000", "160153.897500", "160154.685000", "160155.475000", "160156.262500", "160157.050000", "160157.840000", "160158.627500", "160159.415000", "160200.202500", "160200.992500", "160201.780000", "160202.567500", "160203.355000", "160204.145000", "160204.932500", "160205.720000", "160206.507500", "160207.297500", "160208.085000", "160208.872500", "160209.660000", "160210.450000", "160211.237500", "160212.025000", "160212.812500", "160213.602500", "160214.390000", "160215.177500", "160215.967500", "160216.755000", "160217.542500", "160218.330000", "160219.120000", "160219.907500", "160220.695000", "160221.482500", "160222.272500", "160223.060000", "160223.847500", "160224.635000", "160225.425000", "160226.212500", "160227.000000", "160227.787500", "160228.577500", "160229.365000", "160230.152500", "160230.940000", "160231.730000", "160232.517500", "160233.305000", "160234.095000", "160234.882500", "160235.670000", "160236.457500", "160237.247500", "160238.035000", "160238.822500", "160239.610000", "160240.400000", "160241.187500", "160241.975000", "160242.762500", "160243.552500", "160244.340000", "160245.127500", "160245.915000", "160246.705000", "160247.492500", "160248.280000", "160249.067500", "160249.857500", "160250.645000", "160251.432500", "160252.222500", "160253.010000", "160253.797500", "160254.585000", "160255.375000", "160256.162500", "160256.950000", "160257.737500", "160258.527500", "160259.315000", "160300.102500", "160300.890000", "160301.680000", "160302.467500", "160303.255000", "160304.042500", "160304.832500", "160305.620000", "160306.407500", "160307.195000", "160307.985000", "160308.772500", "160309.560000", "160310.350000", "160311.137500", "160311.925000", "160312.712500", "160313.502500", "160314.290000", "160315.077500", "160315.865000", "160316.655000", "160317.442500", "160318.230000", "160319.017500", "160319.807500", "160320.595000", "160321.382500", "160322.170000", "160322.960000", "160323.747500", "160324.535000", "160325.322500", "160326.112500", "160326.900000", "160327.687500", "160328.477500", "160329.265000", "160330.052500", "160330.840000", "160331.630000", "160332.417500", "160333.205000", "160333.992500", "160334.782500", "160335.570000", "160336.357500", "160337.145000", "160337.935000", "160338.722500", "160339.510000", "160340.297500", "160341.087500", "160341.875000", "160342.662500", "160343.450000", "160344.240000", "160345.027500", "160345.815000", "160346.605000", "160347.392500", "160348.180000", "160348.967500", "160349.757500", "160350.545000", "160351.332500", "160352.120000", "160352.910000", "160353.697500", "160354.485000", "160355.272500", "160356.062500", "160356.850000", "160357.637500", "160358.425000", "160359.215000", "160400.002500", "160400.790000", "160401.580000", "160402.367500", "160403.155000", "160403.942500", "160404.732500", "160405.520000", "160406.307500", "160407.095000", "160407.885000", "160408.672500", "160409.460000", "160410.247500", "160411.037500", "160411.825000", "160412.612500", "160413.400000", "160414.190000", "160414.977500", "160415.765000", "160416.552500", "160417.342500", "160418.130000", "160418.917500", "160419.707500", "160420.495000", "160421.282500", "160422.070000", "160422.860000", "160423.647500", "160424.435000", "160425.222500", "160426.012500", "160426.800000", "160427.587500", "160428.375000", "160429.165000", "160429.952500", "160430.740000", "160431.527500", "160432.317500", "160433.105000", "160433.892500", "160434.680000", "160435.470000", "160436.257500", "160437.045000", "160437.835000", "160438.622500", "160439.410000", "160440.197500", "160440.987500", "160441.775000", "160442.562500", "160443.350000", "160444.140000", "160444.927500", "160445.715000", "160446.502500", "160447.292500", "160448.080000", "160448.867500", "160449.655000", "160450.445000", "160451.232500", "160452.020000", "160452.807500", "160453.597500", "160454.385000", "160455.172500", "160455.962500", "160456.750000", "160457.537500", "160458.325000", "160459.115000", "160459.902500", "160500.690000", "160501.477500", "160502.267500", "160503.055000", "160503.842500", "160504.630000", "160505.420000", "160506.207500", "160506.995000", "160507.782500", "160508.572500", "160509.360000", "160510.147500", "160510.935000", "160511.725000", "160512.512500", "160513.300000", "160514.090000", "160514.877500", "160515.665000", "160516.452500", "160517.242500", "160518.030000", "160518.817500", "160519.605000", "160520.395000", "160521.182500", "160521.970000", "160522.757500", "160523.547500", "160524.335000", "160525.122500", "160525.910000", "160526.700000", "160527.487500", "160528.275000", "160529.062500", "160529.852500", "160530.640000", "160531.427500", "160532.217500", "160533.005000", "160533.792500", "160534.580000", "160535.370000", "160536.157500", "160536.945000", "160537.732500", "160538.522500", "160539.310000", "160540.097500", "160540.885000", "160541.675000", "160542.462500", "160543.250000", "160544.037500", "160544.827500", "160545.615000", "160546.402500", "160547.190000", "160547.980000", "160548.767500", "160549.555000", "160550.345000", "160551.132500", "160551.920000", "160552.707500", "160553.497500", "160554.285000", "160555.072500", "160555.860000", "160556.650000", "160557.437500", "160558.225000", "160559.012500", "160559.802500", "160600.590000", "160601.377500", "160602.165000", "160602.955000", "160603.742500", "160604.530000", "160605.317500", "160606.107500", "160606.895000", "160607.682500", "160608.472500", "160609.260000", "160610.047500", "160610.835000", "160611.625000", "160612.412500", "160613.200000", "160613.987500", "160614.777500", "160615.565000", "160616.352500", "160617.140000", "160617.930000", "160618.717500", "160619.505000", "160620.292500", "160621.082500", "160621.870000", "160622.657500", "160623.445000", "160624.235000", "160625.022500", "160625.810000", "160626.600000", "160627.387500", "160628.175000", "160628.962500", "160629.752500", "160630.540000", "160631.327500", "160632.115000", "160632.905000", "160633.692500", "160634.480000", "160635.267500", "160636.057500", "160636.845000", "160637.632500", "160638.420000", "160639.210000", "160639.997500", "160640.785000", "160641.572500", "160642.362500", "160643.150000", "160643.937500", "160644.727500", "160645.515000", "160646.302500", "160647.090000", "160647.880000", "160648.667500", "160649.455000", "160650.242500", "160651.032500", "160651.820000", "160652.607500", "160653.395000", "160654.185000", "160654.972500", "160655.760000", "160656.547500", "160657.337500", "160658.125000", "160658.912500", "160659.700000", "160700.490000", "160701.277500", "160702.065000", "160702.855000", "160703.642500", "160704.430000", "160705.217500", "160706.007500", "160706.795000", "160707.582500", "160708.370000", "160709.160000", "160709.947500", "160710.735000", "160711.522500", "160712.312500", "160713.100000", "160713.887500", "160714.675000", "160715.465000", "160716.252500", "160717.040000", "160717.830000", "160718.617500", "160719.405000", "160720.192500", "160720.982500", "160721.770000", "160722.557500", "160723.345000", "160724.135000", "160724.922500", "160725.710000", "160726.497500", "160727.287500", "160728.075000", "160728.862500", "160729.650000", "160730.440000", "160731.227500", "160732.015000", "160732.802500", "160733.592500", "160734.380000", "160735.167500", "160735.957500", "160736.745000", "160737.532500", "160738.320000", "160739.110000", "160739.897500", "160740.685000", "160741.472500", "160742.262500", "160743.050000", "160743.837500", "160744.625000", "160745.415000", "160746.202500", "160746.990000", "160747.777500", "160748.567500", "160749.355000", "160750.142500", "160750.930000"],
      "ContentTime": ["165651.312000", "165651.312000", "165651.312000", "165651.312000", "165651.312000", "165651.312000", "165651.312000", "165651.328000", "165751.281000", "165751.281000", "165751.296000", "165751.296000", "165751.296000", "165751.296000", "165751.296000", "165751.296000", "165751.296000", "165751.312000", "165751.312000", "165751.312000", "165751.312000", "165751.312000", "165751.312000", "165751.312000", "165751.328000", "165751.328000", "165751.328000", "165751.328000", "165751.328000", "165751.328000", "165751.328000", "165751.343000", "165751.343000", "165751.343000", "165751.343000", "165851.281000", "165855.140000", "165855.156000", "165855.171000", "165855.171000", "165855.171000", "165855.171000", "165855.171000", "165855.171000", "165855.171000", "165855.187000", "165855.187000", "165855.187000", "165855.187000", "165855.187000", "165855.187000", "165855.187000", "165855.203000", "165855.203000", "165855.203000", "165855.218000", "165855.218000", "165855.218000", "165855.218000", "165855.218000", "165931.281000", "165931.281000", "165931.296000", "165931.296000", "165931.296000", "165931.296000", "165931.296000", "165931.296000", "165931.296000", "165931.312000", "165931.312000", "165931.312000", "165931.312000", "165931.312000", "165931.312000", "165931.312000", "165931.328000", "165931.328000", "165931.328000", "165931.328000", "165931.328000", "165931.328000", "170031.765000", "170031.781000", "170031.781000", "170031.781000", "170031.781000", "170031.781000", "170031.781000", "170031.781000", "170031.796000", "170031.796000", "170031.796000", "170031.796000", "170031.796000", "170031.796000", "170031.796000", "170031.812000", "170031.812000", "170031.812000", "170031.812000", "170031.812000", "170031.812000", "170031.812000", "170031.828000", "170031.828000", "170031.828000", "170031.828000", "170031.828000", "170031.828000", "170131.281000", "170131.281000", "170131.296000", "170131.296000", "170131.296000", "170131.296000", "170131.296000", "170131.296000", "170131.296000", "170131.312000", "170131.312000", "170131.312000", "170131.312000", "170131.312000", "170131.312000", "170131.312000", "170131.328000", "170131.328000", "170131.328000", "170131.328000", "170131.328000", "170131.328000", "170131.328000", "170131.343000", "170131.343000", "170131.343000", "170131.343000", "170131.343000", "170231.281000", "170231.281000", "170231.296000", "170231.296000", "170231.296000", "170231.296000", "170231.296000", "170231.296000", "170231.296000", "170231.312000", "170231.312000", "170231.312000", "170231.312000", "170231.312000", "170231.312000", "170231.312000", "170231.328000", "170231.328000", "170231.328000", "170231.328000", "170231.328000", "170231.328000", "170231.328000", "170231.343000", "170231.343000", "170231.343000", "170231.343000", "170231.343000", "170331.281000", "170331.281000", "170331.296000", "170331.296000", "170331.296000", "170331.296000", "170331.296000", "170331.296000", "170331.296000", "170331.312000", "170331.312000", "170331.312000", "170331.312000", "170331.312000", "170331.312000", "170331.312000", "170331.328000", "170331.328000", "170331.328000", "170331.328000", "170331.328000", "170331.328000", "170331.328000", "170331.343000", "170331.343000", "170331.343000", "170331.343000", "170331.343000", "170331.343000", "170411.281000", "170411.281000", "170411.296000", "170411.296000", "170411.296000", "170411.296000", "170411.296000", "170411.296000", "170411.296000", "170411.312000", "170411.312000", "170411.312000", "170411.312000", "170411.312000", "170411.312000", "170411.312000", "170411.328000", "170411.328000", "170511.281000", "170511.281000", "170511.296000", "170511.296000", "170511.296000", "170511.296000", "170511.296000", "170511.296000", "170511.296000", "170511.312000", "170511.312000", "170511.312000", "170511.312000", "170511.312000", "170511.312000", "170511.312000", "170511.328000", "170511.328000", "170511.328000", "170511.328000", "170511.328000", "170511.328000", "170511.328000", "170511.343000", "170511.343000", "170511.343000", "170511.343000", "170511.343000", "170511.343000", "170611.281000", "170611.281000", "170611.296000", "170611.296000", "170611.296000", "170611.296000", "170611.296000", "170611.296000", "170611.296000", "170611.312000", "170611.312000", "170611.312000", "170611.312000", "170611.312000", "170611.312000", "170611.312000", "170611.328000", "170611.328000", "170611.328000", "170611.328000", "170611.328000", "170611.328000", "170611.328000", "170611.343000", "170611.343000", "170611.343000", "170611.343000", "170611.343000", "170711.281000", "170711.281000", "170711.296000", "170711.296000", "170711.296000", "170711.296000", "170711.296000", "170711.296000", "170711.296000", "170711.312000", "170711.312000", "170711.312000", "170711.312000", "170711.312000", "170711.312000", "170711.312000", "170711.328000", "170711.328000", "170711.328000", "170711.328000", "170711.328000", "170711.328000", "170711.328000", "170711.343000", "170711.343000", "170711.343000", "170711.343000", "170711.343000", "170811.281000", "170811.281000", "170811.296000", "170811.296000", "170811.296000", "170811.296000", "170811.296000", "170811.296000", "170811.296000", "170811.312000", "170811.312000", "170811.312000", "170811.312000", "170811.312000", "170811.312000", "170811.312000", "170811.328000", "170811.328000", "170811.328000", "170811.328000", "170811.328000", "170811.328000", "170811.328000", "170811.343000", "170811.343000", "170811.343000", "170811.343000", "170811.343000", "170911.281000", "170911.281000", "170911.296000", "170911.296000", "170911.296000", "170911.296000", "170911.296000", "170911.296000", "170911.312000", "170911.312000", "170911.312000", "170911.312000", "170911.312000", "170911.312000", "170911.312000", "170911.312000", "170911.328000", "170911.328000", "170911.328000", "170911.328000", "170911.328000", "170911.328000", "170911.328000", "170911.343000", "170911.343000", "170911.343000", "170911.343000", "170911.343000", "171011.281000", "171011.281000", "171011.296000", "171011.296000", "171011.296000", "171011.296000", "171011.296000", "171011.296000", "171011.296000", "171011.312000", "171011.312000", "171011.312000", "171011.312000", "171011.312000", "171011.312000", "171011.312000", "171011.328000", "171011.328000", "171011.328000", "171011.328000", "171011.328000", "171011.328000", "171011.328000", "171011.343000", "171011.343000", "171011.343000", "171011.343000", "171011.343000", "171111.281000", "171111.281000", "171111.296000", "171111.296000", "171111.296000", "171111.296000", "171111.296000", "171111.296000", "171111.296000", "171111.312000", "171111.312000", "171111.312000", "171111.312000", "171111.312000", "171111.312000", "171111.312000", "171111.328000", "171111.328000", "171111.328000", "171111.328000", "171111.328000", "171111.328000", "171111.328000", "171111.343000", "171111.343000", "171111.343000", "171111.343000", "171111.343000", "171111.343000", "171211.281000", "171211.281000", "171211.296000", "171211.296000", "171211.296000", "171211.296000", "171211.296000", "171211.296000", "171211.296000", "171211.312000", "171211.312000", "171211.312000", "171211.312000", "171211.312000", "171211.312000", "171211.312000", "171211.328000", "171211.328000", "171211.328000", "171211.328000", "171211.328000", "171211.328000", "171211.328000", "171211.343000", "171211.343000", "171211.343000", "171211.343000", "171211.343000", "171311.281000", "171311.281000", "171311.296000", "171311.296000", "171311.296000", "171311.296000", "171311.296000", "171311.296000", "171311.296000", "171311.312000", "171311.312000", "171311.312000", "171311.312000", "171311.312000", "171311.312000", "171311.312000", "171311.328000", "171311.328000", "171311.328000", "171311.328000", "171311.328000", "171311.328000", "171311.328000", "171311.343000", "171311.343000", "171311.343000", "171311.343000", "171311.343000", "171411.281000", "171411.281000", "171411.296000", "171411.296000", "171411.296000", "171411.296000", "171411.296000", "171411.296000", "171411.296000", "171411.312000", "171411.312000", "171411.312000", "171411.312000", "171411.312000", "171411.312000", "171411.312000", "171411.328000", "171411.328000", "171411.328000", "171411.328000", "171411.328000", "171411.328000", "171411.328000", "171411.343000", "171411.343000", "171411.343000", "171411.343000", "171411.343000", "171511.281000", "171511.281000", "171511.296000", "171511.296000", "171511.296000", "171511.296000", "171511.296000", "171511.296000", "171511.296000", "171511.312000", "171511.312000", "171511.312000", "171511.312000", "171511.312000", "171511.312000", "171511.328000", "171511.328000", "171511.328000", "171511.328000", "171511.328000", "171511.328000", "171511.328000", "171511.328000", "171511.343000", "171511.343000", "171511.343000", "171511.343000", "171511.343000", "171611.281000", "171611.281000", "171611.296000", "171611.296000", "171611.296000", "171611.296000", "171611.296000", "171611.296000", "171611.296000", "171611.312000", "171611.312000", "171611.312000", "171611.312000", "171611.312000", "171611.312000", "171611.312000", "171611.328000", "171611.328000", "171611.328000", "171611.328000", "171611.328000", "171611.328000", "171611.328000", "171611.343000", "171611.343000", "171611.343000", "171611.343000", "171611.343000", "171711.281000", "171711.281000", "171711.296000", "171711.296000", "171711.296000", "171711.296000", "171711.296000", "171711.296000", "171711.296000", "171711.312000", "171711.312000", "171711.312000", "171711.312000", "171711.312000", "171711.312000", "171711.312000", "171711.328000", "171711.328000", "171711.328000", "171711.328000", "171711.328000", "171711.328000", "171711.328000", "171711.343000", "171711.343000", "171711.343000", "171711.343000", "171711.343000", "171711.343000", "171712.875000"],
      "DataSetTrailingPadding": [
        "\u0000\u0000\u0000\u0000\u0000\u0000\u0000\u0000\u0000\u0000\u0000\u0000\u0000\u0000\u0000\u0000\u0000\u0000\u0000\u0000\u0000\u0000\u0000\u0000\u0000\u0000\u0000\u0000\u0000\u0000\u0000\u0000\u0000\u0000\u0000\u0000\u0000\u0000\u0000\u0000\u0000\u0000\u0000\u0000\u0000\u0000\u0000\u0000\u0000\u0000\u0000\u0000\u0000\u0000\u0000\u0000\u0000\u0000\u0000\u0000\u0000\u0000\u0000\u0000\u0000\u0000\u0000\u0000\u0000\u0000\u0000\u0000\u0000\u0000\u0000\u0000\u0000\u0000\u0000\u0000\u0000\u0000\u0000\u0000\u0000\u0000\u0000\u0000\u0000\u0000\u0000\u0000\u0000\u0000\u0000\u0000\u0000\u0000",
        "\u0000\u0000\u0000\u0000\u0000\u0000\u0000\u0000\u0000\u0000\u0000\u0000\u0000\u0000\u0000\u0000\u0000\u0000\u0000\u0000\u0000\u0000\u0000\u0000\u0000\u0000\u0000\u0000\u0000\u0000\u0000\u0000\u0000\u0000\u0000\u0000\u0000\u0000\u0000\u0000\u0000\u0000\u0000\u0000\u0000\u0000\u0000\u0000\u0000\u0000\u0000\u0000\u0000\u0000\u0000\u0000\u0000\u0000\u0000\u0000\u0000\u0000\u0000\u0000\u0000\u0000\u0000\u0000\u0000\u0000\u0000\u0000\u0000\u0000\u0000\u0000\u0000\u0000\u0000\u0000\u0000\u0000\u0000\u0000\u0000\u0000\u0000\u0000\u0000\u0000\u0000\u0000\u0000\u0000\u0000\u0000\u0000\u0000",
        "\u0000\u0000\u0000\u0000\u0000\u0000\u0000\u0000\u0000\u0000\u0000\u0000\u0000\u0000\u0000\u0000\u0000\u0000\u0000\u0000\u0000\u0000\u0000\u0000\u0000\u0000\u0000\u0000\u0000\u0000\u0000\u0000\u0000\u0000\u0000\u0000\u0000\u0000\u0000\u0000\u0000\u0000\u0000\u0000\u0000\u0000\u0000\u0000\u0000\u0000\u0000\u0000\u0000\u0000\u0000\u0000\u0000\u0000\u0000\u0000\u0000\u0000\u0000\u0000\u0000\u0000\u0000\u0000\u0000\u0000\u0000\u0000\u0000\u0000\u0000\u0000\u0000\u0000\u0000\u0000\u0000\u0000\u0000\u0000\u0000\u0000\u0000\u0000\u0000\u0000\u0000\u0000\u0000\u0000\u0000\u0000\u0000\u0000",
