{
  "AcquisitionMatrixPE": 104,
  "AcquisitionNumber": 1,
  "AcquisitionTime": "15:52:11.777500",
  "BandwidthPerPixelPhaseEncode": 13.935,
  "BaseResolution": 104,
  "CoilString": "C:HEA;HEP",
  "ConversionSoftware": "dcm2niix",
  "ConversionSoftwareVersion": "v1.0.20210317",
  "DerivedVendorReportedEchoSpacing": 0.000690017,
  "DeviceSerialNumber": "35450",
  "DwellTime": 2.5e-06,
  "EchoTime": 0.0348,
  "EffectiveEchoSpacing": 0.000690017,
  "FlipAngle": 55,
  "ImageComments": "Unaliased MB8/PE3",
  "ImageOrientationPatientDICOM": [0.999455, 0.0011516, 0.0330027, -2.49611e-08, 0.999392, -0.0348722],
  "ImageType": [
    "ORIGINAL",
    "PRIMARY",
    "M",
    "MB",
    "ND",
    "MOSAIC"
],
  "ImagingFrequency": 123.235,
  "InPlanePhaseEncodingDirectionDICOM": "COL",
  "InstitutionAddress": "Univeristy Ave. 197,Newark,North East,US,07102-1814",
  "InstitutionName": "RUBIC",
  "InstitutionalDepartmentName": "Department",
  "MRAcquisitionType": "2D",
  "MagneticFieldStrength": 3,
  "Manufacturer": "Siemens",
  "ManufacturersModelName": "TrioTim",
  "Modality": "MR",
  "MultibandAccelerationFactor": 8,
  "PartialFourier": 0.875,
  "PatientPosition": "HFS",
  "PercentPhaseFOV": 100,
  "PercentSampling": 100,
  "PhaseEncodingDirection": "j-",
  "PhaseEncodingSteps": 91,
  "PhaseResolution": 1,
  "PixelBandwidth": 1923,
  "ProcedureStepDescription": "Cole^Michael",
  "ProtocolName": "cmrr_mbep2d_bold_2mm_MB8_Task_8x",
  "PulseSequenceDetails": "%CustomerSeq%\\cmrr_mbep2d_bold",
  "ReceiveCoilName": "32Ch_Head",
  "ReconMatrixPE": 104,
  "RepetitionTime": 0.785,
  "SAR": 0.122387,
  "ScanOptions": "PFP\\FS",
  "ScanningSequence": "EP",
  "SequenceName": "epfid2d1_104",
  "SequenceVariant": "SK\\SS",
  "SeriesDescription": "cmrr_mbep2d_bold_2mm_MB8_Task_8x",
  "SeriesNumber": 15,
  "ShimSetting": [2131, -432, -7335, 727, -145, -395, 180, -29],
  "SliceThickness": 2,
  "SliceTiming": [0, 0.4375, 0.0875, 0.525, 0.175, 0.6125, 0.2625, 0.7, 0.35, 0, 0.4375, 0.0875, 0.525, 0.175, 0.6125, 0.2625, 0.7, 0.35, 0, 0.4375, 0.0875, 0.525, 0.175, 0.6125, 0.2625, 0.7, 0.35, 0, 0.4375, 0.0875, 0.525, 0.175, 0.6125, 0.2625, 0.7, 0.35, 0, 0.4375, 0.0875, 0.525, 0.175, 0.6125, 0.2625, 0.7, 0.35, 0, 0.4375, 0.0875, 0.525, 0.175, 0.6125, 0.2625, 0.7, 0.35, 0, 0.4375, 0.0875, 0.525, 0.175, 0.6125, 0.2625, 0.7, 0.35, 0, 0.4375, 0.0875, 0.525, 0.175, 0.6125, 0.2625, 0.7, 0.35],
  "SoftwareVersions": "syngo MR B19",
  "SpacingBetweenSlices": 2,
  "StationName": "MRC35450",
  "TaskName": "cpro",
  "TotalReadoutTime": 0.0710717,
  "TxRefAmp": 322.289,
  "dcmmeta_affine": [
    [-1.9989092350006104, -4.9922274314440074e-08, 0.06604553759098053, 101.6417236328125],
    [-0.0023032010067254305, 1.9987835884094238, -0.06970629841089249, -82.3194351196289],
    [0.06600537151098251, 0.06974433362483978, 1.997693419456482, -97.9209213256836],
    [0.0, 0.0, 0.0, 1.0]
],
  "dcmmeta_reorient_transform": [
    [0.0, -1.0, 0.0, 103.0],
    [1.0, 0.0, 0.0, 0.0],
    [0.0, 0.0, 1.0, 0.0],
    [0.0, 0.0, 0.0, 1.0]
],
  "dcmmeta_shape": [104, 104, 72, 581],
  "dcmmeta_slice_dim": 2,
  "dcmmeta_version": 0.6,
  "global": {
    "const": {
      "AcquisitionMatrix": [104, 0, 0, 104],
      "AngioFlag": "N",
      "BitsAllocated": 16,
      "BitsStored": 12,
      "Columns": 936,
      "EchoNumbers": 1,
      "EchoTime": 34.8,
      "EchoTrainLength": 1,
      "FlipAngle": 55.0,
      "HighBit": 11,
      "ImageOrientationPatient": [0.99945459959621, 0.00115160049858, 0.0330026841677, -2.4961138e-08, 0.9993917810065, -0.034872167364],
      "ImagePositionPatient": [-933.18792789381, -956.00736340479, -89.181842500236],
      "ImageType": [
        "ORIGINAL",
        "PRIMARY",
        "M",
        "MB",
        "ND",
        "MOSAIC"
],
      "ImagedNucleus": "1H",
      "ImagingFrequency": 123.234906,
      "InPlanePhaseEncodingDirection": "COL",
      "MRAcquisitionType": "2D",
      "MagneticFieldStrength": 3.0,
      "Manufacturer": "SIEMENS",
      "ManufacturerModelName": "TrioTim",
      "Modality": "MR",
      "NumberOfAverages": 1.0,
      "NumberOfPhaseEncodingSteps": 91,
      "PercentPhaseFieldOfView": 100.0,
      "PercentSampling": 100.0,
      "PerformedProcedureStepStartTime": "145138.734000",
      "PhotometricInterpretation": "MONOCHROME2",
      "PixelBandwidth": 1923.0,
      "PixelRepresentation": 0,
      "PixelSpacing": [2.0, 2.0],
      "ProtocolName": "cmrr_mbep2d_bold_2mm_MB8_Task_8x",
      "RepetitionTime": 785.0,
      "Rows": 936,
      "SAR": 0.12238748232834,
      "SamplesPerPixel": 1,
      "ScanOptions": [
        "PFP",
        "FS"
],
      "ScanningSequence": "EP",
      "SequenceName": "epfid2d1_104",
      "SequenceVariant": [
        "SK",
        "SS"
],
      "SeriesDescription": "cmrr_mbep2d_bold_2mm_MB8_Task_8x",
      "SeriesNumber": 15,
      "SeriesTime": "163522.796000",
      "SliceLocation": -91.582405172427,
      "SliceThickness": 2.0,
      "SmallestImagePixelValue": 0,
      "SoftwareVersions": "syngo MR B19",
      "SpacingBetweenSlices": 2.0000000266374,
      "SpecificCharacterSet": "ISO_IR 100",
      "StudyID": "1",
      "StudyTime": "145138.703000",
      "TransmitCoilName": "Body",
      "VariableFlipAngleFlag": "N",
      "WindowCenterWidthExplanation": "Algo1",
      "dBdt": 0.0},
    "slices": {}
  },
  "time": {
    "samples": {
      "AcquisitionNumber": [1, 2, 3, 4, 5, 6, 7, 8, 9, 10, 11, 12, 13, 14, 15, 16, 17, 18, 19, 20, 21, 22, 23, 24, 25, 26, 27, 28, 29, 30, 31, 32, 33, 34, 35, 36, 37, 38, 39, 40, 41, 42, 43, 44, 45, 46, 47, 48, 49, 50, 51, 52, 53, 54, 55, 56, 57, 58, 59, 60, 61, 62, 63, 64, 65, 66, 67, 68, 69, 70, 71, 72, 73, 74, 75, 76, 77, 78, 79, 80, 81, 82, 83, 84, 85, 86, 87, 88, 89, 90, 91, 92, 93, 94, 95, 96, 97, 98, 99, 100, 101, 102, 103, 104, 105, 106, 107, 108, 109, 110, 111, 112, 113, 114, 115, 116, 117, 118, 119, 120, 121, 122, 123, 124, 125, 126, 127, 128, 129, 130, 131, 132, 133, 134, 135, 136, 137, 138, 139, 140, 141, 142, 143, 144, 145, 146, 147, 148, 149, 150, 151, 152, 153, 154, 155, 156, 157, 158, 159, 160, 161, 162, 163, 164, 165, 166, 167, 168, 169, 170, 171, 172, 173, 174, 175, 176, 177, 178, 179, 180, 181, 182, 183, 184, 185, 186, 187, 188, 189, 190, 191, 192, 193, 194, 195, 196, 197, 198, 199, 200, 201, 202, 203, 204, 205, 206, 207, 208, 209, 210, 211, 212, 213, 214, 215, 216, 217, 218, 219, 220, 221, 222, 223, 224, 225, 226, 227, 228, 229, 230, 231, 232, 233, 234, 235, 236, 237, 238, 239, 240, 241, 242, 243, 244, 245, 246, 247, 248, 249, 250, 251, 252, 253, 254, 255, 256, 257, 258, 259, 260, 261, 262, 263, 264, 265, 266, 267, 268, 269, 270, 271, 272, 273, 274, 275, 276, 277, 278, 279, 280, 281, 282, 283, 284, 285, 286, 287, 288, 289, 290, 291, 292, 293, 294, 295, 296, 297, 298, 299, 300, 301, 302, 303, 304, 305, 306, 307, 308, 309, 310, 311, 312, 313, 314, 315, 316, 317, 318, 319, 320, 321, 322, 323, 324, 325, 326, 327, 328, 329, 330, 331, 332, 333, 334, 335, 336, 337, 338, 339, 340, 341, 342, 343, 344, 345, 346, 347, 348, 349, 350, 351, 352, 353, 354, 355, 356, 357, 358, 359, 360, 361, 362, 363, 364, 365, 366, 367, 368, 369, 370, 371, 372, 373, 374, 375, 376, 377, 378, 379, 380, 381, 382, 383, 384, 385, 386, 387, 388, 389, 390, 391, 392, 393, 394, 395, 396, 397, 398, 399, 400, 401, 402, 403, 404, 405, 406, 407, 408, 409, 410, 411, 412, 413, 414, 415, 416, 417, 418, 419, 420, 421, 422, 423, 424, 425, 426, 427, 428, 429, 430, 431, 432, 433, 434, 435, 436, 437, 438, 439, 440, 441, 442, 443, 444, 445, 446, 447, 448, 449, 450, 451, 452, 453, 454, 455, 456, 457, 458, 459, 460, 461, 462, 463, 464, 465, 466, 467, 468, 469, 470, 471, 472, 473, 474, 475, 476, 477, 478, 479, 480, 481, 482, 483, 484, 485, 486, 487, 488, 489, 490, 491, 492, 493, 494, 495, 496, 497, 498, 499, 500, 501, 502, 503, 504, 505, 506, 507, 508, 509, 510, 511, 512, 513, 514, 515, 516, 517, 518, 519, 520, 521, 522, 523, 524, 525, 526, 527, 528, 529, 530, 531, 532, 533, 534, 535, 536, 537, 538, 539, 540, 541, 542, 543, 544, 545, 546, 547, 548, 549, 550, 551, 552, 553, 554, 555, 556, 557, 558, 559, 560, 561, 562, 563, 564, 565, 566, 567, 568, 569, 570, 571, 572, 573, 574, 575, 576, 577, 578, 579, 580, 581],
      "AcquisitionTime": ["155211.777500", "155212.565000", "155213.352500", "155214.140000", "155214.930000", "155215.717500", "155216.505000", "155217.292500", "155218.082500", "155218.870000", "155219.657500", "155220.445000", "155221.235000", "155222.022500", "155222.810000", "155223.597500", "155224.387500", "155225.175000", "155225.962500", "155226.752500", "155227.540000", "155228.327500", "155229.115000", "155229.905000", "155230.692500", "155231.480000", "155232.267500", "155233.057500", "155233.845000", "155234.632500", "155235.420000", "155236.210000", "155236.997500", "155237.785000", "155238.572500", "155239.362500", "155240.150000", "155240.937500", "155241.725000", "155242.515000", "155243.302500", "155244.090000", "155244.880000", "155245.667500", "155246.455000", "155247.242500", "155248.032500", "155248.820000", "155249.607500", "155250.395000", "155251.185000", "155251.972500", "155252.760000", "155253.547500", "155254.337500", "155255.125000", "155255.912500", "155256.700000", "155257.490000", "155258.277500", "155259.065000", "155259.852500", "155300.642500", "155301.430000", "155302.217500", "155303.007500", "155303.795000", "155304.582500", "155305.370000", "155306.160000", "155306.947500", "155307.735000", "155308.522500", "155309.312500", "155310.100000", "155310.887500", "155311.675000", "155312.465000", "155313.252500", "155314.040000", "155314.827500", "155315.617500", "155316.405000", "155317.192500", "155317.980000", "155318.770000", "155319.557500", "155320.345000", "155321.135000", "155321.922500", "155322.710000", "155323.497500", "155324.287500", "155325.075000", "155325.862500", "155326.650000", "155327.440000", "155328.227500", "155329.015000", "155329.802500", "155330.592500", "155331.380000", "155332.167500", "155332.955000", "155333.745000", "155334.532500", "155335.320000", "155336.107500", "155336.897500", "155337.685000", "155338.472500", "155339.262500", "155340.050000", "155340.837500", "155341.625000", "155342.415000", "155343.202500", "155343.990000", "155344.777500", "155345.567500", "155346.355000", "155347.142500", "155347.930000", "155348.720000", "155349.507500", "155350.295000", "155351.082500", "155351.872500", "155352.660000", "155353.447500", "155354.235000", "155355.025000", "155355.812500", "155356.600000", "155357.390000", "155358.177500", "155358.965000", "155359.752500", "155400.542500", "155401.330000", "155402.117500", "155402.905000", "155403.695000", "155404.482500", "155405.270000", "155406.057500", "155406.847500", "155407.635000", "155408.422500", "155409.210000", "155410.000000", "155410.787500", "155411.575000", "155412.362500", "155413.152500", "155413.940000", "155414.727500", "155415.517500", "155416.305000", "155417.092500", "155417.880000", "155418.670000", "155419.457500", "155420.245000", "155421.032500", "155421.822500", "155422.610000", "155423.397500", "155424.185000", "155424.975000", "155425.762500", "155426.550000", "155427.337500", "155428.127500", "155428.915000", "155429.702500", "155430.490000", "155431.280000", "155432.067500", "155432.855000", "155433.645000", "155434.432500", "155435.220000", "155436.007500", "155436.797500", "155437.585000", "155438.372500", "155439.160000", "155439.950000", "155440.737500", "155441.525000", "155442.312500", "155443.102500", "155443.890000", "155444.677500", "155445.465000", "155446.255000", "155447.042500", "155447.830000", "155448.617500", "155449.407500", "155450.195000", "155450.982500", "155451.772500", "155452.560000", "155453.347500", "155454.135000", "155454.925000", "155455.712500", "155456.500000", "155457.287500", "155458.077500", "155458.865000", "155459.652500", "155500.440000", "155501.230000", "155502.017500", "155502.805000", "155503.592500", "155504.382500", "155505.170000", "155505.957500", "155506.745000", "155507.535000", "155508.322500", "155509.110000", "155509.900000", "155510.687500", "155511.475000", "155512.262500", "155513.052500", "155513.840000", "155514.627500", "155515.415000", "155516.205000", "155516.992500", "155517.780000", "155518.567500", "155519.357500", "155520.145000", "155520.932500", "155521.720000", "155522.510000", "155523.297500", "155524.085000", "155524.875000", "155525.662500", "155526.450000", "155527.237500", "155528.027500", "155528.815000", "155529.602500", "155530.390000", "155531.180000", "155531.967500", "155532.755000", "155533.542500", "155534.332500", "155535.120000", "155535.907500", "155536.695000", "155537.485000", "155538.272500", "155539.060000", "155539.847500", "155540.637500", "155541.425000", "155542.212500", "155543.002500", "155543.790000", "155544.577500", "155545.365000", "155546.155000", "155546.942500", "155547.730000", "155548.517500", "155549.307500", "155550.095000", "155550.882500", "155551.670000", "155552.460000", "155553.247500", "155554.035000", "155554.822500", "155555.612500", "155556.400000", "155557.187500", "155557.975000", "155558.765000", "155559.552500", "155600.340000", "155601.130000", "155601.917500", "155602.705000", "155603.492500", "155604.282500", "155605.070000", "155605.857500", "155606.645000", "155607.435000", "155608.222500", "155609.010000", "155609.797500", "155610.587500", "155611.375000", "155612.162500", "155612.950000", "155613.740000", "155614.527500", "155615.315000", "155616.102500", "155616.892500", "155617.680000", "155618.467500", "155619.257500", "155620.045000", "155620.832500", "155621.620000", "155622.410000", "155623.197500", "155623.985000", "155624.772500", "155625.562500", "155626.350000", "155627.137500", "155627.925000", "155628.715000", "155629.502500", "155630.290000", "155631.077500", "155631.867500", "155632.655000", "155633.442500", "155634.230000", "155635.020000", "155635.807500", "155636.595000", "155637.385000", "155638.172500", "155638.960000", "155639.747500", "155640.537500", "155641.325000", "155642.112500", "155642.900000", "155643.690000", "155644.477500", "155645.265000", "155646.052500", "155646.842500", "155647.630000", "155648.417500", "155649.205000", "155649.995000", "155650.782500", "155651.570000", "155652.357500", "155653.147500", "155653.935000", "155654.722500", "155655.512500", "155656.300000", "155657.087500", "155657.875000", "155658.665000", "155659.452500", "155700.240000", "155701.027500", "155701.817500", "155702.605000", "155703.392500", "155704.180000", "155704.970000", "155705.757500", "155706.545000", "155707.332500", "155708.122500", "155708.910000", "155709.697500", "155710.485000", "155711.275000", "155712.062500", "155712.850000", "155713.640000", "155714.427500", "155715.215000", "155716.002500", "155716.792500", "155717.580000", "155718.367500", "155719.155000", "155719.945000", "155720.732500", "155721.520000", "155722.307500", "155723.097500", "155723.885000", "155724.672500", "155725.460000", "155726.250000", "155727.037500", "155727.825000", "155728.612500", "155729.402500", "155730.190000", "155730.977500", "155731.767500", "155732.555000", "155733.342500", "155734.130000", "155734.920000", "155735.707500", "155736.495000", "155737.282500", "155738.072500", "155738.860000", "155739.647500", "155740.435000", "155741.225000", "155742.012500", "155742.800000", "155743.587500", "155744.377500", "155745.165000", "155745.952500", "155746.740000", "155747.530000", "155748.317500", "155749.105000", "155749.895000", "155750.682500", "155751.470000", "155752.257500", "155753.047500", "155753.835000", "155754.622500", "155755.410000", "155756.200000", "155756.987500", "155757.775000", "155758.562500", "155759.352500", "155800.140000", "155800.927500", "155801.715000", "155802.505000", "155803.292500", "155804.080000", "155804.867500", "155805.657500", "155806.445000", "155807.232500", "155808.022500", "155808.810000", "155809.597500", "155810.385000", "155811.175000", "155811.962500", "155812.750000", "155813.537500", "155814.327500", "155815.115000", "155815.902500", "155816.690000", "155817.480000", "155818.267500", "155819.055000", "155819.842500", "155820.632500", "155821.420000", "155822.207500", "155822.995000", "155823.785000", "155824.572500", "155825.360000", "155826.150000", "155826.937500", "155827.725000", "155828.512500", "155829.302500", "155830.090000", "155830.877500", "155831.665000", "155832.455000", "155833.242500", "155834.030000", "155834.817500", "155835.607500", "155836.395000", "155837.182500", "155837.970000", "155838.760000", "155839.547500", "155840.335000", "155841.125000", "155841.912500", "155842.700000", "155843.487500", "155844.277500", "155845.065000", "155845.852500", "155846.640000", "155847.430000", "155848.217500", "155849.005000", "155849.792500", "155850.582500", "155851.370000", "155852.157500", "155852.945000", "155853.735000", "155854.522500", "155855.310000", "155856.097500", "155856.887500", "155857.675000", "155858.462500", "155859.252500", "155900.040000", "155900.827500", "155901.615000", "155902.405000", "155903.192500", "155903.980000", "155904.767500", "155905.557500", "155906.345000", "155907.132500", "155907.920000", "155908.710000", "155909.497500", "155910.285000", "155911.072500", "155911.862500", "155912.650000", "155913.437500", "155914.225000", "155915.015000", "155915.802500", "155916.590000", "155917.380000", "155918.167500", "155918.955000", "155919.742500", "155920.532500", "155921.320000", "155922.107500", "155922.895000", "155923.685000", "155924.472500", "155925.260000", "155926.047500", "155926.837500", "155927.625000", "155928.412500", "155929.200000", "155929.990000", "155930.777500", "155931.565000", "155932.352500", "155933.142500", "155933.930000", "155934.717500", "155935.507500", "155936.295000", "155937.082500", "155937.870000", "155938.660000", "155939.447500", "155940.235000", "155941.022500", "155941.812500", "155942.600000", "155943.387500", "155944.175000", "155944.965000", "155945.752500", "155946.540000", "155947.327500", "155948.117500", "155948.905000"],
      "ContentTime": ["163522.796000", "163522.796000", "163522.796000", "163522.796000", "163622.765000", "163622.765000", "163622.781000", "163622.781000", "163622.781000", "163622.781000", "163622.781000", "163622.781000", "163622.781000", "163622.796000", "163622.796000", "163622.796000", "163622.796000", "163622.796000", "163622.796000", "163622.796000", "163622.812000", "163622.812000", "163622.812000", "163622.812000", "163622.812000", "163622.812000", "163622.812000", "163622.828000", "163622.828000", "163622.828000", "163622.828000", "163622.828000", "163722.765000", "163722.765000", "163722.781000", "163722.781000", "163722.781000", "163722.781000", "163722.781000", "163722.781000", "163722.781000", "163722.796000", "163722.796000", "163722.796000", "163722.796000", "163722.796000", "163722.796000", "163722.796000", "163722.812000", "163722.812000", "163722.812000", "163722.812000", "163722.812000", "163722.812000", "163722.812000", "163722.828000", "163722.828000", "163722.828000", "163722.828000", "163822.765000", "163822.765000", "163822.781000", "163822.781000", "163822.781000", "163822.781000", "163822.781000", "163822.781000", "163822.781000", "163822.796000", "163822.796000", "163822.796000", "163822.796000", "163822.796000", "163822.796000", "163822.796000", "163822.812000", "163822.812000", "163822.812000", "163822.812000", "163822.812000", "163822.812000", "163822.812000", "163822.828000", "163822.828000", "163822.828000", "163822.828000", "163922.765000", "163922.765000", "163922.781000", "163922.781000", "163922.781000", "163922.781000", "163922.781000", "163922.781000", "163922.781000", "163922.796000", "163922.796000", "163922.796000", "163922.796000", "163922.796000", "163922.796000", "163922.812000", "163922.812000", "163922.812000", "163922.812000", "163922.812000", "163922.812000", "163922.828000", "163922.828000", "163922.828000", "163922.828000", "163922.828000", "163922.828000", "163922.828000", "164022.765000", "164022.765000", "164022.781000", "164022.781000", "164022.781000", "164022.781000", "164022.781000", "164022.781000", "164022.781000", "164022.796000", "164022.796000", "164022.796000", "164022.796000", "164022.796000", "164022.796000", "164022.796000", "164022.812000", "164022.812000", "164022.812000", "164022.812000", "164022.812000", "164022.828000", "164022.828000", "164022.828000", "164022.828000", "164022.828000", "164022.828000", "164122.765000", "164122.765000", "164122.781000", "164122.781000", "164122.781000", "164122.781000", "164122.781000", "164122.781000", "164122.796000", "164122.796000", "164122.796000", "164122.796000", "164122.796000", "164122.796000", "164122.796000", "164122.812000", "164122.812000", "164122.812000", "164122.812000", "164122.812000", "164122.812000", "164122.812000", "164122.828000", "164122.828000", "164122.828000", "164122.828000", "164122.828000", "164122.843000", "164222.765000", "164222.765000", "164222.781000", "164222.781000", "164222.781000", "164222.781000", "164222.781000", "164222.781000", "164222.781000", "164222.796000", "164222.796000", "164222.796000", "164222.796000", "164222.796000", "164222.796000", "164222.796000", "164222.812000", "164222.812000", "164222.812000", "164222.812000", "164222.812000", "164222.812000", "164222.812000", "164222.828000", "164222.828000", "164222.828000", "164222.828000", "164322.765000", "164322.765000", "164322.781000", "164322.781000", "164322.781000", "164322.781000", "164322.781000", "164322.781000", "164322.781000", "164322.796000", "164322.796000", "164322.796000", "164322.796000", "164322.796000", "164322.796000", "164322.796000", "164322.812000", "164322.812000", "164322.812000", "164322.812000", "164322.812000", "164322.812000", "164322.812000", "164322.828000", "164322.828000", "164322.828000", "164322.828000", "164322.828000", "164422.765000", "164422.765000", "164422.781000", "164422.781000", "164422.781000", "164422.781000", "164422.781000", "164422.781000", "164422.781000", "164422.796000", "164422.796000", "164422.796000", "164422.796000", "164422.796000", "164422.796000", "164422.796000", "164422.812000", "164422.812000", "164422.812000", "164422.812000", "164422.812000", "164422.812000", "164422.812000", "164422.828000", "164422.828000", "164422.828000", "164422.828000", "164522.765000", "164522.765000", "164522.781000", "164522.781000", "164522.781000", "164522.781000", "164522.781000", "164522.781000", "164522.781000", "164522.796000", "164522.796000", "164522.796000", "164522.796000", "164522.796000", "164522.796000", "164522.796000", "164522.812000", "164522.812000", "164522.812000", "164522.812000", "164522.812000", "164522.812000", "164522.812000", "164522.828000", "164522.828000", "164522.828000", "164522.828000", "164622.765000", "164622.765000", "164622.781000", "164622.781000", "164622.781000", "164622.781000", "164622.781000", "164622.781000", "164622.781000", "164622.796000", "164622.796000", "164622.796000", "164622.796000", "164622.796000", "164622.796000", "164622.796000", "164622.812000", "164622.812000", "164622.812000", "164622.812000", "164622.812000", "164622.812000", "164622.812000", "164622.828000", "164622.828000", "164622.828000", "164622.828000", "164622.828000", "164722.765000", "164722.765000", "164722.781000", "164722.781000", "164722.781000", "164722.781000", "164722.781000", "164722.781000", "164722.781000", "164722.796000", "164722.796000", "164722.796000", "164722.796000", "164722.796000", "164722.796000", "164722.812000", "164722.812000", "164722.812000", "164722.812000", "164722.812000", "164722.812000", "164722.812000", "164722.828000", "164722.828000", "164722.828000", "164722.828000", "164722.828000", "164822.765000", "164822.765000", "164822.781000", "164822.781000", "164822.781000", "164822.781000", "164822.781000", "164822.781000", "164822.796000", "164822.796000", "164822.796000", "164822.796000", "164822.796000", "164822.796000", "164822.796000", "164822.812000", "164822.812000", "164822.812000", "164822.812000", "164822.812000", "164822.828000", "164822.828000", "164822.828000", "164822.828000", "164822.843000", "164822.843000", "164822.843000", "164922.765000", "164922.765000", "164922.765000", "164922.765000", "164922.781000", "164922.781000", "164922.781000", "164922.781000", "164922.781000", "164922.781000", "164922.781000", "164922.796000", "164922.796000", "164922.796000", "164922.796000", "164922.796000", "164922.796000", "164922.796000", "164922.812000", "164922.812000", "164922.812000", "164922.812000", "164922.812000", "164922.812000", "164922.828000", "164922.828000", "164922.828000", "164922.828000", "165022.765000", "165022.765000", "165022.765000", "165022.765000", "165022.781000", "165022.781000", "165022.781000", "165022.796000", "165022.796000", "165022.796000", "165022.796000", "165022.796000", "165022.796000", "165022.812000", "165022.812000", "165022.812000", "165022.812000", "165022.812000", "165022.812000", "165022.812000", "165022.828000", "165022.828000", "165022.828000", "165022.828000", "165022.828000", "165022.828000", "165022.828000", "165022.843000", "165122.765000", "165122.765000", "165122.765000", "165122.765000", "165122.781000", "165122.781000", "165122.781000", "165122.781000", "165122.781000", "165122.781000", "165122.781000", "165122.796000", "165122.796000", "165122.796000", "165122.796000", "165122.796000", "165122.796000", "165122.796000", "165122.812000", "165122.812000", "165122.812000", "165122.812000", "165122.812000", "165122.812000", "165122.812000", "165122.828000", "165122.828000", "165122.828000", "165222.765000", "165222.765000", "165222.765000", "165222.765000", "165222.781000", "165222.781000", "165222.781000", "165222.781000", "165222.781000", "165222.781000", "165222.781000", "165222.796000", "165222.796000", "165222.796000", "165222.796000", "165222.796000", "165222.796000", "165222.796000", "165222.812000", "165222.812000", "165222.812000", "165222.812000", "165222.812000", "165222.812000", "165222.828000", "165222.828000", "165222.828000", "165322.765000", "165322.765000", "165322.765000", "165322.765000", "165322.781000", "165322.781000", "165322.781000", "165322.781000", "165322.781000", "165322.781000", "165322.781000", "165322.796000", "165322.796000", "165322.796000", "165322.796000", "165322.796000", "165322.796000", "165322.796000", "165322.812000", "165322.812000", "165322.812000", "165322.812000", "165322.812000", "165322.812000", "165322.812000", "165322.828000", "165322.828000", "165322.828000", "165422.765000", "165422.765000", "165422.781000", "165422.781000", "165422.781000", "165422.781000", "165422.781000", "165422.781000", "165422.781000", "165422.796000", "165422.796000", "165422.796000", "165422.796000", "165422.796000", "165422.796000", "165422.796000", "165422.812000", "165422.812000", "165422.812000", "165422.812000", "165422.812000", "165422.812000", "165422.812000", "165422.828000", "165422.828000", "165422.828000", "165422.828000", "165422.828000", "165522.765000", "165522.765000", "165522.781000", "165522.781000", "165522.781000", "165522.781000", "165522.781000", "165522.781000", "165522.796000", "165522.796000", "165522.796000", "165522.796000", "165522.796000", "165522.796000", "165522.796000", "165522.812000", "165522.812000", "165522.812000", "165522.812000", "165522.812000", "165522.812000", "165522.812000", "165522.828000", "165522.828000", "165522.828000", "165522.828000", "165522.828000", "165522.828000", "165617.671000", "165617.671000", "165617.671000", "165617.671000", "165617.671000", "165617.671000", "165617.687000", "165617.687000", "165617.687000", "165617.687000", "165617.687000", "165617.687000", "165617.687000", "165617.703000", "165617.703000", "165617.703000", "165617.703000", "165617.703000", "165617.703000", "165617.718000", "165617.718000", "165617.718000", "165617.718000", "165617.718000", "165617.734000", "165617.734000"],
      "DataSetTrailingPadding": [
        "\u0000\u0000\u0000\u0000\u0000\u0000\u0000\u0000\u0000\u0000\u0000\u0000\u0000\u0000\u0000\u0000\u0000\u0000\u0000\u0000\u0000\u0000\u0000\u0000\u0000\u0000\u0000\u0000\u0000\u0000\u0000\u0000\u0000\u0000\u0000\u0000\u0000\u0000\u0000\u0000\u0000\u0000\u0000\u0000\u0000\u0000\u0000\u0000\u0000\u0000\u0000\u0000\u0000\u0000\u0000\u0000\u0000\u0000\u0000\u0000\u0000\u0000\u0000\u0000\u0000\u0000\u0000\u0000\u0000\u0000\u0000\u0000\u0000\u0000\u0000\u0000\u0000\u0000\u0000\u0000\u0000\u0000\u0000\u0000\u0000\u0000\u0000\u0000\u0000\u0000\u0000\u0000\u0000\u0000\u0000\u0000\u0000\u0000\u0000\u0000",
        "\u0000\u0000\u0000\u0000\u0000\u0000\u0000\u0000\u0000\u0000\u0000\u0000\u0000\u0000\u0000\u0000\u0000\u0000\u0000\u0000\u0000\u0000\u0000\u0000\u0000\u0000\u0000\u0000\u0000\u0000\u0000\u0000\u0000\u0000\u0000\u0000\u0000\u0000\u0000\u0000\u0000\u0000\u0000\u0000\u0000\u0000\u0000\u0000\u0000\u0000\u0000\u0000\u0000\u0000\u0000\u0000\u0000\u0000\u0000\u0000\u0000\u0000\u0000\u0000\u0000\u0000\u0000\u0000\u0000\u0000\u0000\u0000\u0000\u0000\u0000\u0000\u0000\u0000\u0000\u0000\u0000\u0000\u0000\u0000\u0000\u0000\u0000\u0000\u0000\u0000\u0000\u0000\u0000\u0000\u0000\u0000",
        "\u0000\u0000\u0000\u0000\u0000\u0000\u0000\u0000\u0000\u0000\u0000\u0000\u0000\u0000\u0000\u0000\u0000\u0000\u0000\u0000\u0000\u0000\u0000\u0000\u0000\u0000\u0000\u0000\u0000\u0000\u0000\u0000\u0000\u0000\u0000\u0000\u0000\u0000\u0000\u0000\u0000\u0000\u0000\u0000\u0000\u0000\u0000\u0000\u0000\u0000\u0000\u0000\u0000\u0000\u0000\u0000\u0000\u0000\u0000\u0000\u0000\u0000\u0000\u0000\u0000\u0000\u0000\u0000\u0000\u0000\u0000\u0000\u0000\u0000\u0000\u0000\u0000\u0000\u0000\u0000\u0000\u0000\u0000\u0000\u0000\u0000\u0000\u0000\u0000\u0000\u0000\u0000\u0000\u0000\u0000\u0000\u0000\u0000",
