{
  "AcquisitionMatrixPE": 104,
  "AcquisitionNumber": 1,
  "AcquisitionTime": "15:20:3.195000",
  "BandwidthPerPixelPhaseEncode": 13.935,
  "BaseResolution": 104,
  "CoilString": "C:HEA;HEP",
  "ConversionSoftware": "dcm2niix",
  "ConversionSoftwareVersion": "v1.0.20210317",
  "DerivedVendorReportedEchoSpacing": 0.000690017,
  "DeviceSerialNumber": "35450",
  "DwellTime": 2.5e-06,
  "EchoTime": 0.0348,
  "EffectiveEchoSpacing": 0.000690017,
  "FlipAngle": 55,
  "ImageComments": "Unaliased MB8/PE3",
  "ImageOrientationPatientDICOM": [0.999455, 0.0011516, 0.0330027, -2.49611e-08, 0.999392, -0.0348722],
  "ImageType": [
    "ORIGINAL",
    "PRIMARY",
    "M",
    "MB",
    "ND",
    "MOSAIC"
],
  "ImagingFrequency": 123.235,
  "InPlanePhaseEncodingDirectionDICOM": "COL",
  "InstitutionAddress": "Univeristy Ave. 197,Newark,North East,US,07102-1814",
  "InstitutionName": "RUBIC",
  "InstitutionalDepartmentName": "Department",
  "MRAcquisitionType": "2D",
  "MagneticFieldStrength": 3,
  "Manufacturer": "Siemens",
  "ManufacturersModelName": "TrioTim",
  "Modality": "MR",
  "MultibandAccelerationFactor": 8,
  "PartialFourier": 0.875,
  "PatientPosition": "HFS",
  "PercentPhaseFOV": 100,
  "PercentSampling": 100,
  "PhaseEncodingDirection": "j-",
  "PhaseEncodingSteps": 91,
  "PhaseResolution": 1,
  "PixelBandwidth": 1923,
  "ProcedureStepDescription": "Cole^Michael",
  "ProtocolName": "cmrr_mbep2d_bold_2mm_MB8_Rest",
  "PulseSequenceDetails": "%CustomerSeq%\\cmrr_mbep2d_bold",
  "ReceiveCoilName": "32Ch_Head",
  "ReconMatrixPE": 104,
  "RepetitionTime": 0.785,
  "SAR": 0.122395,
  "ScanOptions": "PFP\\FS",
  "ScanningSequence": "EP",
  "SequenceName": "epfid2d1_104",
  "SequenceVariant": "SK\\SS",
  "SeriesDescription": "cmrr_mbep2d_bold_2mm_MB8_Rest",
  "SeriesNumber": 9,
  "ShimSetting": [2131, -432, -7335, 727, -145, -395, 180, -29],
  "SliceThickness": 2,
  "SliceTiming": [0, 0.4375, 0.0875, 0.525, 0.175, 0.6125, 0.2625, 0.7, 0.35, 0, 0.4375, 0.0875, 0.525, 0.175, 0.6125, 0.2625, 0.7, 0.35, 0, 0.4375, 0.0875, 0.525, 0.175, 0.6125, 0.2625, 0.7, 0.35, 0, 0.4375, 0.0875, 0.525, 0.175, 0.6125, 0.2625, 0.7, 0.35, 0, 0.4375, 0.0875, 0.525, 0.175, 0.6125, 0.2625, 0.7, 0.35, 0, 0.4375, 0.0875, 0.525, 0.175, 0.6125, 0.2625, 0.7, 0.35, 0, 0.4375, 0.0875, 0.525, 0.175, 0.6125, 0.2625, 0.7, 0.35, 0, 0.4375, 0.0875, 0.525, 0.175, 0.6125, 0.2625, 0.7, 0.35],
  "SoftwareVersions": "syngo MR B19",
  "SpacingBetweenSlices": 2,
  "StationName": "MRC35450",
  "TaskName": "rest",
  "TotalReadoutTime": 0.0710717,
  "TxRefAmp": 322.289,
  "dcmmeta_affine": [
    [-1.9989092350006104, -4.9922274314440074e-08, 0.06604553759098053, 101.6417236328125],
    [-0.0023032010067254305, 1.9987835884094238, -0.06970629841089249, -82.3194351196289],
    [0.06600537151098251, 0.06974433362483978, 1.997693419456482, -97.9209213256836],
    [0.0, 0.0, 0.0, 1.0]
],
  "dcmmeta_reorient_transform": [
    [0.0, -1.0, 0.0, 103.0],
    [1.0, 0.0, 0.0, 0.0],
    [0.0, 0.0, 1.0, 0.0],
    [0.0, 0.0, 0.0, 1.0]
],
  "dcmmeta_shape": [104, 104, 72, 1070],
  "dcmmeta_slice_dim": 2,
  "dcmmeta_version": 0.6,
  "global": {
    "const": {
      "AcquisitionMatrix": [104, 0, 0, 104],
      "AngioFlag": "N",
      "BitsAllocated": 16,
      "BitsStored": 12,
      "Columns": 936,
      "EchoNumbers": 1,
      "EchoTime": 34.8,
      "EchoTrainLength": 1,
      "FlipAngle": 55.0,
      "HighBit": 11,
      "ImageOrientationPatient": [0.99945459959621, 0.00115160049858, 0.0330026841677, -2.4961138e-08, 0.9993917810065, -0.034872167364],
      "ImagePositionPatient": [-933.18792789381, -956.00736340479, -89.181842500236],
      "ImageType": [
        "ORIGINAL",
        "PRIMARY",
        "M",
        "MB",
        "ND",
        "MOSAIC"
],
      "ImagedNucleus": "1H",
      "ImagingFrequency": 123.23484,
      "InPlanePhaseEncodingDirection": "COL",
      "MRAcquisitionType": "2D",
      "MagneticFieldStrength": 3.0,
      "Manufacturer": "SIEMENS",
      "ManufacturerModelName": "TrioTim",
      "Modality": "MR",
      "NumberOfAverages": 1.0,
      "NumberOfPhaseEncodingSteps": 91,
      "PercentPhaseFieldOfView": 100.0,
      "PercentSampling": 100.0,
      "PerformedProcedureStepStartTime": "145138.734000",
      "PhotometricInterpretation": "MONOCHROME2",
      "PixelBandwidth": 1923.0,
      "PixelRepresentation": 0,
      "PixelSpacing": [2.0, 2.0],
      "ProtocolName": "cmrr_mbep2d_bold_2mm_MB8_Rest",
      "RepetitionTime": 785.0,
      "Rows": 936,
      "SAR": 0.12239537343655,
      "SamplesPerPixel": 1,
      "ScanOptions": [
        "PFP",
        "FS"
],
      "ScanningSequence": "EP",
      "SequenceName": "epfid2d1_104",
      "SequenceVariant": [
        "SK",
        "SS"
],
      "SeriesDescription": "cmrr_mbep2d_bold_2mm_MB8_Rest",
      "SeriesNumber": 9,
      "SeriesTime": "152111.296000",
      "SliceLocation": -91.582405172427,
      "SliceThickness": 2.0,
      "SmallestImagePixelValue": 0,
      "SoftwareVersions": "syngo MR B19",
      "SpacingBetweenSlices": 2.0000000266374,
      "SpecificCharacterSet": "ISO_IR 100",
      "StudyID": "1",
      "StudyTime": "145138.703000",
      "TransmitCoilName": "Body",
      "VariableFlipAngleFlag": "N",
      "dBdt": 0.0},
    "slices": {}
  },
  "time": {
    "samples": {
      "AcquisitionNumber": [1, 2, 3, 4, 5, 6, 7, 8, 9, 10, 11, 12, 13, 14, 15, 16, 17, 18, 19, 20, 21, 22, 23, 24, 25, 26, 27, 28, 29, 30, 31, 32, 33, 34, 35, 36, 37, 38, 39, 40, 41, 42, 43, 44, 45, 46, 47, 48, 49, 50, 51, 52, 53, 54, 55, 56, 57, 58, 59, 60, 61, 62, 63, 64, 65, 66, 67, 68, 69, 70, 71, 72, 73, 74, 75, 76, 77, 78, 79, 80, 81, 82, 83, 84, 85, 86, 87, 88, 89, 90, 91, 92, 93, 94, 95, 96, 97, 98, 99, 100, 101, 102, 103, 104, 105, 106, 107, 108, 109, 110, 111, 112, 113, 114, 115, 116, 117, 118, 119, 120, 121, 122, 123, 124, 125, 126, 127, 128, 129, 130, 131, 132, 133, 134, 135, 136, 137, 138, 139, 140, 141, 142, 143, 144, 145, 146, 147, 148, 149, 150, 151, 152, 153, 154, 155, 156, 157, 158, 159, 160, 161, 162, 163, 164, 165, 166, 167, 168, 169, 170, 171, 172, 173, 174, 175, 176, 177, 178, 179, 180, 181, 182, 183, 184, 185, 186, 187, 188, 189, 190, 191, 192, 193, 194, 195, 196, 197, 198, 199, 200, 201, 202, 203, 204, 205, 206, 207, 208, 209, 210, 211, 212, 213, 214, 215, 216, 217, 218, 219, 220, 221, 222, 223, 224, 225, 226, 227, 228, 229, 230, 231, 232, 233, 234, 235, 236, 237, 238, 239, 240, 241, 242, 243, 244, 245, 246, 247, 248, 249, 250, 251, 252, 253, 254, 255, 256, 257, 258, 259, 260, 261, 262, 263, 264, 265, 266, 267, 268, 269, 270, 271, 272, 273, 274, 275, 276, 277, 278, 279, 280, 281, 282, 283, 284, 285, 286, 287, 288, 289, 290, 291, 292, 293, 294, 295, 296, 297, 298, 299, 300, 301, 302, 303, 304, 305, 306, 307, 308, 309, 310, 311, 312, 313, 314, 315, 316, 317, 318, 319, 320, 321, 322, 323, 324, 325, 326, 327, 328, 329, 330, 331, 332, 333, 334, 335, 336, 337, 338, 339, 340, 341, 342, 343, 344, 345, 346, 347, 348, 349, 350, 351, 352, 353, 354, 355, 356, 357, 358, 359, 360, 361, 362, 363, 364, 365, 366, 367, 368, 369, 370, 371, 372, 373, 374, 375, 376, 377, 378, 379, 380, 381, 382, 383, 384, 385, 386, 387, 388, 389, 390, 391, 392, 393, 394, 395, 396, 397, 398, 399, 400, 401, 402, 403, 404, 405, 406, 407, 408, 409, 410, 411, 412, 413, 414, 415, 416, 417, 418, 419, 420, 421, 422, 423, 424, 425, 426, 427, 428, 429, 430, 431, 432, 433, 434, 435, 436, 437, 438, 439, 440, 441, 442, 443, 444, 445, 446, 447, 448, 449, 450, 451, 452, 453, 454, 455, 456, 457, 458, 459, 460, 461, 462, 463, 464, 465, 466, 467, 468, 469, 470, 471, 472, 473, 474, 475, 476, 477, 478, 479, 480, 481, 482, 483, 484, 485, 486, 487, 488, 489, 490, 491, 492, 493, 494, 495, 496, 497, 498, 499, 500, 501, 502, 503, 504, 505, 506, 507, 508, 509, 510, 511, 512, 513, 514, 515, 516, 517, 518, 519, 520, 521, 522, 523, 524, 525, 526, 527, 528, 529, 530, 531, 532, 533, 534, 535, 536, 537, 538, 539, 540, 541, 542, 543, 544, 545, 546, 547, 548, 549, 550, 551, 552, 553, 554, 555, 556, 557, 558, 559, 560, 561, 562, 563, 564, 565, 566, 567, 568, 569, 570, 571, 572, 573, 574, 575, 576, 577, 578, 579, 580, 581, 582, 583, 584, 585, 586, 587, 588, 589, 590, 591, 592, 593, 594, 595, 596, 597, 598, 599, 600, 601, 602, 603, 604, 605, 606, 607, 608, 609, 610, 611, 612, 613, 614, 615, 616, 617, 618, 619, 620, 621, 622, 623, 624, 625, 626, 627, 628, 629, 630, 631, 632, 633, 634, 635, 636, 637, 638, 639, 640, 641, 642, 643, 644, 645, 646, 647, 648, 649, 650, 651, 652, 653, 654, 655, 656, 657, 658, 659, 660, 661, 662, 663, 664, 665, 666, 667, 668, 669, 670, 671, 672, 673, 674, 675, 676, 677, 678, 679, 680, 681, 682, 683, 684, 685, 686, 687, 688, 689, 690, 691, 692, 693, 694, 695, 696, 697, 698, 699, 700, 701, 702, 703, 704, 705, 706, 707, 708, 709, 710, 711, 712, 713, 714, 715, 716, 717, 718, 719, 720, 721, 722, 723, 724, 725, 726, 727, 728, 729, 730, 731, 732, 733, 734, 735, 736, 737, 738, 739, 740, 741, 742, 743, 744, 745, 746, 747, 748, 749, 750, 751, 752, 753, 754, 755, 756, 757, 758, 759, 760, 761, 762, 763, 764, 765, 766, 767, 768, 769, 770, 771, 772, 773, 774, 775, 776, 777, 778, 779, 780, 781, 782, 783, 784, 785, 786, 787, 788, 789, 790, 791, 792, 793, 794, 795, 796, 797, 798, 799, 800, 801, 802, 803, 804, 805, 806, 807, 808, 809, 810, 811, 812, 813, 814, 815, 816, 817, 818, 819, 820, 821, 822, 823, 824, 825, 826, 827, 828, 829, 830, 831, 832, 833, 834, 835, 836, 837, 838, 839, 840, 841, 842, 843, 844, 845, 846, 847, 848, 849, 850, 851, 852, 853, 854, 855, 856, 857, 858, 859, 860, 861, 862, 863, 864, 865, 866, 867, 868, 869, 870, 871, 872, 873, 874, 875, 876, 877, 878, 879, 880, 881, 882, 883, 884, 885, 886, 887, 888, 889, 890, 891, 892, 893, 894, 895, 896, 897, 898, 899, 900, 901, 902, 903, 904, 905, 906, 907, 908, 909, 910, 911, 912, 913, 914, 915, 916, 917, 918, 919, 920, 921, 922, 923, 924, 925, 926, 927, 928, 929, 930, 931, 932, 933, 934, 935, 936, 937, 938, 939, 940, 941, 942, 943, 944, 945, 946, 947, 948, 949, 950, 951, 952, 953, 954, 955, 956, 957, 958, 959, 960, 961, 962, 963, 964, 965, 966, 967, 968, 969, 970, 971, 972, 973, 974, 975, 976, 977, 978, 979, 980, 981, 982, 983, 984, 985, 986, 987, 988, 989, 990, 991, 992, 993, 994, 995, 996, 997, 998, 999, 1000, 1001, 1002, 1003, 1004, 1005, 1006, 1007, 1008, 1009, 1010, 1011, 1012, 1013, 1014, 1015, 1016, 1017, 1018, 1019, 1020, 1021, 1022, 1023, 1024, 1025, 1026, 1027, 1028, 1029, 1030, 1031, 1032, 1033, 1034, 1035, 1036, 1037, 1038, 1039, 1040, 1041, 1042, 1043, 1044, 1045, 1046, 1047, 1048, 1049, 1050, 1051, 1052, 1053, 1054, 1055, 1056, 1057, 1058, 1059, 1060, 1061, 1062, 1063, 1064, 1065, 1066, 1067, 1068, 1069, 1070],
      "AcquisitionTime": ["152003.195000", "152003.982500", "152004.770000", "152005.560000", "152006.347500", "152007.135000", "152007.922500", "152008.712500", "152009.500000", "152010.287500", "152011.077500", "152011.865000", "152012.652500", "152013.440000", "152014.230000", "152015.017500", "152015.805000", "152016.592500", "152017.382500", "152018.170000", "152018.957500", "152019.745000", "152020.535000", "152021.322500", "152022.110000", "152022.897500", "152023.687500", "152024.475000", "152025.262500", "152026.052500", "152026.840000", "152027.627500", "152028.415000", "152029.205000", "152029.992500", "152030.780000", "152031.567500", "152032.357500", "152033.145000", "152033.932500", "152034.720000", "152035.510000", "152036.297500", "152037.085000", "152037.872500", "152038.662500", "152039.450000", "152040.237500", "152041.025000", "152041.815000", "152042.602500", "152043.390000", "152044.180000", "152044.967500", "152045.755000", "152046.542500", "152047.332500", "152048.120000", "152048.907500", "152049.695000", "152050.485000", "152051.272500", "152052.060000", "152052.847500", "152053.637500", "152054.425000", "152055.212500", "152056.000000", "152056.790000", "152057.577500", "152058.365000", "152059.152500", "152059.942500", "152100.730000", "152101.517500", "152102.307500", "152103.095000", "152103.882500", "152104.670000", "152105.460000", "152106.247500", "152107.035000", "152107.822500", "152108.612500", "152109.400000", "152110.187500", "152110.975000", "152111.765000", "152112.552500", "152113.340000", "152114.127500", "152114.917500", "152115.705000", "152116.492500", "152117.280000", "152118.070000", "152118.857500", "152119.645000", "152120.435000", "152121.222500", "152122.010000", "152122.797500", "152123.587500", "152124.375000", "152125.162500", "152125.950000", "152126.740000", "152127.527500", "152128.315000", "152129.102500", "152129.892500", "152130.680000", "152131.467500", "152132.255000", "152133.045000", "152133.832500", "152134.620000", "152135.407500", "152136.197500", "152136.985000", "152137.772500", "152138.562500", "152139.350000", "152140.137500", "152140.925000", "152141.715000", "152142.502500", "152143.290000", "152144.077500", "152144.867500", "152145.655000", "152146.442500", "152147.230000", "152148.020000", "152148.807500", "152149.595000", "152150.382500", "152151.172500", "152151.960000", "152152.747500", "152153.535000", "152154.325000", "152155.112500", "152155.900000", "152156.690000", "152157.477500", "152158.265000", "152159.052500", "152159.842500", "152200.630000", "152201.417500", "152202.205000", "152202.995000", "152203.782500", "152204.570000", "152205.357500", "152206.147500", "152206.935000", "152207.722500", "152208.510000", "152209.300000", "152210.087500", "152210.875000", "152211.662500", "152212.452500", "152213.240000", "152214.027500", "152214.817500", "152215.605000", "152216.392500", "152217.180000", "152217.970000", "152218.757500", "152219.545000", "152220.332500", "152221.122500", "152221.910000", "152222.697500", "152223.485000", "152224.275000", "152225.062500", "152225.850000", "152226.637500", "152227.427500", "152228.215000", "152229.002500", "152229.790000", "152230.580000", "152231.367500", "152232.155000", "152232.945000", "152233.732500", "152234.520000", "152235.307500", "152236.097500", "152236.885000", "152237.672500", "152238.460000", "152239.250000", "152240.037500", "152240.825000", "152241.612500", "152242.402500", "152243.190000", "152243.977500", "152244.765000", "152245.555000", "152246.342500", "152247.130000", "152247.917500", "152248.707500", "152249.495000", "152250.282500", "152251.072500", "152251.860000", "152252.647500", "152253.435000", "152254.225000", "152255.012500", "152255.800000", "152256.587500", "152257.377500", "152258.165000", "152258.952500", "152259.740000", "152300.530000", "152301.317500", "152302.105000", "152302.892500", "152303.682500", "152304.470000", "152305.257500", "152306.045000", "152306.835000", "152307.622500", "152308.410000", "152309.200000", "152309.987500", "152310.775000", "152311.562500", "152312.352500", "152313.140000", "152313.927500", "152314.715000", "152315.505000", "152316.292500", "152317.080000", "152317.867500", "152318.657500", "152319.445000", "152320.232500", "152321.020000", "152321.810000", "152322.597500", "152323.385000", "152324.172500", "152324.962500", "152325.750000", "152326.537500", "152327.327500", "152328.115000", "152328.902500", "152329.690000", "152330.480000", "152331.267500", "152332.055000", "152332.842500", "152333.632500", "152334.420000", "152335.207500", "152335.995000", "152336.785000", "152337.572500", "152338.360000", "152339.147500", "152339.937500", "152340.725000", "152341.512500", "152342.302500", "152343.090000", "152343.877500", "152344.665000", "152345.455000", "152346.242500", "152347.030000", "152347.817500", "152348.607500", "152349.395000", "152350.182500", "152350.970000", "152351.760000", "152352.547500", "152353.335000", "152354.122500", "152354.912500", "152355.700000", "152356.487500", "152357.275000", "152358.065000", "152358.852500", "152359.640000", "152400.430000", "152401.217500", "152402.005000", "152402.792500", "152403.582500", "152404.370000", "152405.157500", "152405.945000", "152406.735000", "152407.522500", "152408.310000", "152409.097500", "152409.887500", "152410.675000", "152411.462500", "152412.250000", "152413.040000", "152413.827500", "152414.615000", "152415.402500", "152416.192500", "152416.980000", "152417.767500", "152418.557500", "152419.345000", "152420.132500", "152420.920000", "152421.710000", "152422.497500", "152423.285000", "152424.072500", "152424.862500", "152425.650000", "152426.437500", "152427.225000", "152428.015000", "152428.802500", "152429.590000", "152430.377500", "152431.167500", "152431.955000", "152432.742500", "152433.530000", "152434.320000", "152435.107500", "152435.895000", "152436.685000", "152437.472500", "152438.260000", "152439.047500", "152439.837500", "152440.625000", "152441.412500", "152442.200000", "152442.990000", "152443.777500", "152444.565000", "152445.352500", "152446.142500", "152446.930000", "152447.717500", "152448.505000", "152449.295000", "152450.082500", "152450.870000", "152451.657500", "152452.447500", "152453.235000", "152454.022500", "152454.812500", "152455.600000", "152456.387500", "152457.175000", "152457.965000", "152458.752500", "152459.540000", "152500.327500", "152501.117500", "152501.905000", "152502.692500", "152503.480000", "152504.270000", "152505.057500", "152505.845000", "152506.632500", "152507.422500", "152508.210000", "152508.997500", "152509.785000", "152510.575000", "152511.362500", "152512.150000", "152512.940000", "152513.727500", "152514.515000", "152515.302500", "152516.092500", "152516.880000", "152517.667500", "152518.455000", "152519.245000", "152520.032500", "152520.820000", "152521.607500", "152522.397500", "152523.185000", "152523.972500", "152524.760000", "152525.550000", "152526.337500", "152527.125000", "152527.912500", "152528.702500", "152529.490000", "152530.277500", "152531.067500", "152531.855000", "152532.642500", "152533.430000", "152534.220000", "152535.007500", "152535.795000", "152536.582500", "152537.372500", "152538.160000", "152538.947500", "152539.735000", "152540.525000", "152541.312500", "152542.100000", "152542.887500", "152543.677500", "152544.465000", "152545.252500", "152546.040000", "152546.830000", "152547.617500", "152548.405000", "152549.195000", "152549.982500", "152550.770000", "152551.557500", "152552.347500", "152553.135000", "152553.922500", "152554.710000", "152555.500000", "152556.287500", "152557.075000", "152557.862500", "152558.652500", "152559.440000", "152600.227500", "152601.015000", "152601.805000", "152602.592500", "152603.380000", "152604.167500", "152604.957500", "152605.745000", "152606.532500", "152607.322500", "152608.110000", "152608.897500", "152609.685000", "152610.475000", "152611.262500", "152612.050000", "152612.837500", "152613.627500", "152614.415000", "152615.202500", "152615.990000", "152616.780000", "152617.567500", "152618.355000", "152619.142500", "152619.932500", "152620.720000", "152621.507500", "152622.295000", "152623.085000", "152623.872500", "152624.660000", "152625.450000", "152626.237500", "152627.025000", "152627.812500", "152628.602500", "152629.390000", "152630.177500", "152630.965000", "152631.755000", "152632.542500", "152633.330000", "152634.117500", "152634.907500", "152635.695000", "152636.482500", "152637.270000", "152638.060000", "152638.847500", "152639.635000", "152640.422500", "152641.212500", "152642.000000", "152642.787500", "152643.577500", "152644.365000", "152645.152500", "152645.940000", "152646.730000", "152647.517500", "152648.305000", "152649.092500", "152649.882500", "152650.670000", "152651.457500", "152652.245000", "152653.035000", "152653.822500", "152654.610000", "152655.397500", "152656.187500", "152656.975000", "152657.762500", "152658.552500", "152659.340000", "152700.127500", "152700.915000", "152701.705000", "152702.492500", "152703.280000", "152704.067500", "152704.857500", "152705.645000", "152706.432500", "152707.220000", "152708.010000", "152708.797500", "152709.585000", "152710.372500", "152711.162500", "152711.950000", "152712.737500", "152713.525000", "152714.315000", "152715.102500", "152715.890000", "152716.680000", "152717.467500", "152718.255000", "152719.042500", "152719.832500", "152720.620000", "152721.407500", "152722.195000", "152722.985000", "152723.772500", "152724.560000", "152725.347500", "152726.137500", "152726.925000", "152727.712500", "152728.500000", "152729.290000", "152730.077500", "152730.865000", "152731.652500", "152732.442500", "152733.230000", "152734.017500", "152734.807500", "152735.595000", "152736.382500", "152737.170000", "152737.960000", "152738.747500", "152739.535000", "152740.322500", "152741.112500", "152741.900000", "152742.687500", "152743.475000", "152744.265000", "152745.052500", "152745.840000", "152746.627500", "152747.417500", "152748.205000", "152748.992500", "152749.780000", "152750.570000", "152751.357500", "152752.145000", "152752.935000", "152753.722500", "152754.510000", "152755.297500", "152756.087500", "152756.875000", "152757.662500", "152758.450000", "152759.240000", "152800.027500", "152800.815000", "152801.602500", "152802.392500", "152803.180000", "152803.967500", "152804.755000", "152805.545000", "152806.332500", "152807.120000", "152807.907500", "152808.697500", "152809.485000", "152810.272500", "152811.062500", "152811.850000", "152812.637500", "152813.425000", "152814.215000", "152815.002500", "152815.790000", "152816.577500", "152817.367500", "152818.155000", "152818.942500", "152819.730000", "152820.520000", "152821.307500", "152822.095000", "152822.882500", "152823.672500", "152824.460000", "152825.247500", "152826.035000", "152826.825000", "152827.612500", "152828.400000", "152829.190000", "152829.977500", "152830.765000", "152831.552500", "152832.342500", "152833.130000", "152833.917500", "152834.705000", "152835.495000", "152836.282500", "152837.070000", "152837.857500", "152838.647500", "152839.435000", "152840.222500", "152841.010000", "152841.800000", "152842.587500", "152843.375000", "152844.162500", "152844.952500", "152845.740000", "152846.527500", "152847.317500", "152848.105000", "152848.892500", "152849.680000", "152850.470000", "152851.257500", "152852.045000", "152852.832500", "152853.622500", "152854.410000", "152855.197500", "152855.985000", "152856.775000", "152857.562500", "152858.350000", "152859.137500", "152859.927500", "152900.715000", "152901.502500", "152902.290000", "152903.080000", "152903.867500", "152904.655000", "152905.445000", "152906.232500", "152907.020000", "152907.807500", "152908.597500", "152909.385000", "152910.172500", "152910.960000", "152911.750000", "152912.537500", "152913.325000", "152914.112500", "152914.902500", "152915.690000", "152916.477500", "152917.265000", "152918.055000", "152918.842500", "152919.630000", "152920.417500", "152921.207500", "152921.995000", "152922.782500", "152923.572500", "152924.360000", "152925.147500", "152925.935000", "152926.725000", "152927.512500", "152928.300000", "152929.087500", "152929.877500", "152930.665000", "152931.452500", "152932.240000", "152933.030000", "152933.817500", "152934.605000", "152935.392500", "152936.182500", "152936.970000", "152937.757500", "152938.545000", "152939.335000", "152940.122500", "152940.910000", "152941.700000", "152942.487500", "152943.275000", "152944.062500", "152944.852500", "152945.640000", "152946.427500", "152947.215000", "152948.005000", "152948.792500", "152949.580000", "152950.367500", "152951.157500", "152951.945000", "152952.732500", "152953.520000", "152954.310000", "152955.097500", "152955.885000", "152956.672500", "152957.462500", "152958.250000", "152959.037500", "152959.827500", "153000.615000", "153001.402500", "153002.190000", "153002.980000", "153003.767500", "153004.555000", "153005.342500", "153006.132500", "153006.920000", "153007.707500", "153008.495000", "153009.285000", "153010.072500", "153010.860000", "153011.647500", "153012.437500", "153013.225000", "153014.012500", "153014.802500", "153015.590000", "153016.377500", "153017.165000", "153017.955000", "153018.742500", "153019.530000", "153020.317500", "153021.107500", "153021.895000", "153022.682500", "153023.470000", "153024.260000", "153025.047500", "153025.835000", "153026.622500", "153027.412500", "153028.200000", "153028.987500", "153029.775000", "153030.565000", "153031.352500", "153032.140000", "153032.930000", "153033.717500", "153034.505000", "153035.292500", "153036.082500", "153036.870000", "153037.657500", "153038.445000", "153039.235000", "153040.022500", "153040.810000", "153041.597500", "153042.387500", "153043.175000", "153043.962500", "153044.750000", "153045.540000", "153046.327500", "153047.115000", "153047.902500", "153048.692500", "153049.480000", "153050.267500", "153051.057500", "153051.845000", "153052.632500", "153053.420000", "153054.210000", "153054.997500", "153055.785000", "153056.572500", "153057.362500", "153058.150000", "153058.937500", "153059.725000", "153100.515000", "153101.302500", "153102.090000", "153102.877500", "153103.667500", "153104.455000", "153105.242500", "153106.030000", "153106.820000", "153107.607500", "153108.395000", "153109.185000", "153109.972500", "153110.760000", "153111.547500", "153112.337500", "153113.125000", "153113.912500", "153114.700000", "153115.490000", "153116.277500", "153117.065000", "153117.852500", "153118.642500", "153119.430000", "153120.217500", "153121.005000", "153121.795000", "153122.582500", "153123.370000", "153124.157500", "153124.947500", "153125.735000", "153126.522500", "153127.312500", "153128.100000", "153128.887500", "153129.675000", "153130.465000", "153131.252500", "153132.040000", "153132.827500", "153133.617500", "153134.405000", "153135.192500", "153135.980000", "153136.770000", "153137.557500", "153138.345000", "153139.132500", "153139.922500", "153140.710000", "153141.497500", "153142.285000", "153143.075000", "153143.862500", "153144.650000", "153145.440000", "153146.227500", "153147.015000", "153147.802500", "153148.592500", "153149.380000", "153150.167500", "153150.955000", "153151.745000", "153152.532500", "153153.320000", "153154.107500", "153154.897500", "153155.685000", "153156.472500", "153157.260000", "153158.050000", "153158.837500", "153159.625000", "153200.412500", "153201.202500", "153201.990000", "153202.777500", "153203.567500", "153204.355000", "153205.142500", "153205.930000", "153206.720000", "153207.507500", "153208.295000", "153209.082500", "153209.872500", "153210.660000", "153211.447500", "153212.235000", "153213.025000", "153213.812500", "153214.600000", "153215.387500", "153216.177500", "153216.965000", "153217.752500", "153218.540000", "153219.330000", "153220.117500", "153220.905000", "153221.695000", "153222.482500", "153223.270000", "153224.057500", "153224.847500", "153225.635000", "153226.422500", "153227.210000", "153228.000000", "153228.787500", "153229.575000", "153230.362500", "153231.152500", "153231.940000", "153232.727500", "153233.515000", "153234.305000", "153235.092500", "153235.880000", "153236.667500", "153237.457500", "153238.245000", "153239.032500", "153239.822500", "153240.610000", "153241.397500", "153242.185000", "153242.975000", "153243.762500", "153244.550000", "153245.337500", "153246.127500", "153246.915000", "153247.702500", "153248.490000", "153249.280000", "153250.067500", "153250.855000", "153251.642500", "153252.432500", "153253.220000", "153254.007500", "153254.795000", "153255.585000", "153256.372500", "153257.160000", "153257.950000", "153258.737500", "153259.525000", "153300.312500", "153301.102500", "153301.890000", "153302.677500", "153303.465000", "153304.255000", "153305.042500", "153305.830000", "153306.617500", "153307.407500", "153308.195000", "153308.982500", "153309.770000", "153310.560000", "153311.347500", "153312.135000", "153312.922500", "153313.712500", "153314.500000", "153315.287500", "153316.077500", "153316.865000", "153317.652500", "153318.440000", "153319.230000", "153320.017500", "153320.805000", "153321.592500", "153322.382500", "153323.170000", "153323.957500", "153324.745000", "153325.535000", "153326.322500", "153327.110000", "153327.897500", "153328.687500", "153329.475000", "153330.262500", "153331.052500", "153331.840000", "153332.627500", "153333.415000", "153334.205000", "153334.992500", "153335.780000", "153336.567500", "153337.357500", "153338.145000", "153338.932500", "153339.720000", "153340.510000", "153341.297500", "153342.085000", "153342.872500", "153343.662500", "153344.450000", "153345.237500", "153346.025000", "153346.815000", "153347.602500", "153348.390000", "153349.180000", "153349.967500", "153350.755000", "153351.542500", "153352.332500", "153353.120000", "153353.907500", "153354.695000", "153355.485000", "153356.272500", "153357.060000", "153357.847500", "153358.637500", "153359.425000", "153400.212500", "153401.000000", "153401.790000", "153402.577500", "153403.365000", "153404.152500", "153404.942500", "153405.730000"],
