{
  "AcquisitionMatrixPE": 104,
  "AcquisitionNumber": 1,
  "AcquisitionTime": "16:08:17.725000",
  "BandwidthPerPixelPhaseEncode": 13.935,
  "BaseResolution": 104,
  "CoilString": "C:HEA;HEP",
  "ConversionSoftware": "dcm2niix",
  "ConversionSoftwareVersion": "v1.0.20210317",
  "DerivedVendorReportedEchoSpacing": 0.000690017,
  "DeviceSerialNumber": "35450",
  "DwellTime": 2.5e-06,
  "EchoTime": 0.0348,
  "EffectiveEchoSpacing": 0.000690017,
  "FlipAngle": 55,
  "ImageComments": "Unaliased MB8/PE3",
  "ImageOrientationPatientDICOM": [0.999455, 0.0011516, 0.0330027, -2.49611e-08, 0.999392, -0.0348722],
  "ImageType": [
    "ORIGINAL",
    "PRIMARY",
    "M",
    "MB",
    "ND",
    "MOSAIC"
],
  "ImagingFrequency": 123.235,
  "InPlanePhaseEncodingDirectionDICOM": "COL",
  "InstitutionAddress": "Univeristy Ave. 197,Newark,North East,US,07102-1814",
  "InstitutionName": "RUBIC",
  "InstitutionalDepartmentName": "Department",
  "MRAcquisitionType": "2D",
  "MagneticFieldStrength": 3,
  "Manufacturer": "Siemens",
  "ManufacturersModelName": "TrioTim",
  "Modality": "MR",
  "MultibandAccelerationFactor": 8,
  "PartialFourier": 0.875,
  "PatientPosition": "HFS",
  "PercentPhaseFOV": 100,
  "PercentSampling": 100,
  "PhaseEncodingDirection": "j-",
  "PhaseEncodingSteps": 91,
  "PhaseResolution": 1,
  "PixelBandwidth": 1923,
  "ProcedureStepDescription": "Cole^Michael",
  "ProtocolName": "cmrr_mbep2d_bold_2mm_MB8_Task_8x",
  "PulseSequenceDetails": "%CustomerSeq%\\cmrr_mbep2d_bold",
  "ReceiveCoilName": "32Ch_Head",
  "ReconMatrixPE": 104,
  "RepetitionTime": 0.785,
  "SAR": 0.122387,
  "ScanOptions": "PFP\\FS",
  "ScanningSequence": "EP",
  "SequenceName": "epfid2d1_104",
  "SequenceVariant": "SK\\SS",
  "SeriesDescription": "cmrr_mbep2d_bold_2mm_MB8_Task_8x",
  "SeriesNumber": 19,
  "ShimSetting": [2131, -432, -7335, 727, -145, -395, 180, -29],
  "SliceThickness": 2,
  "SliceTiming": [0, 0.4375, 0.0875, 0.525, 0.175, 0.6125, 0.2625, 0.7, 0.35, 0, 0.4375, 0.0875, 0.525, 0.175, 0.6125, 0.2625, 0.7, 0.35, 0, 0.4375, 0.0875, 0.525, 0.175, 0.6125, 0.2625, 0.7, 0.35, 0, 0.4375, 0.0875, 0.525, 0.175, 0.6125, 0.2625, 0.7, 0.35, 0, 0.4375, 0.0875, 0.525, 0.175, 0.6125, 0.2625, 0.7, 0.35, 0, 0.4375, 0.0875, 0.525, 0.175, 0.6125, 0.2625, 0.7, 0.35, 0, 0.4375, 0.0875, 0.525, 0.175, 0.6125, 0.2625, 0.7, 0.35, 0, 0.4375, 0.0875, 0.525, 0.175, 0.6125, 0.2625, 0.7, 0.35],
  "SoftwareVersions": "syngo MR B19",
  "SpacingBetweenSlices": 2,
  "StationName": "MRC35450",
  "TaskName": "cpro",
  "TotalReadoutTime": 0.0710717,
  "TxRefAmp": 322.289,
  "dcmmeta_affine": [
    [-1.9989092350006104, -4.9922274314440074e-08, 0.06604553759098053, 101.6417236328125],
    [-0.0023032010067254305, 1.9987835884094238, -0.06970629841089249, -82.3194351196289],
    [0.06600537151098251, 0.06974433362483978, 1.997693419456482, -97.9209213256836],
    [0.0, 0.0, 0.0, 1.0]
],
  "dcmmeta_reorient_transform": [
    [0.0, -1.0, 0.0, 103.0],
    [1.0, 0.0, 0.0, 0.0],
    [0.0, 0.0, 1.0, 0.0],
    [0.0, 0.0, 0.0, 1.0]
],
  "dcmmeta_shape": [104, 104, 72, 581],
  "dcmmeta_slice_dim": 2,
  "dcmmeta_version": 0.6,
  "global": {
    "const": {
      "AcquisitionMatrix": [104, 0, 0, 104],
      "AngioFlag": "N",
      "BitsAllocated": 16,
      "BitsStored": 12,
      "Columns": 936,
      "EchoNumbers": 1,
      "EchoTime": 34.8,
      "EchoTrainLength": 1,
      "FlipAngle": 55.0,
      "HighBit": 11,
      "ImageOrientationPatient": [0.99945459959621, 0.00115160049858, 0.0330026841677, -2.4961138e-08, 0.9993917810065, -0.034872167364],
      "ImagePositionPatient": [-933.18792789381, -956.00736340479, -89.181842500236],
      "ImageType": [
        "ORIGINAL",
        "PRIMARY",
        "M",
        "MB",
        "ND",
        "MOSAIC"
],
      "ImagedNucleus": "1H",
      "ImagingFrequency": 123.234906,
      "InPlanePhaseEncodingDirection": "COL",
      "MRAcquisitionType": "2D",
      "MagneticFieldStrength": 3.0,
      "Manufacturer": "SIEMENS",
      "ManufacturerModelName": "TrioTim",
      "Modality": "MR",
      "NumberOfAverages": 1.0,
      "NumberOfPhaseEncodingSteps": 91,
      "PercentPhaseFieldOfView": 100.0,
      "PercentSampling": 100.0,
      "PerformedProcedureStepStartTime": "145138.734000",
      "PhotometricInterpretation": "MONOCHROME2",
      "PixelBandwidth": 1923.0,
      "PixelRepresentation": 0,
      "PixelSpacing": [2.0, 2.0],
      "ProtocolName": "cmrr_mbep2d_bold_2mm_MB8_Task_8x",
      "RepetitionTime": 785.0,
      "Rows": 936,
      "SAR": 0.12238748232834,
      "SamplesPerPixel": 1,
      "ScanOptions": [
        "PFP",
        "FS"
],
      "ScanningSequence": "EP",
      "SequenceName": "epfid2d1_104",
      "SequenceVariant": [
        "SK",
        "SS"
],
      "SeriesDescription": "cmrr_mbep2d_bold_2mm_MB8_Task_8x",
      "SeriesNumber": 19,
      "SeriesTime": "171748.671000",
      "SliceLocation": -91.582405172427,
      "SliceThickness": 2.0,
      "SmallestImagePixelValue": 0,
      "SoftwareVersions": "syngo MR B19",
      "SpacingBetweenSlices": 2.0000000266374,
      "SpecificCharacterSet": "ISO_IR 100",
      "StudyID": "1",
      "StudyTime": "145138.703000",
      "TransmitCoilName": "Body",
      "VariableFlipAngleFlag": "N",
      "WindowCenterWidthExplanation": "Algo1",
      "dBdt": 0.0},
    "slices": {}
  },
  "time": {
    "samples": {
      "AcquisitionNumber": [1, 2, 3, 4, 5, 6, 7, 8, 9, 10, 11, 12, 13, 14, 15, 16, 17, 18, 19, 20, 21, 22, 23, 24, 25, 26, 27, 28, 29, 30, 31, 32, 33, 34, 35, 36, 37, 38, 39, 40, 41, 42, 43, 44, 45, 46, 47, 48, 49, 50, 51, 52, 53, 54, 55, 56, 57, 58, 59, 60, 61, 62, 63, 64, 65, 66, 67, 68, 69, 70, 71, 72, 73, 74, 75, 76, 77, 78, 79, 80, 81, 82, 83, 84, 85, 86, 87, 88, 89, 90, 91, 92, 93, 94, 95, 96, 97, 98, 99, 100, 101, 102, 103, 104, 105, 106, 107, 108, 109, 110, 111, 112, 113, 114, 115, 116, 117, 118, 119, 120, 121, 122, 123, 124, 125, 126, 127, 128, 129, 130, 131, 132, 133, 134, 135, 136, 137, 138, 139, 140, 141, 142, 143, 144, 145, 146, 147, 148, 149, 150, 151, 152, 153, 154, 155, 156, 157, 158, 159, 160, 161, 162, 163, 164, 165, 166, 167, 168, 169, 170, 171, 172, 173, 174, 175, 176, 177, 178, 179, 180, 181, 182, 183, 184, 185, 186, 187, 188, 189, 190, 191, 192, 193, 194, 195, 196, 197, 198, 199, 200, 201, 202, 203, 204, 205, 206, 207, 208, 209, 210, 211, 212, 213, 214, 215, 216, 217, 218, 219, 220, 221, 222, 223, 224, 225, 226, 227, 228, 229, 230, 231, 232, 233, 234, 235, 236, 237, 238, 239, 240, 241, 242, 243, 244, 245, 246, 247, 248, 249, 250, 251, 252, 253, 254, 255, 256, 257, 258, 259, 260, 261, 262, 263, 264, 265, 266, 267, 268, 269, 270, 271, 272, 273, 274, 275, 276, 277, 278, 279, 280, 281, 282, 283, 284, 285, 286, 287, 288, 289, 290, 291, 292, 293, 294, 295, 296, 297, 298, 299, 300, 301, 302, 303, 304, 305, 306, 307, 308, 309, 310, 311, 312, 313, 314, 315, 316, 317, 318, 319, 320, 321, 322, 323, 324, 325, 326, 327, 328, 329, 330, 331, 332, 333, 334, 335, 336, 337, 338, 339, 340, 341, 342, 343, 344, 345, 346, 347, 348, 349, 350, 351, 352, 353, 354, 355, 356, 357, 358, 359, 360, 361, 362, 363, 364, 365, 366, 367, 368, 369, 370, 371, 372, 373, 374, 375, 376, 377, 378, 379, 380, 381, 382, 383, 384, 385, 386, 387, 388, 389, 390, 391, 392, 393, 394, 395, 396, 397, 398, 399, 400, 401, 402, 403, 404, 405, 406, 407, 408, 409, 410, 411, 412, 413, 414, 415, 416, 417, 418, 419, 420, 421, 422, 423, 424, 425, 426, 427, 428, 429, 430, 431, 432, 433, 434, 435, 436, 437, 438, 439, 440, 441, 442, 443, 444, 445, 446, 447, 448, 449, 450, 451, 452, 453, 454, 455, 456, 457, 458, 459, 460, 461, 462, 463, 464, 465, 466, 467, 468, 469, 470, 471, 472, 473, 474, 475, 476, 477, 478, 479, 480, 481, 482, 483, 484, 485, 486, 487, 488, 489, 490, 491, 492, 493, 494, 495, 496, 497, 498, 499, 500, 501, 502, 503, 504, 505, 506, 507, 508, 509, 510, 511, 512, 513, 514, 515, 516, 517, 518, 519, 520, 521, 522, 523, 524, 525, 526, 527, 528, 529, 530, 531, 532, 533, 534, 535, 536, 537, 538, 539, 540, 541, 542, 543, 544, 545, 546, 547, 548, 549, 550, 551, 552, 553, 554, 555, 556, 557, 558, 559, 560, 561, 562, 563, 564, 565, 566, 567, 568, 569, 570, 571, 572, 573, 574, 575, 576, 577, 578, 579, 580, 581],
      "AcquisitionTime": ["160817.725000", "160818.512500", "160819.300000", "160820.087500", "160820.877500", "160821.665000", "160822.452500", "160823.240000", "160824.030000", "160824.817500", "160825.605000", "160826.392500", "160827.182500", "160827.970000", "160828.757500", "160829.547500", "160830.335000", "160831.122500", "160831.910000", "160832.700000", "160833.487500", "160834.275000", "160835.062500", "160835.852500", "160836.640000", "160837.427500", "160838.215000", "160839.005000", "160839.792500", "160840.580000", "160841.367500", "160842.157500", "160842.945000", "160843.732500", "160844.520000", "160845.310000", "160846.097500", "160846.885000", "160847.675000", "160848.462500", "160849.250000", "160850.037500", "160850.827500", "160851.615000", "160852.402500", "160853.190000", "160853.980000", "160854.767500", "160855.555000", "160856.342500", "160857.132500", "160857.920000", "160858.707500", "160859.495000", "160900.285000", "160901.072500", "160901.860000", "160902.650000", "160903.437500", "160904.225000", "160905.012500", "160905.802500", "160906.590000", "160907.377500", "160908.165000", "160908.955000", "160909.742500", "160910.530000", "160911.317500", "160912.107500", "160912.895000", "160913.682500", "160914.470000", "160915.260000", "160916.047500", "160916.835000", "160917.622500", "160918.412500", "160919.200000", "160919.987500", "160920.777500", "160921.565000", "160922.352500", "160923.140000", "160923.930000", "160924.717500", "160925.505000", "160926.292500", "160927.082500", "160927.870000", "160928.657500", "160929.445000", "160930.235000", "160931.022500", "160931.810000", "160932.597500", "160933.387500", "160934.175000", "160934.962500", "160935.750000", "160936.540000", "160937.327500", "160938.115000", "160938.905000", "160939.692500", "160940.480000", "160941.267500", "160942.057500", "160942.845000", "160943.632500", "160944.420000", "160945.210000", "160945.997500", "160946.785000", "160947.572500", "160948.362500", "160949.150000", "160949.937500", "160950.725000", "160951.515000", "160952.302500", "160953.090000", "160953.877500", "160954.667500", "160955.455000", "160956.242500", "160957.032500", "160957.820000", "160958.607500", "160959.395000", "161000.185000", "161000.972500", "161001.760000", "161002.547500", "161003.337500", "161004.125000", "161004.912500", "161005.700000", "161006.490000", "161007.277500", "161008.065000", "161008.852500", "161009.642500", "161010.430000", "161011.217500", "161012.005000", "161012.795000", "161013.582500", "161014.370000", "161015.160000", "161015.947500", "161016.735000", "161017.522500", "161018.312500", "161019.100000", "161019.887500", "161020.675000", "161021.465000", "161022.252500", "161023.040000", "161023.827500", "161024.617500", "161025.405000", "161026.192500", "161026.980000", "161027.770000", "161028.557500", "161029.345000", "161030.132500", "161030.922500", "161031.710000", "161032.497500", "161033.287500", "161034.075000", "161034.862500", "161035.650000", "161036.440000", "161037.227500", "161038.015000", "161038.802500", "161039.592500", "161040.380000", "161041.167500", "161041.955000", "161042.745000", "161043.532500", "161044.320000", "161045.107500", "161045.897500", "161046.685000", "161047.472500", "161048.260000", "161049.050000", "161049.837500", "161050.625000", "161051.415000", "161052.202500", "161052.990000", "161053.777500", "161054.567500", "161055.355000", "161056.142500", "161056.930000", "161057.720000", "161058.507500", "161059.295000", "161100.082500", "161100.872500", "161101.660000", "161102.447500", "161103.235000", "161104.025000", "161104.812500", "161105.600000", "161106.387500", "161107.177500", "161107.965000", "161108.752500", "161109.542500", "161110.330000", "161111.117500", "161111.905000", "161112.695000", "161113.482500", "161114.270000", "161115.057500", "161115.847500", "161116.635000", "161117.422500", "161118.210000", "161119.000000", "161119.787500", "161120.575000", "161121.362500", "161122.152500", "161122.940000", "161123.727500", "161124.515000", "161125.305000", "161126.092500", "161126.880000", "161127.670000", "161128.457500", "161129.245000", "161130.032500", "161130.822500", "161131.610000", "161132.397500", "161133.185000", "161133.975000", "161134.762500", "161135.550000", "161136.337500", "161137.127500", "161137.915000", "161138.702500", "161139.490000", "161140.280000", "161141.067500", "161141.855000", "161142.642500", "161143.432500", "161144.220000", "161145.007500", "161145.797500", "161146.585000", "161147.372500", "161148.160000", "161148.950000", "161149.737500", "161150.525000", "161151.312500", "161152.102500", "161152.890000", "161153.677500", "161154.465000", "161155.255000", "161156.042500", "161156.830000", "161157.617500", "161158.407500", "161159.195000", "161159.982500", "161200.770000", "161201.560000", "161202.347500", "161203.135000", "161203.925000", "161204.712500", "161205.500000", "161206.287500", "161207.077500", "161207.865000", "161208.652500", "161209.440000", "161210.230000", "161211.017500", "161211.805000", "161212.592500", "161213.382500", "161214.170000", "161214.957500", "161215.745000", "161216.535000", "161217.322500", "161218.110000", "161218.900000", "161219.687500", "161220.475000", "161221.262500", "161222.052500", "161222.840000", "161223.627500", "161224.415000", "161225.205000", "161225.992500", "161226.780000", "161227.567500", "161228.357500", "161229.145000", "161229.932500", "161230.720000", "161231.510000", "161232.297500", "161233.085000", "161233.872500", "161234.662500", "161235.450000", "161236.237500", "161237.027500", "161237.815000", "161238.602500", "161239.390000", "161240.180000", "161240.967500", "161241.755000", "161242.542500", "161243.332500", "161244.120000", "161244.907500", "161245.695000", "161246.485000", "161247.272500", "161248.060000", "161248.847500", "161249.637500", "161250.425000", "161251.212500", "161252.000000", "161252.790000", "161253.577500", "161254.365000", "161255.155000", "161255.942500", "161256.730000", "161257.517500", "161258.307500", "161259.095000", "161259.882500", "161300.670000", "161301.460000", "161302.247500", "161303.035000", "161303.822500", "161304.612500", "161305.400000", "161306.187500", "161306.975000", "161307.765000", "161308.552500", "161309.340000", "161310.127500", "161310.917500", "161311.705000", "161312.492500", "161313.282500", "161314.070000", "161314.857500", "161315.645000", "161316.435000", "161317.222500", "161318.010000", "161318.797500", "161319.587500", "161320.375000", "161321.162500", "161321.950000", "161322.740000", "161323.527500", "161324.315000", "161325.102500", "161325.892500", "161326.680000", "161327.467500", "161328.255000", "161329.045000", "161329.832500", "161330.620000", "161331.410000", "161332.197500", "161332.985000", "161333.772500", "161334.562500", "161335.350000", "161336.137500", "161336.925000", "161337.715000", "161338.502500", "161339.290000", "161340.077500", "161340.867500", "161341.655000", "161342.442500", "161343.230000", "161344.020000", "161344.807500", "161345.595000", "161346.382500", "161347.172500", "161347.960000", "161348.747500", "161349.537500", "161350.325000", "161351.112500", "161351.900000", "161352.690000", "161353.477500", "161354.265000", "161355.052500", "161355.842500", "161356.630000", "161357.417500", "161358.205000", "161358.995000", "161359.782500", "161400.570000", "161401.357500", "161402.147500", "161402.935000", "161403.722500", "161404.510000", "161405.300000", "161406.087500", "161406.875000", "161407.665000", "161408.452500", "161409.240000", "161410.027500", "161410.817500", "161411.605000", "161412.392500", "161413.180000", "161413.970000", "161414.757500", "161415.545000", "161416.332500", "161417.122500", "161417.910000", "161418.697500", "161419.485000", "161420.275000", "161421.062500", "161421.850000", "161422.637500", "161423.427500", "161424.215000", "161425.002500", "161425.792500", "161426.580000", "161427.367500", "161428.155000", "161428.945000", "161429.732500", "161430.520000", "161431.307500", "161432.097500", "161432.885000", "161433.672500", "161434.460000", "161435.250000", "161436.037500", "161436.825000", "161437.612500", "161438.402500", "161439.190000", "161439.977500", "161440.765000", "161441.555000", "161442.342500", "161443.130000", "161443.920000", "161444.707500", "161445.495000", "161446.282500", "161447.072500", "161447.860000", "161448.647500", "161449.435000", "161450.225000", "161451.012500", "161451.800000", "161452.587500", "161453.377500", "161454.165000", "161454.952500", "161455.740000", "161456.530000", "161457.317500", "161458.105000", "161458.892500", "161459.682500", "161500.470000", "161501.257500", "161502.047500", "161502.835000", "161503.622500", "161504.410000", "161505.200000", "161505.987500", "161506.775000", "161507.562500", "161508.352500", "161509.140000", "161509.927500", "161510.715000", "161511.505000", "161512.292500", "161513.080000", "161513.867500", "161514.657500", "161515.445000", "161516.232500", "161517.020000", "161517.810000", "161518.597500", "161519.385000", "161520.175000", "161520.962500", "161521.750000", "161522.537500", "161523.327500", "161524.115000", "161524.902500", "161525.690000", "161526.480000", "161527.267500", "161528.055000", "161528.842500", "161529.632500", "161530.420000", "161531.207500", "161531.995000", "161532.785000", "161533.572500", "161534.360000", "161535.150000", "161535.937500", "161536.725000", "161537.512500", "161538.302500", "161539.090000", "161539.877500", "161540.665000", "161541.455000", "161542.242500", "161543.030000", "161543.817500", "161544.607500", "161545.395000", "161546.182500", "161546.970000", "161547.760000", "161548.547500", "161549.335000", "161550.122500", "161550.912500", "161551.700000", "161552.487500", "161553.277500", "161554.065000", "161554.852500"],
      "ContentTime": ["171748.671000", "171748.671000", "171748.671000", "171748.671000", "171748.687000", "171748.687000", "171748.687000", "171748.687000", "171748.687000", "171808.640000", "171808.640000", "171808.656000", "171808.656000", "171808.656000", "171808.656000", "171808.656000", "171808.656000", "171808.656000", "171908.640000", "171908.640000", "171908.656000", "171908.656000", "171908.656000", "171908.656000", "171908.656000", "171908.656000", "171908.656000", "171908.671000", "171908.671000", "171908.671000", "171908.671000", "171908.671000", "171908.671000", "171908.671000", "171908.687000", "171908.687000", "171908.687000", "171908.687000", "171908.687000", "171908.687000", "171908.687000", "171908.703000", "171908.703000", "171908.703000", "171908.703000", "171908.703000", "172008.640000", "172008.640000", "172008.656000", "172008.656000", "172008.656000", "172008.656000", "172008.656000", "172008.656000", "172008.671000", "172008.671000", "172008.671000", "172008.671000", "172008.671000", "172008.687000", "172008.687000", "172008.687000", "172008.687000", "172008.687000", "172008.687000", "172008.687000", "172008.703000", "172008.703000", "172008.703000", "172008.703000", "172008.703000", "172008.703000", "172008.703000", "172008.718000", "172008.718000", "172108.640000", "172108.640000", "172108.656000", "172108.656000", "172108.656000", "172108.656000", "172108.656000", "172108.656000", "172108.671000", "172108.671000", "172108.671000", "172108.671000", "172108.671000", "172108.687000", "172108.687000", "172108.687000", "172108.687000", "172108.687000", "172108.687000", "172108.687000", "172108.703000", "172108.703000", "172108.703000", "172108.703000", "172108.703000", "172108.703000", "172108.703000", "172108.718000", "172208.640000", "172208.640000", "172208.656000", "172208.656000", "172208.656000", "172208.656000", "172208.656000", "172208.656000", "172208.656000", "172208.671000", "172208.671000", "172208.671000", "172208.671000", "172208.671000", "172208.671000", "172208.671000", "172208.687000", "172208.687000", "172208.687000", "172208.687000", "172208.687000", "172208.687000", "172208.687000", "172208.703000", "172208.703000", "172208.703000", "172208.703000", "172208.703000", "172308.640000", "172308.640000", "172308.656000", "172308.656000", "172308.656000", "172308.656000", "172308.656000", "172308.656000", "172308.656000", "172308.671000", "172308.671000", "172308.671000", "172308.671000", "172308.671000", "172308.671000", "172308.671000", "172308.687000", "172308.687000", "172308.687000", "172308.687000", "172308.687000", "172308.687000", "172308.687000", "172308.703000", "172308.703000", "172308.703000", "172308.703000", "172308.703000", "172408.640000", "172408.640000", "172408.656000", "172408.656000", "172408.656000", "172408.656000", "172408.656000", "172408.656000", "172408.656000", "172408.671000", "172408.671000", "172408.671000", "172408.671000", "172408.671000", "172408.671000", "172408.671000", "172408.687000", "172408.687000", "172408.687000", "172408.687000", "172408.687000", "172408.687000", "172408.703000", "172408.703000", "172408.703000", "172408.703000", "172408.703000", "172408.703000", "172508.640000", "172508.640000", "172508.656000", "172508.656000", "172508.656000", "172508.656000", "172508.656000", "172508.656000", "172508.656000", "172508.671000", "172508.671000", "172508.671000", "172508.671000", "172508.671000", "172508.671000", "172508.687000", "172508.687000", "172508.687000", "172508.687000", "172508.687000", "172508.687000", "172508.687000", "172508.703000", "172508.703000", "172508.703000", "172508.703000", "172508.703000", "172508.703000", "172508.703000", "172608.640000", "172608.640000", "172608.656000", "172608.656000", "172608.656000", "172608.656000", "172608.656000", "172608.656000", "172608.656000", "172608.671000", "172608.671000", "172608.671000", "172608.671000", "172608.671000", "172608.671000", "172608.671000", "172608.687000", "172608.687000", "172608.687000", "172608.687000", "172608.687000", "172608.687000", "172608.687000", "172608.703000", "172608.703000", "172608.703000", "172608.703000", "172608.703000", "172708.640000", "172708.640000", "172708.656000", "172708.656000", "172708.656000", "172708.656000", "172708.656000", "172708.656000", "172708.656000", "172708.671000", "172708.671000", "172708.671000", "172708.671000", "172708.671000", "172708.671000", "172708.687000", "172708.687000", "172708.687000", "172708.687000", "172708.687000", "172708.687000", "172708.687000", "172708.703000", "172708.703000", "172708.703000", "172708.703000", "172708.703000", "172708.703000", "172808.640000", "172808.640000", "172808.656000", "172808.656000", "172808.656000", "172808.656000", "172808.656000", "172808.656000", "172808.656000", "172808.671000", "172808.671000", "172808.671000", "172808.671000", "172808.671000", "172808.671000", "172808.671000", "172808.687000", "172808.687000", "172808.687000", "172808.687000", "172808.687000", "172808.687000", "172808.687000", "172808.703000", "172808.703000", "172808.703000", "172808.703000", "172808.703000", "172828.640000", "172828.640000", "172828.656000", "172828.656000", "172828.656000", "172828.656000", "172828.656000", "172828.656000", "172828.671000", "172828.671000", "172928.640000", "172928.640000", "172928.656000", "172928.656000", "172928.656000", "172928.656000", "172928.656000", "172928.656000", "172928.656000", "172928.671000", "172928.671000", "172928.671000", "172928.671000", "172928.671000", "172928.671000", "172928.671000", "172928.687000", "172928.687000", "172928.687000", "172928.687000", "172928.687000", "172928.687000", "172928.703000", "172928.703000", "172928.703000", "172928.703000", "172928.718000", "172928.718000", "173028.640000", "173028.640000", "173028.656000", "173028.656000", "173028.656000", "173028.656000", "173028.656000", "173028.656000", "173028.656000", "173028.671000", "173028.671000", "173028.671000", "173028.671000", "173028.671000", "173028.671000", "173028.671000", "173028.687000", "173028.687000", "173028.687000", "173028.687000", "173028.687000", "173028.687000", "173028.703000", "173028.703000", "173028.703000", "173028.703000", "173028.703000", "173028.703000", "173128.640000", "173128.640000", "173128.656000", "173128.656000", "173128.656000", "173128.656000", "173128.656000", "173128.656000", "173128.656000", "173128.671000", "173128.671000", "173128.671000", "173128.671000", "173128.671000", "173128.671000", "173128.671000", "173128.687000", "173128.687000", "173128.687000", "173128.687000", "173128.687000", "173128.687000", "173128.703000", "173128.703000", "173128.703000", "173128.703000", "173128.703000", "173128.703000", "173228.640000", "173228.640000", "173228.656000", "173228.656000", "173228.656000", "173228.656000", "173228.656000", "173228.656000", "173228.656000", "173228.671000", "173228.671000", "173228.671000", "173228.671000", "173228.687000", "173228.687000", "173228.687000", "173228.687000", "173228.687000", "173228.687000", "173228.687000", "173228.703000", "173228.703000", "173228.703000", "173228.703000", "173228.703000", "173228.703000", "173228.718000", "173228.718000", "173328.640000", "173328.640000", "173328.656000", "173328.656000", "173328.656000", "173328.656000", "173328.656000", "173328.656000", "173328.656000", "173328.671000", "173328.671000", "173328.671000", "173328.671000", "173328.671000", "173328.671000", "173328.671000", "173328.687000", "173328.687000", "173328.687000", "173328.687000", "173328.687000", "173328.687000", "173328.703000", "173328.703000", "173328.703000", "173328.703000", "173328.703000", "173328.703000", "173328.703000", "173428.640000", "173428.640000", "173428.656000", "173428.656000", "173428.656000", "173428.656000", "173428.656000", "173428.656000", "173428.656000", "173428.671000", "173428.671000", "173428.671000", "173428.671000", "173428.671000", "173428.671000", "173428.687000", "173428.687000", "173428.687000", "173428.687000", "173428.687000", "173428.687000", "173428.703000", "173428.703000", "173428.703000", "173428.703000", "173428.703000", "173428.703000", "173428.718000", "173528.640000", "173528.640000", "173528.656000", "173528.656000", "173528.656000", "173528.656000", "173528.656000", "173528.656000", "173528.656000", "173528.671000", "173528.671000", "173528.671000", "173528.671000", "173528.671000", "173528.671000", "173528.671000", "173528.687000", "173528.687000", "173528.687000", "173528.687000", "173528.687000", "173528.687000", "173528.687000", "173528.703000", "173528.703000", "173528.703000", "173528.703000", "173528.703000", "173628.640000", "173628.640000", "173628.656000", "173628.656000", "173628.656000", "173628.656000", "173628.656000", "173628.656000", "173628.656000", "173628.671000", "173628.671000", "173628.671000", "173628.671000", "173628.671000", "173628.671000", "173628.671000", "173628.687000", "173628.687000", "173628.687000", "173628.687000", "173628.687000", "173628.703000", "173628.703000", "173628.703000", "173628.703000", "173628.703000", "173628.703000", "173628.718000", "173728.640000", "173728.640000", "173728.656000", "173728.656000", "173728.656000", "173728.656000", "173728.656000", "173728.656000", "173728.656000", "173728.671000", "173728.671000", "173728.671000", "173728.671000", "173728.671000", "173728.671000", "173728.671000", "173728.687000", "173728.687000", "173728.687000", "173728.687000", "173728.687000", "173728.687000", "173728.687000", "173728.703000", "173728.703000", "173728.703000", "173728.703000", "173728.703000", "173728.703000", "173804.140000", "173804.140000", "173804.140000", "173804.140000", "173804.140000", "173804.156000", "173804.156000", "173804.156000", "173804.156000", "173804.156000", "173804.156000", "173804.171000", "173804.171000", "173804.171000", "173804.171000", "173804.171000", "173804.171000"],
      "DataSetTrailingPadding": [
        "\u0000\u0000\u0000\u0000\u0000\u0000\u0000\u0000\u0000\u0000\u0000\u0000\u0000\u0000\u0000\u0000\u0000\u0000\u0000\u0000\u0000\u0000\u0000\u0000\u0000\u0000\u0000\u0000\u0000\u0000\u0000\u0000\u0000\u0000\u0000\u0000\u0000\u0000\u0000\u0000\u0000\u0000\u0000\u0000\u0000\u0000\u0000\u0000\u0000\u0000\u0000\u0000\u0000\u0000\u0000\u0000\u0000\u0000\u0000\u0000\u0000\u0000\u0000\u0000\u0000\u0000\u0000\u0000\u0000\u0000\u0000\u0000\u0000\u0000\u0000\u0000\u0000\u0000\u0000\u0000\u0000\u0000\u0000\u0000\u0000\u0000\u0000\u0000\u0000\u0000\u0000\u0000\u0000\u0000\u0000\u0000\u0000\u0000\u0000\u0000",
        "\u0000\u0000\u0000\u0000\u0000\u0000\u0000\u0000\u0000\u0000\u0000\u0000\u0000\u0000\u0000\u0000\u0000\u0000\u0000\u0000\u0000\u0000\u0000\u0000\u0000\u0000\u0000\u0000\u0000\u0000\u0000\u0000\u0000\u0000\u0000\u0000\u0000\u0000\u0000\u0000\u0000\u0000\u0000\u0000\u0000\u0000\u0000\u0000\u0000\u0000\u0000\u0000\u0000\u0000\u0000\u0000\u0000\u0000\u0000\u0000\u0000\u0000\u0000\u0000\u0000\u0000\u0000\u0000\u0000\u0000\u0000\u0000\u0000\u0000\u0000\u0000\u0000\u0000\u0000\u0000\u0000\u0000\u0000\u0000\u0000\u0000\u0000\u0000\u0000\u0000\u0000\u0000\u0000\u0000\u0000\u0000",
        "\u0000\u0000\u0000\u0000\u0000\u0000\u0000\u0000\u0000\u0000\u0000\u0000\u0000\u0000\u0000\u0000\u0000\u0000\u0000\u0000\u0000\u0000\u0000\u0000\u0000\u0000\u0000\u0000\u0000\u0000\u0000\u0000\u0000\u0000\u0000\u0000\u0000\u0000\u0000\u0000\u0000\u0000\u0000\u0000\u0000\u0000\u0000\u0000\u0000\u0000\u0000\u0000\u0000\u0000\u0000\u0000\u0000\u0000\u0000\u0000\u0000\u0000\u0000\u0000\u0000\u0000\u0000\u0000\u0000\u0000\u0000\u0000\u0000\u0000\u0000\u0000\u0000\u0000\u0000\u0000\u0000\u0000\u0000\u0000\u0000\u0000\u0000\u0000\u0000\u0000\u0000\u0000\u0000\u0000\u0000\u0000\u0000\u0000",
