{
  "AcquisitionMatrixPE": 104,
  "AcquisitionNumber": 1,
  "AcquisitionTime": "15:18:57.607500",
  "BandwidthPerPixelPhaseEncode": 13.935,
  "BaseResolution": 104,
  "CoilString": "C:HEA;HEP",
  "ConversionSoftware": "dcm2niix",
  "ConversionSoftwareVersion": "v1.0.20210317",
  "DerivedVendorReportedEchoSpacing": 0.000690017,
  "DeviceSerialNumber": "35450",
  "DwellTime": 2.5e-06,
  "EchoTime": 0.0348,
  "EffectiveEchoSpacing": 0.000690017,
  "FlipAngle": 55,
  "ImageComments": "Unaliased MB8/PE3 (remote)",
  "ImageOrientationPatientDICOM": [0.999658, 0.000912558, 0.0261313, 4.30659e-08, 0.999391, -0.0349024],
  "ImageType": [
    "ORIGINAL",
    "PRIMARY",
    "M",
    "MB",
    "ND",
    "MOSAIC"
],
  "ImagingFrequency": 123.234,
  "InPlanePhaseEncodingDirectionDICOM": "COL",
  "InstitutionAddress": "Univeristy Ave. 197,Newark,North East,US,07102-1814",
  "InstitutionName": "RUBIC",
  "InstitutionalDepartmentName": "Department",
  "MRAcquisitionType": "2D",
  "MagneticFieldStrength": 3,
  "Manufacturer": "Siemens",
  "ManufacturersModelName": "TrioTim",
  "Modality": "MR",
  "MultibandAccelerationFactor": 8,
  "PartialFourier": 0.875,
  "PatientPosition": "HFS",
  "PercentPhaseFOV": 100,
  "PercentSampling": 100,
  "PhaseEncodingDirection": "j-",
  "PhaseEncodingSteps": 91,
  "PhaseResolution": 1,
  "PixelBandwidth": 1923,
  "ProcedureStepDescription": "Cole^Michael",
  "ProtocolName": "cmrr_mbep2d_bold_2mm_MB8_Rest",
  "PulseSequenceDetails": "%CustomerSeq%\\cmrr_mbep2d_bold",
  "ReceiveCoilName": "32Ch_Head",
  "ReconMatrixPE": 104,
  "RepetitionTime": 0.785,
  "SAR": 0.151454,
  "ScanOptions": "PFP\\FS",
  "ScanningSequence": "EP",
  "SequenceName": "epfid2d1_104",
  "SequenceVariant": "SK\\SS",
  "SeriesDescription": "cmrr_mbep2d_bold_2mm_MB8_Rest",
  "SeriesNumber": 9,
  "ShimSetting": [2150, -340, -7322, 618, -60, -372, 126, 24],
  "SliceThickness": 2,
  "SliceTiming": [0, 0.4375, 0.0875, 0.525, 0.175, 0.6125, 0.2625, 0.7, 0.35, 0, 0.4375, 0.0875, 0.525, 0.175, 0.6125, 0.2625, 0.7, 0.35, 0, 0.4375, 0.0875, 0.525, 0.175, 0.6125, 0.2625, 0.7, 0.35, 0, 0.4375, 0.0875, 0.525, 0.175, 0.6125, 0.2625, 0.7, 0.35, 0, 0.4375, 0.0875, 0.525, 0.175, 0.6125, 0.2625, 0.7, 0.35, 0, 0.4375, 0.0875, 0.525, 0.175, 0.6125, 0.2625, 0.7, 0.35, 0, 0.4375, 0.0875, 0.525, 0.175, 0.6125, 0.2625, 0.7, 0.35, 0, 0.4375, 0.0875, 0.525, 0.175, 0.6125, 0.2625, 0.7, 0.35],
  "SoftwareVersions": "syngo MR B19",
  "SpacingBetweenSlices": 2,
  "StationName": "MRC35450",
  "TaskName": "rest",
  "TotalReadoutTime": 0.0710717,
  "TxRefAmp": 322.77,
  "dcmmeta_affine": [
    [-1.9993162155151367, 8.613184121486483e-08, 0.052294399589300156, 105.27387237548828],
    [-0.001825116341933608, 1.998781442642212, -0.06978103518486023, -87.05563354492188],
    [0.05226253718137741, 0.06980489194393158, 1.9980981349945068, -96.70436096191406],
    [0.0, 0.0, 0.0, 1.0]
],
  "dcmmeta_reorient_transform": [
    [0.0, -1.0, 0.0, 103.0],
    [1.0, 0.0, 0.0, 0.0],
    [0.0, 0.0, 1.0, 0.0],
    [0.0, 0.0, 0.0, 1.0]
],
  "dcmmeta_shape": [104, 104, 72, 1070],
  "dcmmeta_slice_dim": 2,
  "dcmmeta_version": 0.6,
  "global": {
    "const": {
      "AcquisitionMatrix": [104, 0, 0, 104],
      "AngioFlag": "N",
      "BitsAllocated": 16,
      "BitsStored": 12,
      "Columns": 936,
      "EchoNumbers": 1,
      "EchoTime": 34.8,
      "EchoTrainLength": 1,
      "FlipAngle": 55.0,
      "HighBit": 11,
      "ImageOrientationPatient": [0.99965810356638, 0.00091255818684, 0.02613126884819, 4.306592e-08, 0.99939072397178, -0.0349024474665],
      "ImagePositionPatient": [-936.98945823123, -951.07118842279, -82.21683544361],
      "ImageType": [
        "ORIGINAL",
        "PRIMARY",
        "M",
        "MB",
        "ND",
        "MOSAIC"
],
      "ImagedNucleus": "1H",
      "ImagingFrequency": 123.234341,
      "InPlanePhaseEncodingDirection": "COL",
      "MRAcquisitionType": "2D",
      "MagneticFieldStrength": 3.0,
      "Manufacturer": "SIEMENS",
      "ManufacturerModelName": "TrioTim",
      "Modality": "MR",
      "NumberOfAverages": 1.0,
      "NumberOfPhaseEncodingSteps": 91,
      "PercentPhaseFieldOfView": 100.0,
      "PercentSampling": 100.0,
      "PerformedProcedureStepStartTime": "144239.500000",
      "PhotometricInterpretation": "MONOCHROME2",
      "PixelBandwidth": 1923.0,
      "PixelRepresentation": 0,
      "PixelSpacing": [2.0, 2.0],
      "ProtocolName": "cmrr_mbep2d_bold_2mm_MB8_Rest",
      "RepetitionTime": 785.0,
      "Rows": 936,
      "SAR": 0.15145437020072,
      "SamplesPerPixel": 1,
      "ScanOptions": [
        "PFP",
        "FS"
],
      "ScanningSequence": "EP",
      "SequenceName": "epfid2d1_104",
      "SequenceVariant": [
        "SK",
        "SS"
],
      "SeriesDescription": "cmrr_mbep2d_bold_2mm_MB8_Rest",
      "SeriesNumber": 9,
      "SeriesTime": "151909.375000",
      "SliceLocation": -90.822365202648,
      "SliceThickness": 2.0,
      "SmallestImagePixelValue": 0,
      "SoftwareVersions": "syngo MR B19",
      "SpacingBetweenSlices": 2.0000000600615,
      "SpecificCharacterSet": "ISO_IR 100",
      "StudyID": "1",
      "StudyTime": "144239.468000",
      "TransmitCoilName": "Body",
      "VariableFlipAngleFlag": "N",
      "WindowCenterWidthExplanation": "Algo1",
      "dBdt": 0.0},
    "slices": {}
  },
  "time": {
    "samples": {
      "AcquisitionNumber": [1, 2, 3, 4, 5, 6, 7, 8, 9, 10, 11, 12, 13, 14, 15, 16, 17, 18, 19, 20, 21, 22, 23, 24, 25, 26, 27, 28, 29, 30, 31, 32, 33, 34, 35, 36, 37, 38, 39, 40, 41, 42, 43, 44, 45, 46, 47, 48, 49, 50, 51, 52, 53, 54, 55, 56, 57, 58, 59, 60, 61, 62, 63, 64, 65, 66, 67, 68, 69, 70, 71, 72, 73, 74, 75, 76, 77, 78, 79, 80, 81, 82, 83, 84, 85, 86, 87, 88, 89, 90, 91, 92, 93, 94, 95, 96, 97, 98, 99, 100, 101, 102, 103, 104, 105, 106, 107, 108, 109, 110, 111, 112, 113, 114, 115, 116, 117, 118, 119, 120, 121, 122, 123, 124, 125, 126, 127, 128, 129, 130, 131, 132, 133, 134, 135, 136, 137, 138, 139, 140, 141, 142, 143, 144, 145, 146, 147, 148, 149, 150, 151, 152, 153, 154, 155, 156, 157, 158, 159, 160, 161, 162, 163, 164, 165, 166, 167, 168, 169, 170, 171, 172, 173, 174, 175, 176, 177, 178, 179, 180, 181, 182, 183, 184, 185, 186, 187, 188, 189, 190, 191, 192, 193, 194, 195, 196, 197, 198, 199, 200, 201, 202, 203, 204, 205, 206, 207, 208, 209, 210, 211, 212, 213, 214, 215, 216, 217, 218, 219, 220, 221, 222, 223, 224, 225, 226, 227, 228, 229, 230, 231, 232, 233, 234, 235, 236, 237, 238, 239, 240, 241, 242, 243, 244, 245, 246, 247, 248, 249, 250, 251, 252, 253, 254, 255, 256, 257, 258, 259, 260, 261, 262, 263, 264, 265, 266, 267, 268, 269, 270, 271, 272, 273, 274, 275, 276, 277, 278, 279, 280, 281, 282, 283, 284, 285, 286, 287, 288, 289, 290, 291, 292, 293, 294, 295, 296, 297, 298, 299, 300, 301, 302, 303, 304, 305, 306, 307, 308, 309, 310, 311, 312, 313, 314, 315, 316, 317, 318, 319, 320, 321, 322, 323, 324, 325, 326, 327, 328, 329, 330, 331, 332, 333, 334, 335, 336, 337, 338, 339, 340, 341, 342, 343, 344, 345, 346, 347, 348, 349, 350, 351, 352, 353, 354, 355, 356, 357, 358, 359, 360, 361, 362, 363, 364, 365, 366, 367, 368, 369, 370, 371, 372, 373, 374, 375, 376, 377, 378, 379, 380, 381, 382, 383, 384, 385, 386, 387, 388, 389, 390, 391, 392, 393, 394, 395, 396, 397, 398, 399, 400, 401, 402, 403, 404, 405, 406, 407, 408, 409, 410, 411, 412, 413, 414, 415, 416, 417, 418, 419, 420, 421, 422, 423, 424, 425, 426, 427, 428, 429, 430, 431, 432, 433, 434, 435, 436, 437, 438, 439, 440, 441, 442, 443, 444, 445, 446, 447, 448, 449, 450, 451, 452, 453, 454, 455, 456, 457, 458, 459, 460, 461, 462, 463, 464, 465, 466, 467, 468, 469, 470, 471, 472, 473, 474, 475, 476, 477, 478, 479, 480, 481, 482, 483, 484, 485, 486, 487, 488, 489, 490, 491, 492, 493, 494, 495, 496, 497, 498, 499, 500, 501, 502, 503, 504, 505, 506, 507, 508, 509, 510, 511, 512, 513, 514, 515, 516, 517, 518, 519, 520, 521, 522, 523, 524, 525, 526, 527, 528, 529, 530, 531, 532, 533, 534, 535, 536, 537, 538, 539, 540, 541, 542, 543, 544, 545, 546, 547, 548, 549, 550, 551, 552, 553, 554, 555, 556, 557, 558, 559, 560, 561, 562, 563, 564, 565, 566, 567, 568, 569, 570, 571, 572, 573, 574, 575, 576, 577, 578, 579, 580, 581, 582, 583, 584, 585, 586, 587, 588, 589, 590, 591, 592, 593, 594, 595, 596, 597, 598, 599, 600, 601, 602, 603, 604, 605, 606, 607, 608, 609, 610, 611, 612, 613, 614, 615, 616, 617, 618, 619, 620, 621, 622, 623, 624, 625, 626, 627, 628, 629, 630, 631, 632, 633, 634, 635, 636, 637, 638, 639, 640, 641, 642, 643, 644, 645, 646, 647, 648, 649, 650, 651, 652, 653, 654, 655, 656, 657, 658, 659, 660, 661, 662, 663, 664, 665, 666, 667, 668, 669, 670, 671, 672, 673, 674, 675, 676, 677, 678, 679, 680, 681, 682, 683, 684, 685, 686, 687, 688, 689, 690, 691, 692, 693, 694, 695, 696, 697, 698, 699, 700, 701, 702, 703, 704, 705, 706, 707, 708, 709, 710, 711, 712, 713, 714, 715, 716, 717, 718, 719, 720, 721, 722, 723, 724, 725, 726, 727, 728, 729, 730, 731, 732, 733, 734, 735, 736, 737, 738, 739, 740, 741, 742, 743, 744, 745, 746, 747, 748, 749, 750, 751, 752, 753, 754, 755, 756, 757, 758, 759, 760, 761, 762, 763, 764, 765, 766, 767, 768, 769, 770, 771, 772, 773, 774, 775, 776, 777, 778, 779, 780, 781, 782, 783, 784, 785, 786, 787, 788, 789, 790, 791, 792, 793, 794, 795, 796, 797, 798, 799, 800, 801, 802, 803, 804, 805, 806, 807, 808, 809, 810, 811, 812, 813, 814, 815, 816, 817, 818, 819, 820, 821, 822, 823, 824, 825, 826, 827, 828, 829, 830, 831, 832, 833, 834, 835, 836, 837, 838, 839, 840, 841, 842, 843, 844, 845, 846, 847, 848, 849, 850, 851, 852, 853, 854, 855, 856, 857, 858, 859, 860, 861, 862, 863, 864, 865, 866, 867, 868, 869, 870, 871, 872, 873, 874, 875, 876, 877, 878, 879, 880, 881, 882, 883, 884, 885, 886, 887, 888, 889, 890, 891, 892, 893, 894, 895, 896, 897, 898, 899, 900, 901, 902, 903, 904, 905, 906, 907, 908, 909, 910, 911, 912, 913, 914, 915, 916, 917, 918, 919, 920, 921, 922, 923, 924, 925, 926, 927, 928, 929, 930, 931, 932, 933, 934, 935, 936, 937, 938, 939, 940, 941, 942, 943, 944, 945, 946, 947, 948, 949, 950, 951, 952, 953, 954, 955, 956, 957, 958, 959, 960, 961, 962, 963, 964, 965, 966, 967, 968, 969, 970, 971, 972, 973, 974, 975, 976, 977, 978, 979, 980, 981, 982, 983, 984, 985, 986, 987, 988, 989, 990, 991, 992, 993, 994, 995, 996, 997, 998, 999, 1000, 1001, 1002, 1003, 1004, 1005, 1006, 1007, 1008, 1009, 1010, 1011, 1012, 1013, 1014, 1015, 1016, 1017, 1018, 1019, 1020, 1021, 1022, 1023, 1024, 1025, 1026, 1027, 1028, 1029, 1030, 1031, 1032, 1033, 1034, 1035, 1036, 1037, 1038, 1039, 1040, 1041, 1042, 1043, 1044, 1045, 1046, 1047, 1048, 1049, 1050, 1051, 1052, 1053, 1054, 1055, 1056, 1057, 1058, 1059, 1060, 1061, 1062, 1063, 1064, 1065, 1066, 1067, 1068, 1069, 1070],
      "AcquisitionTime": ["151857.607500", "151858.397500", "151859.185000", "151859.972500", "151900.760000", "151901.550000", "151902.337500", "151903.125000", "151903.912500", "151904.702500", "151905.490000", "151906.277500", "151907.067500", "151907.855000", "151908.642500", "151909.430000", "151910.220000", "151911.007500", "151911.795000", "151912.582500", "151913.372500", "151914.160000", "151914.947500", "151915.735000", "151916.525000", "151917.312500", "151918.100000", "151918.887500", "151919.677500", "151920.465000", "151921.252500", "151922.040000", "151922.830000", "151923.617500", "151924.405000", "151925.195000", "151925.982500", "151926.770000", "151927.557500", "151928.347500", "151929.135000", "151929.922500", "151930.710000", "151931.500000", "151932.287500", "151933.075000", "151933.862500", "151934.652500", "151935.440000", "151936.227500", "151937.015000", "151937.805000", "151938.592500", "151939.380000", "151940.167500", "151940.957500", "151941.745000", "151942.532500", "151943.322500", "151944.110000", "151944.897500", "151945.685000", "151946.475000", "151947.262500", "151948.050000", "151948.837500", "151949.627500", "151950.415000", "151951.202500", "151951.990000", "151952.780000", "151953.567500", "151954.355000", "151955.142500", "151955.932500", "151956.720000", "151957.507500", "151958.295000", "151959.085000", "151959.872500", "152000.660000", "152001.450000", "152002.237500", "152003.025000", "152003.812500", "152004.602500", "152005.390000", "152006.177500", "152006.965000", "152007.755000", "152008.542500", "152009.330000", "152010.117500", "152010.907500", "152011.695000", "152012.482500", "152013.270000", "152014.060000", "152014.847500", "152015.635000", "152016.422500", "152017.212500", "152018.000000", "152018.787500", "152019.577500", "152020.365000", "152021.152500", "152021.940000", "152022.730000", "152023.517500", "152024.305000", "152025.092500", "152025.882500", "152026.670000", "152027.457500", "152028.245000", "152029.035000", "152029.822500", "152030.610000", "152031.397500", "152032.187500", "152032.975000", "152033.762500", "152034.550000", "152035.340000", "152036.127500", "152036.915000", "152037.705000", "152038.492500", "152039.280000", "152040.067500", "152040.857500", "152041.645000", "152042.432500", "152043.220000", "152044.010000", "152044.797500", "152045.585000", "152046.372500", "152047.162500", "152047.950000", "152048.737500", "152049.525000", "152050.315000", "152051.102500", "152051.890000", "152052.677500", "152053.467500", "152054.255000", "152055.042500", "152055.832500", "152056.620000", "152057.407500", "152058.195000", "152058.985000", "152059.772500", "152100.560000", "152101.347500", "152102.137500", "152102.925000", "152103.712500", "152104.500000", "152105.290000", "152106.077500", "152106.865000", "152107.652500", "152108.442500", "152109.230000", "152110.017500", "152110.807500", "152111.595000", "152112.382500", "152113.170000", "152113.960000", "152114.747500", "152115.535000", "152116.322500", "152117.112500", "152117.900000", "152118.687500", "152119.475000", "152120.265000", "152121.052500", "152121.840000", "152122.627500", "152123.417500", "152124.205000", "152124.992500", "152125.780000", "152126.570000", "152127.357500", "152128.145000", "152128.935000", "152129.722500", "152130.510000", "152131.297500", "152132.087500", "152132.875000", "152133.662500", "152134.450000", "152135.240000", "152136.027500", "152136.815000", "152137.602500", "152138.392500", "152139.180000", "152139.967500", "152140.755000", "152141.545000", "152142.332500", "152143.120000", "152143.907500", "152144.697500", "152145.485000", "152146.272500", "152147.062500", "152147.850000", "152148.637500", "152149.425000", "152150.215000", "152151.002500", "152151.790000", "152152.577500", "152153.367500", "152154.155000", "152154.942500", "152155.730000", "152156.520000", "152157.307500", "152158.095000", "152158.882500", "152159.672500", "152200.460000", "152201.247500", "152202.035000", "152202.825000", "152203.612500", "152204.400000", "152205.190000", "152205.977500", "152206.765000", "152207.552500", "152208.342500", "152209.130000", "152209.917500", "152210.705000", "152211.495000", "152212.282500", "152213.070000", "152213.857500", "152214.647500", "152215.435000", "152216.222500", "152217.010000", "152217.800000", "152218.587500", "152219.375000", "152220.162500", "152220.952500", "152221.740000", "152222.527500", "152223.317500", "152224.105000", "152224.892500", "152225.680000", "152226.470000", "152227.257500", "152228.045000", "152228.832500", "152229.622500", "152230.410000", "152231.197500", "152231.985000", "152232.775000", "152233.562500", "152234.350000", "152235.137500", "152235.927500", "152236.715000", "152237.502500", "152238.290000", "152239.080000", "152239.867500", "152240.655000", "152241.445000", "152242.232500", "152243.020000", "152243.807500", "152244.597500", "152245.385000", "152246.172500", "152246.960000", "152247.750000", "152248.537500", "152249.325000", "152250.112500", "152250.902500", "152251.690000", "152252.477500", "152253.265000", "152254.055000", "152254.842500", "152255.630000", "152256.417500", "152257.207500", "152257.995000", "152258.782500", "152259.572500", "152300.360000", "152301.147500", "152301.935000", "152302.725000", "152303.512500", "152304.300000", "152305.087500", "152305.877500", "152306.665000", "152307.452500", "152308.240000", "152309.030000", "152309.817500", "152310.605000", "152311.392500", "152312.182500", "152312.970000", "152313.757500", "152314.545000", "152315.335000", "152316.122500", "152316.910000", "152317.700000", "152318.487500", "152319.275000", "152320.062500", "152320.852500", "152321.640000", "152322.427500", "152323.215000", "152324.005000", "152324.792500", "152325.580000", "152326.367500", "152327.157500", "152327.945000", "152328.732500", "152329.520000", "152330.310000", "152331.097500", "152331.885000", "152332.672500", "152333.462500", "152334.250000", "152335.037500", "152335.827500", "152336.615000", "152337.402500", "152338.190000", "152338.980000", "152339.767500", "152340.555000", "152341.342500", "152342.132500", "152342.920000", "152343.707500", "152344.495000", "152345.285000", "152346.072500", "152346.860000", "152347.647500", "152348.437500", "152349.225000", "152350.012500", "152350.800000", "152351.590000", "152352.377500", "152353.165000", "152353.955000", "152354.742500", "152355.530000", "152356.317500", "152357.107500", "152357.895000", "152358.682500", "152359.470000", "152400.260000", "152401.047500", "152401.835000", "152402.622500", "152403.412500", "152404.200000", "152404.987500", "152405.775000", "152406.565000", "152407.352500", "152408.140000", "152408.927500", "152409.717500", "152410.505000", "152411.292500", "152412.082500", "152412.870000", "152413.657500", "152414.445000", "152415.235000", "152416.022500", "152416.810000", "152417.597500", "152418.387500", "152419.175000", "152419.962500", "152420.750000", "152421.540000", "152422.327500", "152423.115000", "152423.902500", "152424.692500", "152425.480000", "152426.267500", "152427.057500", "152427.845000", "152428.632500", "152429.420000", "152430.210000", "152430.997500", "152431.785000", "152432.572500", "152433.362500", "152434.150000", "152434.937500", "152435.725000", "152436.515000", "152437.302500", "152438.090000", "152438.877500", "152439.667500", "152440.455000", "152441.242500", "152442.030000", "152442.820000", "152443.607500", "152444.395000", "152445.185000", "152445.972500", "152446.760000", "152447.547500", "152448.337500", "152449.125000", "152449.912500", "152450.700000", "152451.490000", "152452.277500", "152453.065000", "152453.852500", "152454.642500", "152455.430000", "152456.217500", "152457.005000", "152457.795000", "152458.582500", "152459.370000", "152500.157500", "152500.947500", "152501.735000", "152502.522500", "152503.312500", "152504.100000", "152504.887500", "152505.675000", "152506.465000", "152507.252500", "152508.040000", "152508.827500", "152509.617500", "152510.405000", "152511.192500", "152511.980000", "152512.770000", "152513.557500", "152514.345000", "152515.132500", "152515.922500", "152516.710000", "152517.497500", "152518.285000", "152519.075000", "152519.862500", "152520.650000", "152521.440000", "152522.227500", "152523.015000", "152523.802500", "152524.592500", "152525.380000", "152526.167500", "152526.955000", "152527.745000", "152528.532500", "152529.320000", "152530.107500", "152530.897500", "152531.685000", "152532.472500", "152533.260000", "152534.050000", "152534.837500", "152535.625000", "152536.412500", "152537.202500", "152537.990000", "152538.777500", "152539.567500", "152540.355000", "152541.142500", "152541.930000", "152542.720000", "152543.507500", "152544.295000", "152545.082500", "152545.872500", "152546.660000", "152547.447500", "152548.235000", "152549.025000", "152549.812500", "152550.600000", "152551.387500", "152552.177500", "152552.965000", "152553.752500", "152554.540000", "152555.330000", "152556.117500", "152556.905000", "152557.695000", "152558.482500", "152559.270000", "152600.057500", "152600.847500", "152601.635000", "152602.422500", "152603.210000", "152604.000000", "152604.787500", "152605.575000", "152606.362500", "152607.152500", "152607.940000", "152608.727500", "152609.515000", "152610.305000", "152611.092500", "152611.880000", "152612.667500", "152613.457500", "152614.245000", "152615.032500", "152615.822500", "152616.610000", "152617.397500", "152618.185000", "152618.975000", "152619.762500", "152620.550000", "152621.337500", "152622.127500", "152622.915000", "152623.702500", "152624.490000", "152625.280000", "152626.067500", "152626.855000", "152627.642500", "152628.432500", "152629.220000", "152630.007500", "152630.795000", "152631.585000", "152632.372500", "152633.160000", "152633.950000", "152634.737500", "152635.525000", "152636.312500", "152637.102500", "152637.890000", "152638.677500", "152639.465000", "152640.255000", "152641.042500", "152641.830000", "152642.617500", "152643.407500", "152644.195000", "152644.982500", "152645.770000", "152646.560000", "152647.347500", "152648.135000", "152648.922500", "152649.712500", "152650.500000", "152651.287500", "152652.077500", "152652.865000", "152653.652500", "152654.440000", "152655.230000", "152656.017500", "152656.805000", "152657.592500", "152658.382500", "152659.170000", "152659.957500", "152700.745000", "152701.535000", "152702.322500", "152703.110000", "152703.897500", "152704.687500", "152705.475000", "152706.262500", "152707.050000", "152707.840000", "152708.627500", "152709.415000", "152710.205000", "152710.992500", "152711.780000", "152712.567500", "152713.357500", "152714.145000", "152714.932500", "152715.720000", "152716.510000", "152717.297500", "152718.085000", "152718.872500", "152719.662500", "152720.450000", "152721.237500", "152722.025000", "152722.815000", "152723.602500", "152724.390000", "152725.177500", "152725.967500", "152726.755000", "152727.542500", "152728.332500", "152729.120000", "152729.907500", "152730.695000", "152731.485000", "152732.272500", "152733.060000", "152733.847500", "152734.637500", "152735.425000", "152736.212500", "152737.000000", "152737.790000", "152738.577500", "152739.365000", "152740.152500", "152740.942500", "152741.730000", "152742.517500", "152743.307500", "152744.095000", "152744.882500", "152745.670000", "152746.460000", "152747.247500", "152748.035000", "152748.822500", "152749.612500", "152750.400000", "152751.187500", "152751.975000", "152752.765000", "152753.552500", "152754.340000", "152755.127500", "152755.917500", "152756.705000", "152757.492500", "152758.280000", "152759.070000", "152759.857500", "152800.645000", "152801.435000", "152802.222500", "152803.010000", "152803.797500", "152804.587500", "152805.375000", "152806.162500", "152806.950000", "152807.740000", "152808.527500", "152809.315000", "152810.102500", "152810.892500", "152811.680000", "152812.467500", "152813.255000", "152814.045000", "152814.832500", "152815.620000", "152816.407500", "152817.197500", "152817.985000", "152818.772500", "152819.562500", "152820.350000", "152821.137500", "152821.925000", "152822.715000", "152823.502500", "152824.290000", "152825.077500", "152825.867500", "152826.655000", "152827.442500", "152828.230000", "152829.020000", "152829.807500", "152830.595000", "152831.382500", "152832.172500", "152832.960000", "152833.747500", "152834.535000", "152835.325000", "152836.112500", "152836.900000", "152837.690000", "152838.477500", "152839.265000", "152840.052500", "152840.842500", "152841.630000", "152842.417500", "152843.205000", "152843.995000", "152844.782500", "152845.570000", "152846.357500", "152847.147500", "152847.935000", "152848.722500", "152849.510000", "152850.300000", "152851.087500", "152851.875000", "152852.662500", "152853.452500", "152854.240000", "152855.027500", "152855.817500", "152856.605000", "152857.392500", "152858.180000", "152858.970000", "152859.757500", "152900.545000", "152901.332500", "152902.122500", "152902.910000", "152903.697500", "152904.485000", "152905.275000", "152906.062500", "152906.850000", "152907.637500", "152908.427500", "152909.215000", "152910.002500", "152910.790000", "152911.580000", "152912.367500", "152913.155000", "152913.945000", "152914.732500", "152915.520000", "152916.307500", "152917.097500", "152917.885000", "152918.672500", "152919.460000", "152920.250000", "152921.037500", "152921.825000", "152922.612500", "152923.402500", "152924.190000", "152924.977500", "152925.765000", "152926.555000", "152927.342500", "152928.130000", "152928.917500", "152929.707500", "152930.495000", "152931.282500", "152932.072500", "152932.860000", "152933.647500", "152934.435000", "152935.225000", "152936.012500", "152936.800000", "152937.587500", "152938.377500", "152939.165000", "152939.952500", "152940.740000", "152941.530000", "152942.317500", "152943.105000", "152943.892500", "152944.682500", "152945.470000", "152946.257500", "152947.045000", "152947.835000", "152948.622500", "152949.410000", "152950.200000", "152950.987500", "152951.775000", "152952.562500", "152953.352500", "152954.140000", "152954.927500", "152955.715000", "152956.505000", "152957.292500", "152958.080000", "152958.867500", "152959.657500", "153000.445000", "153001.232500", "153002.020000", "153002.810000", "153003.597500", "153004.385000", "153005.172500", "153005.962500", "153006.750000", "153007.537500", "153008.327500", "153009.115000", "153009.902500", "153010.690000", "153011.480000", "153012.267500", "153013.055000", "153013.842500", "153014.632500", "153015.420000", "153016.207500", "153016.995000", "153017.785000", "153018.572500", "153019.360000", "153020.147500", "153020.937500", "153021.725000", "153022.512500", "153023.300000", "153024.090000", "153024.877500", "153025.665000", "153026.455000", "153027.242500", "153028.030000", "153028.817500", "153029.607500", "153030.395000", "153031.182500", "153031.970000", "153032.760000", "153033.547500", "153034.335000", "153035.122500", "153035.912500", "153036.700000", "153037.487500", "153038.275000", "153039.065000", "153039.852500", "153040.640000", "153041.427500", "153042.217500", "153043.005000", "153043.792500", "153044.582500", "153045.370000", "153046.157500", "153046.945000", "153047.735000", "153048.522500", "153049.310000", "153050.097500", "153050.887500", "153051.675000", "153052.462500", "153053.250000", "153054.040000", "153054.827500", "153055.615000", "153056.402500", "153057.192500", "153057.980000", "153058.767500", "153059.557500", "153100.345000", "153101.132500", "153101.920000", "153102.710000", "153103.497500", "153104.285000", "153105.072500", "153105.862500", "153106.650000", "153107.437500", "153108.225000", "153109.015000", "153109.802500", "153110.590000", "153111.377500", "153112.167500", "153112.955000", "153113.742500", "153114.530000", "153115.320000", "153116.107500", "153116.895000", "153117.685000", "153118.472500", "153119.260000", "153120.047500", "153120.837500", "153121.625000", "153122.412500", "153123.200000", "153123.990000", "153124.777500", "153125.565000", "153126.352500", "153127.142500", "153127.930000", "153128.717500", "153129.505000", "153130.295000", "153131.082500", "153131.870000", "153132.657500", "153133.447500", "153134.235000", "153135.022500", "153135.812500", "153136.600000", "153137.387500", "153138.175000", "153138.965000", "153139.752500", "153140.540000", "153141.327500", "153142.117500", "153142.905000", "153143.692500", "153144.480000", "153145.270000", "153146.057500", "153146.845000", "153147.632500", "153148.422500", "153149.210000", "153149.997500", "153150.785000", "153151.575000", "153152.362500", "153153.150000", "153153.940000", "153154.727500", "153155.515000", "153156.302500", "153157.092500", "153157.880000", "153158.667500", "153159.455000", "153200.245000", "153201.032500", "153201.820000", "153202.607500", "153203.397500", "153204.185000", "153204.972500", "153205.760000", "153206.550000", "153207.337500", "153208.125000", "153208.912500", "153209.702500", "153210.490000", "153211.277500", "153212.067500", "153212.855000", "153213.642500", "153214.430000", "153215.220000", "153216.007500", "153216.795000", "153217.582500", "153218.372500", "153219.160000", "153219.947500", "153220.735000", "153221.525000", "153222.312500", "153223.100000", "153223.887500", "153224.677500", "153225.465000", "153226.252500", "153227.040000", "153227.830000", "153228.617500", "153229.405000", "153230.195000", "153230.982500", "153231.770000", "153232.557500", "153233.347500", "153234.135000", "153234.922500", "153235.710000", "153236.500000", "153237.287500", "153238.075000", "153238.862500", "153239.652500", "153240.440000", "153241.227500", "153242.015000", "153242.805000", "153243.592500", "153244.380000", "153245.167500", "153245.957500", "153246.745000", "153247.532500", "153248.322500", "153249.110000", "153249.897500", "153250.685000", "153251.475000", "153252.262500", "153253.050000", "153253.837500", "153254.627500", "153255.415000", "153256.202500", "153256.990000", "153257.780000", "153258.567500", "153259.355000", "153300.142500"],
