{
  "AcquisitionMatrixPE": 104,
  "AcquisitionNumber": 1,
  "AcquisitionTime": "15:50:39.725000",
  "BandwidthPerPixelPhaseEncode": 13.935,
  "BaseResolution": 104,
  "CoilString": "C:HEA;HEP",
  "ConversionSoftware": "dcm2niix",
  "ConversionSoftwareVersion": "v1.0.20210317",
  "DerivedVendorReportedEchoSpacing": 0.000690017,
  "DeviceSerialNumber": "35450",
  "DwellTime": 2.5e-06,
  "EchoTime": 0.0348,
  "EffectiveEchoSpacing": 0.000690017,
  "FlipAngle": 55,
  "ImageComments": "Unaliased MB8/PE3 (remote)",
  "ImageOrientationPatientDICOM": [0.999658, 0.000912558, 0.0261313, 4.30659e-08, 0.999391, -0.0349024],
  "ImageType": [
    "ORIGINAL",
    "PRIMARY",
    "M",
    "MB",
    "ND",
    "MOSAIC"
],
  "ImagingFrequency": 123.234,
  "InPlanePhaseEncodingDirectionDICOM": "COL",
  "InstitutionAddress": "Univeristy Ave. 197,Newark,North East,US,07102-1814",
  "InstitutionName": "RUBIC",
  "InstitutionalDepartmentName": "Department",
  "MRAcquisitionType": "2D",
  "MagneticFieldStrength": 3,
  "Manufacturer": "Siemens",
  "ManufacturersModelName": "TrioTim",
  "Modality": "MR",
  "MultibandAccelerationFactor": 8,
  "PartialFourier": 0.875,
  "PatientPosition": "HFS",
  "PercentPhaseFOV": 100,
  "PercentSampling": 100,
  "PhaseEncodingDirection": "j-",
  "PhaseEncodingSteps": 91,
  "PhaseResolution": 1,
  "PixelBandwidth": 1923,
  "ProcedureStepDescription": "Cole^Michael",
  "ProtocolName": "cmrr_mbep2d_bold_2mm_MB8_Task_8x",
  "PulseSequenceDetails": "%CustomerSeq%\\cmrr_mbep2d_bold",
  "ReceiveCoilName": "32Ch_Head",
  "ReconMatrixPE": 104,
  "RepetitionTime": 0.785,
  "SAR": 0.128718,
  "ScanOptions": "PFP\\FS",
  "ScanningSequence": "EP",
  "SequenceName": "epfid2d1_104",
  "SequenceVariant": "SK\\SS",
  "SeriesDescription": "cmrr_mbep2d_bold_2mm_MB8_Task_8x",
  "SeriesNumber": 15,
  "ShimSetting": [2150, -340, -7322, 618, -60, -372, 126, 24],
  "SliceThickness": 2,
  "SliceTiming": [0, 0.4375, 0.0875, 0.525, 0.175, 0.6125, 0.2625, 0.7, 0.35, 0, 0.4375, 0.0875, 0.525, 0.175, 0.6125, 0.2625, 0.7, 0.35, 0, 0.4375, 0.0875, 0.525, 0.175, 0.6125, 0.2625, 0.7, 0.35, 0, 0.4375, 0.0875, 0.525, 0.175, 0.6125, 0.2625, 0.7, 0.35, 0, 0.4375, 0.0875, 0.525, 0.175, 0.6125, 0.2625, 0.7, 0.35, 0, 0.4375, 0.0875, 0.525, 0.175, 0.6125, 0.2625, 0.7, 0.35, 0, 0.4375, 0.0875, 0.525, 0.175, 0.6125, 0.2625, 0.7, 0.35, 0, 0.4375, 0.0875, 0.525, 0.175, 0.6125, 0.2625, 0.7, 0.35],
  "SoftwareVersions": "syngo MR B19",
  "SpacingBetweenSlices": 2,
  "StationName": "MRC35450",
  "TaskName": "cpro",
  "TotalReadoutTime": 0.0710717,
  "TxRefAmp": 322.77,
  "dcmmeta_affine": [
    [-1.9993162155151367, 8.613184121486483e-08, 0.052294399589300156, 105.27387237548828],
    [-0.001825116341933608, 1.998781442642212, -0.06978103518486023, -87.05563354492188],
    [0.05226253718137741, 0.06980489194393158, 1.9980981349945068, -96.70436096191406],
    [0.0, 0.0, 0.0, 1.0]
],
  "dcmmeta_reorient_transform": [
    [0.0, -1.0, 0.0, 103.0],
    [1.0, 0.0, 0.0, 0.0],
    [0.0, 0.0, 1.0, 0.0],
    [0.0, 0.0, 0.0, 1.0]
],
  "dcmmeta_shape": [104, 104, 72, 581],
  "dcmmeta_slice_dim": 2,
  "dcmmeta_version": 0.6,
  "global": {
    "const": {
      "AcquisitionMatrix": [104, 0, 0, 104],
      "AngioFlag": "N",
      "BitsAllocated": 16,
      "BitsStored": 12,
      "Columns": 936,
      "EchoNumbers": 1,
      "EchoTime": 34.8,
      "EchoTrainLength": 1,
      "FlipAngle": 55.0,
      "HighBit": 11,
      "ImageOrientationPatient": [0.99965810356638, 0.00091255818684, 0.02613126884819, 4.306592e-08, 0.99939072397178, -0.0349024474665],
      "ImagePositionPatient": [-936.98945823123, -951.07118842279, -82.21683544361],
      "ImageType": [
        "ORIGINAL",
        "PRIMARY",
        "M",
        "MB",
        "ND",
        "MOSAIC"
],
      "ImagedNucleus": "1H",
      "ImagingFrequency": 123.234403,
      "InPlanePhaseEncodingDirection": "COL",
      "MRAcquisitionType": "2D",
      "MagneticFieldStrength": 3.0,
      "Manufacturer": "SIEMENS",
      "ManufacturerModelName": "TrioTim",
      "Modality": "MR",
      "NumberOfAverages": 1.0,
      "NumberOfPhaseEncodingSteps": 91,
      "PercentPhaseFieldOfView": 100.0,
      "PercentSampling": 100.0,
      "PerformedProcedureStepStartTime": "144239.500000",
      "PhotometricInterpretation": "MONOCHROME2",
      "PixelBandwidth": 1923.0,
      "PixelRepresentation": 0,
      "PixelSpacing": [2.0, 2.0],
      "ProtocolName": "cmrr_mbep2d_bold_2mm_MB8_Task_8x",
      "RepetitionTime": 785.0,
      "Rows": 936,
      "SAR": 0.12871793755899,
      "SamplesPerPixel": 1,
      "ScanOptions": [
        "PFP",
        "FS"
],
      "ScanningSequence": "EP",
      "SequenceName": "epfid2d1_104",
      "SequenceVariant": [
        "SK",
        "SS"
],
      "SeriesDescription": "cmrr_mbep2d_bold_2mm_MB8_Task_8x",
      "SeriesNumber": 15,
      "SeriesTime": "155109.390000",
      "SliceLocation": -90.822365202648,
      "SliceThickness": 2.0,
      "SmallestImagePixelValue": 0,
      "SoftwareVersions": "syngo MR B19",
      "SpacingBetweenSlices": 2.0000000600615,
      "SpecificCharacterSet": "ISO_IR 100",
      "StudyID": "1",
      "StudyTime": "144239.468000",
      "TransmitCoilName": "Body",
      "VariableFlipAngleFlag": "N",
      "WindowCenterWidthExplanation": "Algo1",
      "dBdt": 0.0},
    "slices": {}
  },
  "time": {
    "samples": {
      "AcquisitionNumber": [1, 2, 3, 4, 5, 6, 7, 8, 9, 10, 11, 12, 13, 14, 15, 16, 17, 18, 19, 20, 21, 22, 23, 24, 25, 26, 27, 28, 29, 30, 31, 32, 33, 34, 35, 36, 37, 38, 39, 40, 41, 42, 43, 44, 45, 46, 47, 48, 49, 50, 51, 52, 53, 54, 55, 56, 57, 58, 59, 60, 61, 62, 63, 64, 65, 66, 67, 68, 69, 70, 71, 72, 73, 74, 75, 76, 77, 78, 79, 80, 81, 82, 83, 84, 85, 86, 87, 88, 89, 90, 91, 92, 93, 94, 95, 96, 97, 98, 99, 100, 101, 102, 103, 104, 105, 106, 107, 108, 109, 110, 111, 112, 113, 114, 115, 116, 117, 118, 119, 120, 121, 122, 123, 124, 125, 126, 127, 128, 129, 130, 131, 132, 133, 134, 135, 136, 137, 138, 139, 140, 141, 142, 143, 144, 145, 146, 147, 148, 149, 150, 151, 152, 153, 154, 155, 156, 157, 158, 159, 160, 161, 162, 163, 164, 165, 166, 167, 168, 169, 170, 171, 172, 173, 174, 175, 176, 177, 178, 179, 180, 181, 182, 183, 184, 185, 186, 187, 188, 189, 190, 191, 192, 193, 194, 195, 196, 197, 198, 199, 200, 201, 202, 203, 204, 205, 206, 207, 208, 209, 210, 211, 212, 213, 214, 215, 216, 217, 218, 219, 220, 221, 222, 223, 224, 225, 226, 227, 228, 229, 230, 231, 232, 233, 234, 235, 236, 237, 238, 239, 240, 241, 242, 243, 244, 245, 246, 247, 248, 249, 250, 251, 252, 253, 254, 255, 256, 257, 258, 259, 260, 261, 262, 263, 264, 265, 266, 267, 268, 269, 270, 271, 272, 273, 274, 275, 276, 277, 278, 279, 280, 281, 282, 283, 284, 285, 286, 287, 288, 289, 290, 291, 292, 293, 294, 295, 296, 297, 298, 299, 300, 301, 302, 303, 304, 305, 306, 307, 308, 309, 310, 311, 312, 313, 314, 315, 316, 317, 318, 319, 320, 321, 322, 323, 324, 325, 326, 327, 328, 329, 330, 331, 332, 333, 334, 335, 336, 337, 338, 339, 340, 341, 342, 343, 344, 345, 346, 347, 348, 349, 350, 351, 352, 353, 354, 355, 356, 357, 358, 359, 360, 361, 362, 363, 364, 365, 366, 367, 368, 369, 370, 371, 372, 373, 374, 375, 376, 377, 378, 379, 380, 381, 382, 383, 384, 385, 386, 387, 388, 389, 390, 391, 392, 393, 394, 395, 396, 397, 398, 399, 400, 401, 402, 403, 404, 405, 406, 407, 408, 409, 410, 411, 412, 413, 414, 415, 416, 417, 418, 419, 420, 421, 422, 423, 424, 425, 426, 427, 428, 429, 430, 431, 432, 433, 434, 435, 436, 437, 438, 439, 440, 441, 442, 443, 444, 445, 446, 447, 448, 449, 450, 451, 452, 453, 454, 455, 456, 457, 458, 459, 460, 461, 462, 463, 464, 465, 466, 467, 468, 469, 470, 471, 472, 473, 474, 475, 476, 477, 478, 479, 480, 481, 482, 483, 484, 485, 486, 487, 488, 489, 490, 491, 492, 493, 494, 495, 496, 497, 498, 499, 500, 501, 502, 503, 504, 505, 506, 507, 508, 509, 510, 511, 512, 513, 514, 515, 516, 517, 518, 519, 520, 521, 522, 523, 524, 525, 526, 527, 528, 529, 530, 531, 532, 533, 534, 535, 536, 537, 538, 539, 540, 541, 542, 543, 544, 545, 546, 547, 548, 549, 550, 551, 552, 553, 554, 555, 556, 557, 558, 559, 560, 561, 562, 563, 564, 565, 566, 567, 568, 569, 570, 571, 572, 573, 574, 575, 576, 577, 578, 579, 580, 581],
      "AcquisitionTime": ["155039.725000", "155040.512500", "155041.300000", "155042.090000", "155042.877500", "155043.665000", "155044.452500", "155045.242500", "155046.030000", "155046.817500", "155047.605000", "155048.395000", "155049.182500", "155049.970000", "155050.757500", "155051.547500", "155052.335000", "155053.122500", "155053.910000", "155054.700000", "155055.487500", "155056.275000", "155057.062500", "155057.852500", "155058.640000", "155059.427500", "155100.217500", "155101.005000", "155101.792500", "155102.580000", "155103.370000", "155104.157500", "155104.945000", "155105.732500", "155106.522500", "155107.310000", "155108.097500", "155108.885000", "155109.675000", "155110.462500", "155111.250000", "155112.037500", "155112.827500", "155113.615000", "155114.402500", "155115.190000", "155115.980000", "155116.767500", "155117.555000", "155118.345000", "155119.132500", "155119.920000", "155120.707500", "155121.497500", "155122.285000", "155123.072500", "155123.860000", "155124.650000", "155125.437500", "155126.225000", "155127.012500", "155127.802500", "155128.590000", "155129.377500", "155130.165000", "155130.955000", "155131.742500", "155132.530000", "155133.317500", "155134.107500", "155134.895000", "155135.682500", "155136.472500", "155137.260000", "155138.047500", "155138.835000", "155139.625000", "155140.412500", "155141.200000", "155141.987500", "155142.777500", "155143.565000", "155144.352500", "155145.140000", "155145.930000", "155146.717500", "155147.505000", "155148.292500", "155149.082500", "155149.870000", "155150.657500", "155151.447500", "155152.235000", "155153.022500", "155153.810000", "155154.600000", "155155.387500", "155156.175000", "155156.962500", "155157.752500", "155158.540000", "155159.327500", "155200.115000", "155200.905000", "155201.692500", "155202.480000", "155203.267500", "155204.057500", "155204.845000", "155205.632500", "155206.420000", "155207.210000", "155207.997500", "155208.785000", "155209.575000", "155210.362500", "155211.150000", "155211.937500", "155212.727500", "155213.515000", "155214.302500", "155215.090000", "155215.880000", "155216.667500", "155217.455000", "155218.242500", "155219.032500", "155219.820000", "155220.607500", "155221.395000", "155222.185000", "155222.972500", "155223.760000", "155224.547500", "155225.337500", "155226.125000", "155226.912500", "155227.702500", "155228.490000", "155229.277500", "155230.065000", "155230.855000", "155231.642500", "155232.430000", "155233.217500", "155234.007500", "155234.795000", "155235.582500", "155236.370000", "155237.160000", "155237.947500", "155238.735000", "155239.522500", "155240.312500", "155241.100000", "155241.887500", "155242.675000", "155243.465000", "155244.252500", "155245.040000", "155245.830000", "155246.617500", "155247.405000", "155248.192500", "155248.982500", "155249.770000", "155250.557500", "155251.345000", "155252.135000", "155252.922500", "155253.710000", "155254.497500", "155255.287500", "155256.075000", "155256.862500", "155257.650000", "155258.440000", "155259.227500", "155300.015000", "155300.802500", "155301.592500", "155302.380000", "155303.167500", "155303.957500", "155304.745000", "155305.532500", "155306.320000", "155307.110000", "155307.897500", "155308.685000", "155309.472500", "155310.262500", "155311.050000", "155311.837500", "155312.625000", "155313.415000", "155314.202500", "155314.990000", "155315.777500", "155316.567500", "155317.355000", "155318.142500", "155318.930000", "155319.720000", "155320.507500", "155321.295000", "155322.085000", "155322.872500", "155323.660000", "155324.447500", "155325.237500", "155326.025000", "155326.812500", "155327.600000", "155328.390000", "155329.177500", "155329.965000", "155330.752500", "155331.542500", "155332.330000", "155333.117500", "155333.905000", "155334.695000", "155335.482500", "155336.270000", "155337.057500", "155337.847500", "155338.635000", "155339.422500", "155340.212500", "155341.000000", "155341.787500", "155342.575000", "155343.365000", "155344.152500", "155344.940000", "155345.727500", "155346.517500", "155347.305000", "155348.092500", "155348.880000", "155349.670000", "155350.457500", "155351.245000", "155352.032500", "155352.822500", "155353.610000", "155354.397500", "155355.185000", "155355.975000", "155356.762500", "155357.550000", "155358.340000", "155359.127500", "155359.915000", "155400.702500", "155401.492500", "155402.280000", "155403.067500", "155403.855000", "155404.645000", "155405.432500", "155406.220000", "155407.007500", "155407.797500", "155408.585000", "155409.372500", "155410.160000", "155410.950000", "155411.737500", "155412.525000", "155413.312500", "155414.102500", "155414.890000", "155415.677500", "155416.467500", "155417.255000", "155418.042500", "155418.830000", "155419.620000", "155420.407500", "155421.195000", "155421.982500", "155422.772500", "155423.560000", "155424.347500", "155425.135000", "155425.925000", "155426.712500", "155427.500000", "155428.287500", "155429.077500", "155429.865000", "155430.652500", "155431.440000", "155432.230000", "155433.017500", "155433.805000", "155434.595000", "155435.382500", "155436.170000", "155436.957500", "155437.747500", "155438.535000", "155439.322500", "155440.110000", "155440.900000", "155441.687500", "155442.475000", "155443.262500", "155444.052500", "155444.840000", "155445.627500", "155446.415000", "155447.205000", "155447.992500", "155448.780000", "155449.567500", "155450.357500", "155451.145000", "155451.932500", "155452.722500", "155453.510000", "155454.297500", "155455.085000", "155455.875000", "155456.662500", "155457.450000", "155458.237500", "155459.027500", "155459.815000", "155500.602500", "155501.390000", "155502.180000", "155502.967500", "155503.755000", "155504.542500", "155505.332500", "155506.120000", "155506.907500", "155507.697500", "155508.485000", "155509.272500", "155510.060000", "155510.850000", "155511.637500", "155512.425000", "155513.212500", "155514.002500", "155514.790000", "155515.577500", "155516.365000", "155517.155000", "155517.942500", "155518.730000", "155519.517500", "155520.307500", "155521.095000", "155521.882500", "155522.670000", "155523.460000", "155524.247500", "155525.035000", "155525.825000", "155526.612500", "155527.400000", "155528.187500", "155528.977500", "155529.765000", "155530.552500", "155531.340000", "155532.130000", "155532.917500", "155533.705000", "155534.492500", "155535.282500", "155536.070000", "155536.857500", "155537.645000", "155538.435000", "155539.222500", "155540.010000", "155540.797500", "155541.587500", "155542.375000", "155543.162500", "155543.952500", "155544.740000", "155545.527500", "155546.315000", "155547.105000", "155547.892500", "155548.680000", "155549.467500", "155550.257500", "155551.045000", "155551.832500", "155552.620000", "155553.410000", "155554.197500", "155554.985000", "155555.772500", "155556.562500", "155557.350000", "155558.137500", "155558.925000", "155559.715000", "155600.502500", "155601.290000", "155602.080000", "155602.867500", "155603.655000", "155604.442500", "155605.232500", "155606.020000", "155606.807500", "155607.595000", "155608.385000", "155609.172500", "155609.960000", "155610.747500", "155611.537500", "155612.325000", "155613.112500", "155613.900000", "155614.690000", "155615.477500", "155616.265000", "155617.052500", "155617.842500", "155618.630000", "155619.417500", "155620.207500", "155620.995000", "155621.782500", "155622.570000", "155623.360000", "155624.147500", "155624.935000", "155625.722500", "155626.512500", "155627.300000", "155628.087500", "155628.875000", "155629.665000", "155630.452500", "155631.240000", "155632.027500", "155632.817500", "155633.605000", "155634.392500", "155635.180000", "155635.970000", "155636.757500", "155637.545000", "155638.335000", "155639.122500", "155639.910000", "155640.697500", "155641.487500", "155642.275000", "155643.062500", "155643.850000", "155644.640000", "155645.427500", "155646.215000", "155647.002500", "155647.792500", "155648.580000", "155649.367500", "155650.155000", "155650.945000", "155651.732500", "155652.520000", "155653.307500", "155654.097500", "155654.885000", "155655.672500", "155656.462500", "155657.250000", "155658.037500", "155658.825000", "155659.615000", "155700.402500", "155701.190000", "155701.977500", "155702.767500", "155703.555000", "155704.342500", "155705.130000", "155705.920000", "155706.707500", "155707.495000", "155708.282500", "155709.072500", "155709.860000", "155710.647500", "155711.435000", "155712.225000", "155713.012500", "155713.800000", "155714.590000", "155715.377500", "155716.165000", "155716.952500", "155717.742500", "155718.530000", "155719.317500", "155720.105000", "155720.895000", "155721.682500", "155722.470000", "155723.257500", "155724.047500", "155724.835000", "155725.622500", "155726.410000", "155727.200000", "155727.987500", "155728.775000", "155729.562500", "155730.352500", "155731.140000", "155731.927500", "155732.717500", "155733.505000", "155734.292500", "155735.080000", "155735.870000", "155736.657500", "155737.445000", "155738.232500", "155739.022500", "155739.810000", "155740.597500", "155741.385000", "155742.175000", "155742.962500", "155743.750000", "155744.537500", "155745.327500", "155746.115000", "155746.902500", "155747.690000", "155748.480000", "155749.267500", "155750.055000", "155750.845000", "155751.632500", "155752.420000", "155753.207500", "155753.997500", "155754.785000", "155755.572500", "155756.360000", "155757.150000", "155757.937500", "155758.725000", "155759.512500", "155800.302500", "155801.090000", "155801.877500", "155802.665000", "155803.455000", "155804.242500", "155805.030000", "155805.817500", "155806.607500", "155807.395000", "155808.182500", "155808.972500", "155809.760000", "155810.547500", "155811.335000", "155812.125000", "155812.912500", "155813.700000", "155814.487500", "155815.277500", "155816.065000", "155816.852500"],
      "ContentTime": ["155109.390000", "155109.390000", "155109.390000", "155109.390000", "155109.390000", "155109.390000", "155109.406000", "155109.406000", "155109.406000", "155109.406000", "155109.406000", "155109.406000", "155109.406000", "155109.421000", "155109.421000", "155109.421000", "155109.421000", "155109.421000", "155109.421000", "155109.437000", "155109.437000", "155109.437000", "155109.437000", "155109.437000", "155109.437000", "155109.437000", "155109.453000", "155109.453000", "155109.453000", "155109.453000", "155109.453000", "155109.453000", "155109.453000", "155109.468000", "155109.468000", "155129.359000", "155129.359000", "155129.359000", "155129.359000", "155129.359000", "155129.359000", "155129.375000", "155129.375000", "155129.375000", "155129.375000", "155129.375000", "155129.375000", "155129.375000", "155129.390000", "155129.390000", "155129.390000", "155129.390000", "155129.390000", "155129.390000", "155129.390000", "155129.406000", "155129.406000", "155129.406000", "155129.406000", "155129.406000", "155129.406000", "155149.359000", "155149.359000", "155149.359000", "155149.359000", "155149.359000", "155149.359000", "155149.375000", "155149.375000", "155149.375000", "155149.375000", "155149.375000", "155149.375000", "155149.390000", "155149.390000", "155149.390000", "155149.390000", "155149.390000", "155149.390000", "155149.390000", "155149.406000", "155149.406000", "155149.406000", "155149.406000", "155149.406000", "155149.406000", "155209.359000", "155209.359000", "155209.359000", "155209.359000", "155209.359000", "155209.359000", "155209.375000", "155209.375000", "155209.375000", "155209.375000", "155209.375000", "155209.375000", "155209.375000", "155209.390000", "155209.390000", "155209.390000", "155209.390000", "155209.390000", "155209.390000", "155209.390000", "155209.406000", "155209.406000", "155209.406000", "155209.406000", "155209.421000", "155209.421000", "155229.359000", "155229.359000", "155229.359000", "155229.359000", "155229.359000", "155229.359000", "155229.375000", "155229.375000", "155229.375000", "155229.375000", "155229.375000", "155229.375000", "155229.375000", "155229.390000", "155229.390000", "155229.390000", "155229.390000", "155229.390000", "155229.390000", "155229.390000", "155229.406000", "155229.406000", "155229.406000", "155229.406000", "155229.406000", "155249.359000", "155249.359000", "155249.359000", "155249.359000", "155249.359000", "155249.359000", "155249.375000", "155249.375000", "155249.375000", "155249.375000", "155249.375000", "155249.375000", "155249.390000", "155249.390000", "155249.390000", "155249.390000", "155249.390000", "155249.390000", "155249.406000", "155249.406000", "155249.406000", "155249.406000", "155249.421000", "155249.421000", "155249.421000", "155249.421000", "155309.359000", "155309.359000", "155309.359000", "155309.359000", "155309.359000", "155309.359000", "155309.375000", "155309.375000", "155309.375000", "155309.375000", "155309.375000", "155309.375000", "155309.390000", "155309.390000", "155309.390000", "155309.390000", "155309.390000", "155309.390000", "155309.390000", "155309.406000", "155309.406000", "155309.406000", "155309.406000", "155309.406000", "155309.406000", "155329.359000", "155329.359000", "155329.359000", "155329.359000", "155329.359000", "155329.359000", "155329.375000", "155329.375000", "155329.375000", "155329.375000", "155329.375000", "155329.375000", "155329.390000", "155329.390000", "155329.390000", "155329.390000", "155329.390000", "155329.390000", "155329.390000", "155329.406000", "155329.406000", "155329.406000", "155329.406000", "155329.406000", "155329.406000", "155329.406000", "155349.359000", "155349.359000", "155349.359000", "155349.359000", "155349.359000", "155349.375000", "155349.375000", "155349.375000", "155349.375000", "155349.375000", "155349.375000", "155349.375000", "155349.390000", "155349.390000", "155349.390000", "155349.390000", "155349.390000", "155349.390000", "155349.406000", "155349.406000", "155349.406000", "155349.406000", "155349.406000", "155349.406000", "155349.421000", "155409.359000", "155409.359000", "155409.359000", "155409.359000", "155409.359000", "155409.359000", "155409.375000", "155409.375000", "155409.375000", "155409.375000", "155409.375000", "155409.375000", "155409.375000", "155409.390000", "155409.390000", "155409.390000", "155409.390000", "155409.390000", "155409.406000", "155409.406000", "155409.406000", "155409.406000", "155409.406000", "155409.406000", "155409.406000", "155409.421000", "155429.359000", "155429.359000", "155429.359000", "155429.359000", "155429.359000", "155429.375000", "155429.375000", "155429.375000", "155429.375000", "155429.375000", "155429.375000", "155429.375000", "155429.390000", "155429.390000", "155429.390000", "155429.390000", "155429.390000", "155429.390000", "155429.390000", "155429.406000", "155429.406000", "155429.406000", "155429.406000", "155429.406000", "155429.406000", "155449.359000", "155449.359000", "155449.359000", "155449.359000", "155449.359000", "155449.375000", "155449.375000", "155449.375000", "155449.375000", "155449.375000", "155449.375000", "155449.375000", "155449.390000", "155449.390000", "155449.390000", "155449.390000", "155449.390000", "155449.390000", "155449.406000", "155449.406000", "155449.406000", "155449.406000", "155449.406000", "155449.406000", "155449.421000", "155509.359000", "155509.359000", "155509.359000", "155509.359000", "155509.359000", "155509.359000", "155509.375000", "155509.375000", "155509.375000", "155509.375000", "155509.375000", "155509.375000", "155509.390000", "155509.390000", "155509.390000", "155509.390000", "155509.390000", "155509.390000", "155509.390000", "155509.406000", "155509.406000", "155509.406000", "155509.406000", "155509.406000", "155509.406000", "155509.406000", "155529.359000", "155529.359000", "155529.359000", "155529.359000", "155529.375000", "155529.375000", "155529.375000", "155529.375000", "155529.375000", "155529.375000", "155529.375000", "155529.390000", "155529.390000", "155529.390000", "155529.390000", "155529.390000", "155529.390000", "155529.406000", "155529.406000", "155529.406000", "155529.406000", "155529.406000", "155529.406000", "155529.406000", "155529.421000", "155549.359000", "155549.359000", "155549.359000", "155549.359000", "155549.359000", "155549.359000", "155549.375000", "155549.375000", "155549.375000", "155549.375000", "155549.375000", "155549.375000", "155549.390000", "155549.390000", "155549.390000", "155549.390000", "155549.390000", "155549.390000", "155549.390000", "155549.406000", "155549.406000", "155549.406000", "155549.406000", "155549.406000", "155549.406000", "155549.406000", "155609.359000", "155609.359000", "155609.359000", "155609.359000", "155609.359000", "155609.359000", "155609.375000", "155609.375000", "155609.375000", "155609.375000", "155609.375000", "155609.375000", "155609.390000", "155609.390000", "155609.390000", "155609.390000", "155609.390000", "155609.390000", "155609.390000", "155609.406000", "155609.406000", "155609.406000", "155609.406000", "155609.406000", "155609.406000", "155629.359000", "155629.359000", "155629.359000", "155629.359000", "155629.359000", "155629.359000", "155629.375000", "155629.375000", "155629.375000", "155629.375000", "155629.375000", "155629.375000", "155629.375000", "155629.390000", "155629.390000", "155629.390000", "155629.390000", "155629.390000", "155629.390000", "155629.406000", "155629.406000", "155629.406000", "155629.406000", "155629.406000", "155629.406000", "155629.421000", "155649.359000", "155649.359000", "155649.359000", "155649.359000", "155649.359000", "155649.375000", "155649.375000", "155649.375000", "155649.375000", "155649.375000", "155649.375000", "155649.375000", "155649.390000", "155649.390000", "155649.390000", "155649.390000", "155649.390000", "155649.390000", "155649.390000", "155649.406000", "155649.406000", "155649.406000", "155649.406000", "155649.406000", "155649.406000", "155709.359000", "155709.359000", "155709.359000", "155709.359000", "155709.359000", "155709.359000", "155709.375000", "155709.375000", "155709.375000", "155709.375000", "155709.375000", "155709.375000", "155709.375000", "155709.390000", "155709.390000", "155709.390000", "155709.390000", "155709.390000", "155709.390000", "155709.390000", "155709.406000", "155709.406000", "155709.406000", "155709.406000", "155709.406000", "155709.406000", "155729.359000", "155729.359000", "155729.359000", "155729.375000", "155729.375000", "155729.375000", "155729.375000", "155729.375000", "155729.375000", "155729.390000", "155729.390000", "155729.390000", "155729.390000", "155729.390000", "155729.390000", "155729.406000", "155729.406000", "155729.406000", "155729.406000", "155729.406000", "155729.406000", "155729.406000", "155729.421000", "155729.421000", "155729.421000", "155749.359000", "155749.359000", "155749.359000", "155749.359000", "155749.359000", "155749.359000", "155749.375000", "155749.375000", "155749.375000", "155749.375000", "155749.375000", "155749.375000", "155749.390000", "155749.390000", "155749.390000", "155749.390000", "155749.390000", "155749.390000", "155749.390000", "155749.406000", "155749.406000", "155749.406000", "155749.406000", "155749.406000", "155749.406000", "155749.406000", "155809.359000", "155809.359000", "155809.359000", "155809.359000", "155809.359000", "155809.359000", "155809.375000", "155809.375000", "155809.375000", "155809.375000", "155809.375000", "155809.375000", "155809.390000", "155809.390000", "155809.390000", "155809.390000", "155809.390000", "155809.390000", "155809.406000", "155809.406000", "155809.406000", "155809.406000", "155809.406000", "155809.406000", "155809.421000", "155817.515000", "155817.515000", "155817.515000", "155817.515000", "155817.515000", "155817.515000", "155817.515000", "155817.531000", "155817.531000", "155817.531000", "155817.531000"],
      "DataSetTrailingPadding": [
        "\u0000\u0000\u0000\u0000\u0000\u0000\u0000\u0000\u0000\u0000\u0000\u0000\u0000\u0000\u0000\u0000\u0000\u0000\u0000\u0000\u0000\u0000\u0000\u0000\u0000\u0000\u0000\u0000\u0000\u0000\u0000\u0000\u0000\u0000\u0000\u0000\u0000\u0000\u0000\u0000\u0000\u0000\u0000\u0000\u0000\u0000\u0000\u0000\u0000\u0000\u0000\u0000\u0000\u0000\u0000\u0000\u0000\u0000\u0000\u0000\u0000\u0000\u0000\u0000\u0000\u0000\u0000\u0000\u0000\u0000\u0000\u0000\u0000\u0000\u0000\u0000\u0000\u0000\u0000\u0000\u0000\u0000\u0000\u0000\u0000\u0000\u0000\u0000\u0000\u0000\u0000\u0000\u0000\u0000\u0000\u0000\u0000\u0000\u0000\u0000\u0000\u0000\u0000\u0000\u0000\u0000\u0000\u0000\u0000\u0000\u0000\u0000\u0000\u0000\u0000\u0000\u0000\u0000\u0000\u0000\u0000\u0000\u0000\u0000\u0000\u0000\u0000\u0000\u0000\u0000\u0000\u0000\u0000\u0000\u0000\u0000\u0000\u0000\u0000\u0000\u0000\u0000\u0000\u0000\u0000\u0000\u0000\u0000\u0000\u0000\u0000\u0000\u0000\u0000\u0000\u0000",
        "\u0000\u0000\u0000\u0000\u0000\u0000\u0000\u0000\u0000\u0000\u0000\u0000\u0000\u0000\u0000\u0000\u0000\u0000\u0000\u0000\u0000\u0000\u0000\u0000\u0000\u0000\u0000\u0000\u0000\u0000\u0000\u0000\u0000\u0000\u0000\u0000\u0000\u0000\u0000\u0000\u0000\u0000\u0000\u0000\u0000\u0000\u0000\u0000\u0000\u0000\u0000\u0000\u0000\u0000\u0000\u0000\u0000\u0000\u0000\u0000\u0000\u0000\u0000\u0000\u0000\u0000\u0000\u0000\u0000\u0000\u0000\u0000\u0000\u0000\u0000\u0000\u0000\u0000\u0000\u0000\u0000\u0000\u0000\u0000\u0000\u0000\u0000\u0000\u0000\u0000\u0000\u0000\u0000\u0000\u0000\u0000\u0000\u0000\u0000\u0000\u0000\u0000\u0000\u0000\u0000\u0000\u0000\u0000\u0000\u0000\u0000\u0000\u0000\u0000\u0000\u0000\u0000\u0000\u0000\u0000\u0000\u0000\u0000\u0000\u0000\u0000\u0000\u0000\u0000\u0000\u0000\u0000\u0000\u0000\u0000\u0000\u0000\u0000\u0000\u0000\u0000\u0000\u0000\u0000\u0000\u0000\u0000\u0000\u0000\u0000\u0000\u0000\u0000\u0000\u0000\u0000",
