{
  "AcquisitionMatrixPE": 104,
  "AcquisitionNumber": 1,
  "AcquisitionTime": "16:40:25.807500",
  "BandwidthPerPixelPhaseEncode": 13.935,
  "BaseResolution": 104,
  "CoilString": "C:HEA;HEP",
  "ConversionSoftware": "dcm2niix",
  "ConversionSoftwareVersion": "v1.0.20210317",
  "DerivedVendorReportedEchoSpacing": 0.000690017,
  "DeviceSerialNumber": "35450",
  "DwellTime": 2.5e-06,
  "EchoTime": 0.0348,
  "EffectiveEchoSpacing": 0.000690017,
  "FlipAngle": 55,
  "ImageComments": "Unaliased MB8/PE3",
  "ImageOrientationPatientDICOM": [0.999848, 0.000304494, -0.0174455, 4.81466e-08, 0.999848, 0.0174541],
  "ImageType": [
    "ORIGINAL",
    "PRIMARY",
    "M",
    "MB",
    "ND",
    "MOSAIC"
],
  "ImagingFrequency": 123.234,
  "InPlanePhaseEncodingDirectionDICOM": "COL",
  "InstitutionAddress": "Univeristy Ave. 197,Newark,North East,US,07102-1814",
  "InstitutionName": "RUBIC",
  "InstitutionalDepartmentName": "Department",
  "MRAcquisitionType": "2D",
  "MagneticFieldStrength": 3,
  "Manufacturer": "Siemens",
  "ManufacturersModelName": "TrioTim",
  "Modality": "MR",
  "MultibandAccelerationFactor": 8,
  "PartialFourier": 0.875,
  "PatientPosition": "HFS",
  "PercentPhaseFOV": 100,
  "PercentSampling": 100,
  "PhaseEncodingDirection": "j-",
  "PhaseEncodingSteps": 91,
  "PhaseResolution": 1,
  "PixelBandwidth": 1923,
  "ProcedureStepDescription": "Cole^Michael",
  "ProtocolName": "cmrr_mbep2d_bold_2mm_MB8_Task_8x",
  "PulseSequenceDetails": "%CustomerSeq%\\cmrr_mbep2d_bold",
  "ReceiveCoilName": "32Ch_Head",
  "ReconMatrixPE": 104,
  "RepetitionTime": 0.785,
  "SAR": 0.143074,
  "ScanOptions": "PFP\\FS",
  "ScanningSequence": "EP",
  "SequenceName": "epfid2d1_104",
  "SequenceVariant": "SK\\SS",
  "SeriesDescription": "cmrr_mbep2d_bold_2mm_MB8_Task_8x",
  "SeriesNumber": 25,
  "ShimSetting": [2063, -443, -7295, 354, 30, -482, 45, 57],
  "SliceThickness": 2,
  "SliceTiming": [0, 0.4375, 0.0875, 0.525, 0.175, 0.6125, 0.2625, 0.7, 0.35, 0, 0.4375, 0.0875, 0.525, 0.175, 0.6125, 0.2625, 0.7, 0.35, 0, 0.4375, 0.0875, 0.525, 0.175, 0.6125, 0.2625, 0.7, 0.35, 0, 0.4375, 0.0875, 0.525, 0.175, 0.6125, 0.2625, 0.7, 0.35, 0, 0.4375, 0.0875, 0.525, 0.175, 0.6125, 0.2625, 0.7, 0.35, 0, 0.4375, 0.0875, 0.525, 0.175, 0.6125, 0.2625, 0.7, 0.35, 0, 0.4375, 0.0875, 0.525, 0.175, 0.6125, 0.2625, 0.7, 0.35, 0, 0.4375, 0.0875, 0.525, 0.175, 0.6125, 0.2625, 0.7, 0.35],
  "SoftwareVersions": "syngo MR B19",
  "SpacingBetweenSlices": 2,
  "StationName": "MRC35450",
  "TaskName": "cpro",
  "TotalReadoutTime": 0.0710717,
  "TxRefAmp": 334.042,
  "dcmmeta_affine": [
    [-1.9996955394744873, 9.629313524328609e-08, -0.034896306693553925, 106.29036712646484],
    [-0.0006089875823818147, 1.9996953010559082, 0.0349029004573822, -90.44208526611328],
    [-0.03489099442958832, -0.03490821272134781, 1.999390959739685, -82.82828521728516],
    [0.0, 0.0, 0.0, 1.0]
],
  "dcmmeta_reorient_transform": [
    [0.0, -1.0, 0.0, 103.0],
    [1.0, 0.0, 0.0, 0.0],
    [0.0, 0.0, 1.0, 0.0],
    [0.0, 0.0, 0.0, 1.0]
],
  "dcmmeta_shape": [104, 104, 72, 581],
  "dcmmeta_slice_dim": 2,
  "dcmmeta_version": 0.6,
  "global": {
    "const": {
      "AcquisitionMatrix": [104, 0, 0, 104],
      "AngioFlag": "N",
      "BitsAllocated": 16,
      "BitsStored": 12,
      "Columns": 936,
      "EchoNumbers": 1,
      "EchoTime": 34.8,
      "EchoTrainLength": 1,
      "FlipAngle": 55.0,
      "HighBit": 11,
      "ImageOrientationPatient": [0.99984776937914, 0.00030449379544, -0.0174454965846, 4.8146568e-08, 0.99984766548581, 0.01745410618091],
      "ImagePositionPatient": [-938.16376033097, -947.65313371085, -86.43099406802],
      "ImageType": [
        "ORIGINAL",
        "PRIMARY",
        "M",
        "MB",
        "ND",
        "MOSAIC"
],
      "ImagedNucleus": "1H",
      "ImagingFrequency": 123.234434,
      "InPlanePhaseEncodingDirection": "COL",
      "MRAcquisitionType": "2D",
      "MagneticFieldStrength": 3.0,
      "Manufacturer": "SIEMENS",
      "ManufacturerModelName": "TrioTim",
      "Modality": "MR",
      "NumberOfAverages": 1.0,
      "NumberOfPhaseEncodingSteps": 91,
      "PercentPhaseFieldOfView": 100.0,
      "PercentSampling": 100.0,
      "PerformedProcedureStepStartTime": "150522.062000",
      "PhotometricInterpretation": "MONOCHROME2",
      "PixelBandwidth": 1923.0,
      "PixelRepresentation": 0,
      "PixelSpacing": [2.0, 2.0],
      "ProtocolName": "cmrr_mbep2d_bold_2mm_MB8_Task_8x",
      "RepetitionTime": 785.0,
      "Rows": 936,
      "SAR": 0.1430736028208,
      "SamplesPerPixel": 1,
      "ScanOptions": [
        "PFP",
        "FS"
],
      "ScanningSequence": "EP",
      "SequenceName": "epfid2d1_104",
      "SequenceVariant": [
        "SK",
        "SS"
],
      "SeriesDescription": "cmrr_mbep2d_bold_2mm_MB8_Task_8x",
      "SeriesNumber": 25,
      "SeriesTime": "181336.078000",
      "SliceLocation": -86.235976436838,
      "SliceThickness": 2.0,
      "SmallestImagePixelValue": 0,
      "SoftwareVersions": "syngo MR B19",
      "SpacingBetweenSlices": 2.0000000217543,
      "SpecificCharacterSet": "ISO_IR 100",
      "StudyID": "1",
      "StudyTime": "150522.000000",
      "TransmitCoilName": "Body",
      "VariableFlipAngleFlag": "N",
      "WindowCenterWidthExplanation": "Algo1",
      "dBdt": 0.0},
    "slices": {}
  },
  "time": {
    "samples": {
      "AcquisitionNumber": [1, 2, 3, 4, 5, 6, 7, 8, 9, 10, 11, 12, 13, 14, 15, 16, 17, 18, 19, 20, 21, 22, 23, 24, 25, 26, 27, 28, 29, 30, 31, 32, 33, 34, 35, 36, 37, 38, 39, 40, 41, 42, 43, 44, 45, 46, 47, 48, 49, 50, 51, 52, 53, 54, 55, 56, 57, 58, 59, 60, 61, 62, 63, 64, 65, 66, 67, 68, 69, 70, 71, 72, 73, 74, 75, 76, 77, 78, 79, 80, 81, 82, 83, 84, 85, 86, 87, 88, 89, 90, 91, 92, 93, 94, 95, 96, 97, 98, 99, 100, 101, 102, 103, 104, 105, 106, 107, 108, 109, 110, 111, 112, 113, 114, 115, 116, 117, 118, 119, 120, 121, 122, 123, 124, 125, 126, 127, 128, 129, 130, 131, 132, 133, 134, 135, 136, 137, 138, 139, 140, 141, 142, 143, 144, 145, 146, 147, 148, 149, 150, 151, 152, 153, 154, 155, 156, 157, 158, 159, 160, 161, 162, 163, 164, 165, 166, 167, 168, 169, 170, 171, 172, 173, 174, 175, 176, 177, 178, 179, 180, 181, 182, 183, 184, 185, 186, 187, 188, 189, 190, 191, 192, 193, 194, 195, 196, 197, 198, 199, 200, 201, 202, 203, 204, 205, 206, 207, 208, 209, 210, 211, 212, 213, 214, 215, 216, 217, 218, 219, 220, 221, 222, 223, 224, 225, 226, 227, 228, 229, 230, 231, 232, 233, 234, 235, 236, 237, 238, 239, 240, 241, 242, 243, 244, 245, 246, 247, 248, 249, 250, 251, 252, 253, 254, 255, 256, 257, 258, 259, 260, 261, 262, 263, 264, 265, 266, 267, 268, 269, 270, 271, 272, 273, 274, 275, 276, 277, 278, 279, 280, 281, 282, 283, 284, 285, 286, 287, 288, 289, 290, 291, 292, 293, 294, 295, 296, 297, 298, 299, 300, 301, 302, 303, 304, 305, 306, 307, 308, 309, 310, 311, 312, 313, 314, 315, 316, 317, 318, 319, 320, 321, 322, 323, 324, 325, 326, 327, 328, 329, 330, 331, 332, 333, 334, 335, 336, 337, 338, 339, 340, 341, 342, 343, 344, 345, 346, 347, 348, 349, 350, 351, 352, 353, 354, 355, 356, 357, 358, 359, 360, 361, 362, 363, 364, 365, 366, 367, 368, 369, 370, 371, 372, 373, 374, 375, 376, 377, 378, 379, 380, 381, 382, 383, 384, 385, 386, 387, 388, 389, 390, 391, 392, 393, 394, 395, 396, 397, 398, 399, 400, 401, 402, 403, 404, 405, 406, 407, 408, 409, 410, 411, 412, 413, 414, 415, 416, 417, 418, 419, 420, 421, 422, 423, 424, 425, 426, 427, 428, 429, 430, 431, 432, 433, 434, 435, 436, 437, 438, 439, 440, 441, 442, 443, 444, 445, 446, 447, 448, 449, 450, 451, 452, 453, 454, 455, 456, 457, 458, 459, 460, 461, 462, 463, 464, 465, 466, 467, 468, 469, 470, 471, 472, 473, 474, 475, 476, 477, 478, 479, 480, 481, 482, 483, 484, 485, 486, 487, 488, 489, 490, 491, 492, 493, 494, 495, 496, 497, 498, 499, 500, 501, 502, 503, 504, 505, 506, 507, 508, 509, 510, 511, 512, 513, 514, 515, 516, 517, 518, 519, 520, 521, 522, 523, 524, 525, 526, 527, 528, 529, 530, 531, 532, 533, 534, 535, 536, 537, 538, 539, 540, 541, 542, 543, 544, 545, 546, 547, 548, 549, 550, 551, 552, 553, 554, 555, 556, 557, 558, 559, 560, 561, 562, 563, 564, 565, 566, 567, 568, 569, 570, 571, 572, 573, 574, 575, 576, 577, 578, 579, 580, 581],
      "AcquisitionTime": ["164025.807500", "164026.597500", "164027.385000", "164028.172500", "164028.960000", "164029.750000", "164030.537500", "164031.325000", "164032.112500", "164032.902500", "164033.690000", "164034.477500", "164035.265000", "164036.055000", "164036.842500", "164037.630000", "164038.417500", "164039.207500", "164039.995000", "164040.782500", "164041.572500", "164042.360000", "164043.147500", "164043.935000", "164044.725000", "164045.512500", "164046.300000", "164047.087500", "164047.877500", "164048.665000", "164049.452500", "164050.240000", "164051.030000", "164051.817500", "164052.605000", "164053.392500", "164054.182500", "164054.970000", "164055.757500", "164056.545000", "164057.335000", "164058.122500", "164058.910000", "164059.700000", "164100.487500", "164101.275000", "164102.062500", "164102.852500", "164103.640000", "164104.427500", "164105.215000", "164106.005000", "164106.792500", "164107.580000", "164108.367500", "164109.157500", "164109.945000", "164110.732500", "164111.520000", "164112.310000", "164113.097500", "164113.885000", "164114.672500", "164115.462500", "164116.250000", "164117.037500", "164117.827500", "164118.615000", "164119.402500", "164120.190000", "164120.980000", "164121.767500", "164122.555000", "164123.342500", "164124.132500", "164124.920000", "164125.707500", "164126.495000", "164127.285000", "164128.072500", "164128.860000", "164129.647500", "164130.437500", "164131.225000", "164132.012500", "164132.800000", "164133.590000", "164134.377500", "164135.165000", "164135.955000", "164136.742500", "164137.530000", "164138.317500", "164139.107500", "164139.895000", "164140.682500", "164141.470000", "164142.260000", "164143.047500", "164143.835000", "164144.622500", "164145.412500", "164146.200000", "164146.987500", "164147.775000", "164148.565000", "164149.352500", "164150.140000", "164150.927500", "164151.717500", "164152.505000", "164153.292500", "164154.082500", "164154.870000", "164155.657500", "164156.445000", "164157.235000", "164158.022500", "164158.810000", "164159.597500", "164200.387500", "164201.175000", "164201.962500", "164202.750000", "164203.540000", "164204.327500", "164205.115000", "164205.902500", "164206.692500", "164207.480000", "164208.267500", "164209.055000", "164209.845000", "164210.632500", "164211.420000", "164212.210000", "164212.997500", "164213.785000", "164214.572500", "164215.362500", "164216.150000", "164216.937500", "164217.725000", "164218.515000", "164219.302500", "164220.090000", "164220.877500", "164221.667500", "164222.455000", "164223.242500", "164224.030000", "164224.820000", "164225.607500", "164226.395000", "164227.182500", "164227.972500", "164228.760000", "164229.547500", "164230.337500", "164231.125000", "164231.912500", "164232.700000", "164233.490000", "164234.277500", "164235.065000", "164235.852500", "164236.642500", "164237.430000", "164238.217500", "164239.005000", "164239.795000", "164240.582500", "164241.370000", "164242.157500", "164242.947500", "164243.735000", "164244.522500", "164245.310000", "164246.100000", "164246.887500", "164247.675000", "164248.465000", "164249.252500", "164250.040000", "164250.827500", "164251.617500", "164252.405000", "164253.192500", "164253.980000", "164254.770000", "164255.557500", "164256.345000", "164257.132500", "164257.922500", "164258.710000", "164259.497500", "164300.285000", "164301.075000", "164301.862500", "164302.650000", "164303.437500", "164304.227500", "164305.015000", "164305.802500", "164306.592500", "164307.380000", "164308.167500", "164308.955000", "164309.745000", "164310.532500", "164311.320000", "164312.107500", "164312.897500", "164313.685000", "164314.472500", "164315.260000", "164316.050000", "164316.837500", "164317.625000", "164318.412500", "164319.202500", "164319.990000", "164320.777500", "164321.567500", "164322.355000", "164323.142500", "164323.930000", "164324.720000", "164325.507500", "164326.295000", "164327.082500", "164327.872500", "164328.660000", "164329.447500", "164330.235000", "164331.025000", "164331.812500", "164332.600000", "164333.387500", "164334.177500", "164334.965000", "164335.752500", "164336.540000", "164337.330000", "164338.117500", "164338.905000", "164339.695000", "164340.482500", "164341.270000", "164342.057500", "164342.847500", "164343.635000", "164344.422500", "164345.210000", "164346.000000", "164346.787500", "164347.575000", "164348.362500", "164349.152500", "164349.940000", "164350.727500", "164351.515000", "164352.305000", "164353.092500", "164353.880000", "164354.667500", "164355.457500", "164356.245000", "164357.032500", "164357.822500", "164358.610000", "164359.397500", "164400.185000", "164400.975000", "164401.762500", "164402.550000", "164403.337500", "164404.127500", "164404.915000", "164405.702500", "164406.490000", "164407.280000", "164408.067500", "164408.855000", "164409.642500", "164410.432500", "164411.220000", "164412.007500", "164412.795000", "164413.585000", "164414.372500", "164415.160000", "164415.950000", "164416.737500", "164417.525000", "164418.312500", "164419.102500", "164419.890000", "164420.677500", "164421.465000", "164422.255000", "164423.042500", "164423.830000", "164424.617500", "164425.407500", "164426.195000", "164426.982500", "164427.770000", "164428.560000", "164429.347500", "164430.135000", "164430.922500", "164431.712500", "164432.500000", "164433.287500", "164434.077500", "164434.865000", "164435.652500", "164436.440000", "164437.230000", "164438.017500", "164438.805000", "164439.592500", "164440.382500", "164441.170000", "164441.957500", "164442.745000", "164443.535000", "164444.322500", "164445.110000", "164445.897500", "164446.687500", "164447.475000", "164448.262500", "164449.050000", "164449.840000", "164450.627500", "164451.415000", "164452.205000", "164452.992500", "164453.780000", "164454.567500", "164455.357500", "164456.145000", "164456.932500", "164457.720000", "164458.510000", "164459.297500", "164500.085000", "164500.872500", "164501.662500", "164502.450000", "164503.237500", "164504.025000", "164504.815000", "164505.602500", "164506.390000", "164507.177500", "164507.967500", "164508.755000", "164509.542500", "164510.332500", "164511.120000", "164511.907500", "164512.695000", "164513.485000", "164514.272500", "164515.060000", "164515.847500", "164516.637500", "164517.425000", "164518.212500", "164519.000000", "164519.790000", "164520.577500", "164521.365000", "164522.152500", "164522.942500", "164523.730000", "164524.517500", "164525.305000", "164526.095000", "164526.882500", "164527.670000", "164528.460000", "164529.247500", "164530.035000", "164530.822500", "164531.612500", "164532.400000", "164533.187500", "164533.975000", "164534.765000", "164535.552500", "164536.340000", "164537.127500", "164537.917500", "164538.705000", "164539.492500", "164540.280000", "164541.070000", "164541.857500", "164542.645000", "164543.432500", "164544.222500", "164545.010000", "164545.797500", "164546.587500", "164547.375000", "164548.162500", "164548.950000", "164549.740000", "164550.527500", "164551.315000", "164552.102500", "164552.892500", "164553.680000", "164554.467500", "164555.255000", "164556.045000", "164556.832500", "164557.620000", "164558.407500", "164559.197500", "164559.985000", "164600.772500", "164601.560000", "164602.350000", "164603.137500", "164603.925000", "164604.715000", "164605.502500", "164606.290000", "164607.077500", "164607.867500", "164608.655000", "164609.442500", "164610.230000", "164611.020000", "164611.807500", "164612.595000", "164613.382500", "164614.172500", "164614.960000", "164615.747500", "164616.535000", "164617.325000", "164618.112500", "164618.900000", "164619.687500", "164620.477500", "164621.265000", "164622.052500", "164622.842500", "164623.630000", "164624.417500", "164625.205000", "164625.995000", "164626.782500", "164627.570000", "164628.357500", "164629.147500", "164629.935000", "164630.722500", "164631.510000", "164632.300000", "164633.087500", "164633.875000", "164634.662500", "164635.452500", "164636.240000", "164637.027500", "164637.817500", "164638.605000", "164639.392500", "164640.180000", "164640.970000", "164641.757500", "164642.545000", "164643.332500", "164644.122500", "164644.910000", "164645.697500", "164646.485000", "164647.275000", "164648.062500", "164648.850000", "164649.637500", "164650.427500", "164651.215000", "164652.002500", "164652.790000", "164653.580000", "164654.367500", "164655.155000", "164655.945000", "164656.732500", "164657.520000", "164658.307500", "164659.097500", "164659.885000", "164700.672500", "164701.460000", "164702.250000", "164703.037500", "164703.825000", "164704.612500", "164705.402500", "164706.190000", "164706.977500", "164707.765000", "164708.555000", "164709.342500", "164710.130000", "164710.917500", "164711.707500", "164712.495000", "164713.282500", "164714.072500", "164714.860000", "164715.647500", "164716.435000", "164717.225000", "164718.012500", "164718.800000", "164719.587500", "164720.377500", "164721.165000", "164721.952500", "164722.740000", "164723.530000", "164724.317500", "164725.105000", "164725.892500", "164726.682500", "164727.470000", "164728.257500", "164729.045000", "164729.835000", "164730.622500", "164731.410000", "164732.200000", "164732.987500", "164733.775000", "164734.562500", "164735.352500", "164736.140000", "164736.927500", "164737.715000", "164738.505000", "164739.292500", "164740.080000", "164740.867500", "164741.657500", "164742.445000", "164743.232500", "164744.020000", "164744.810000", "164745.597500", "164746.385000", "164747.172500", "164747.962500", "164748.750000", "164749.537500", "164750.327500", "164751.115000", "164751.902500", "164752.690000", "164753.480000", "164754.267500", "164755.055000", "164755.842500", "164756.632500", "164757.420000", "164758.207500", "164758.995000", "164759.785000", "164800.572500", "164801.360000", "164802.147500", "164802.937500"],
      "ContentTime": ["181336.078000", "181336.078000", "181336.093000", "181336.093000", "181336.093000", "181336.093000", "181336.093000", "181336.093000", "181336.093000", "181436.062000", "181436.062000", "181436.062000", "181436.062000", "181436.078000", "181436.078000", "181436.078000", "181436.078000", "181436.078000", "181436.078000", "181436.078000", "181436.093000", "181436.093000", "181436.093000", "181436.093000", "181436.093000", "181436.093000", "181436.093000", "181436.109000", "181436.109000", "181436.109000", "181436.109000", "181436.125000", "181436.125000", "181436.125000", "181436.125000", "181436.125000", "181436.125000", "181536.062000", "181536.062000", "181536.062000", "181536.062000", "181536.078000", "181536.078000", "181536.078000", "181536.078000", "181536.078000", "181536.078000", "181536.078000", "181536.093000", "181536.093000", "181536.093000", "181536.093000", "181536.093000", "181536.093000", "181536.109000", "181536.109000", "181536.109000", "181536.109000", "181536.109000", "181536.109000", "181536.109000", "181536.125000", "181536.125000", "181536.125000", "181536.125000", "181636.062000", "181636.062000", "181636.062000", "181636.062000", "181636.078000", "181636.078000", "181636.078000", "181636.078000", "181636.078000", "181636.078000", "181636.078000", "181636.093000", "181636.093000", "181636.093000", "181636.093000", "181636.093000", "181636.109000", "181636.109000", "181636.109000", "181636.109000", "181636.109000", "181636.109000", "181636.109000", "181636.125000", "181636.125000", "181636.125000", "181636.125000", "181636.125000", "181636.125000", "181736.062000", "181736.062000", "181736.062000", "181736.062000", "181736.078000", "181736.078000", "181736.078000", "181736.078000", "181736.078000", "181736.078000", "181736.078000", "181736.093000", "181736.093000", "181736.093000", "181736.093000", "181736.093000", "181736.093000", "181736.093000", "181736.109000", "181736.109000", "181736.109000", "181736.109000", "181736.109000", "181736.109000", "181736.109000", "181736.125000", "181736.125000", "181736.125000", "181836.062000", "181836.062000", "181836.062000", "181836.062000", "181836.078000", "181836.078000", "181836.078000", "181836.078000", "181836.078000", "181836.078000", "181836.078000", "181836.093000", "181836.093000", "181836.093000", "181836.093000", "181836.093000", "181836.093000", "181836.093000", "181836.109000", "181836.109000", "181836.109000", "181836.109000", "181836.109000", "181836.109000", "181836.109000", "181836.125000", "181836.125000", "181836.125000", "181936.062000", "181936.062000", "181936.062000", "181936.062000", "181936.078000", "181936.078000", "181936.078000", "181936.078000", "181936.078000", "181936.078000", "181936.078000", "181936.093000", "181936.093000", "181936.093000", "181936.093000", "181936.093000", "181936.093000", "181936.093000", "181936.109000", "181936.109000", "181936.109000", "181936.109000", "181936.109000", "181936.109000", "181936.109000", "181936.125000", "181936.125000", "181936.125000", "182036.062000", "182036.062000", "182036.062000", "182036.062000", "182036.078000", "182036.078000", "182036.078000", "182036.078000", "182036.078000", "182036.078000", "182036.078000", "182036.093000", "182036.093000", "182036.093000", "182036.093000", "182036.093000", "182036.093000", "182036.093000", "182036.109000", "182036.109000", "182036.109000", "182036.109000", "182036.109000", "182036.109000", "182036.109000", "182036.125000", "182036.125000", "182036.125000", "182136.062000", "182136.062000", "182136.062000", "182136.062000", "182136.078000", "182136.078000", "182136.078000", "182136.078000", "182136.078000", "182136.078000", "182136.078000", "182136.093000", "182136.093000", "182136.093000", "182136.093000", "182136.093000", "182136.093000", "182136.093000", "182136.109000", "182136.109000", "182136.109000", "182136.109000", "182136.109000", "182136.125000", "182136.125000", "182136.125000", "182136.125000", "182136.125000", "182236.062000", "182236.062000", "182236.062000", "182236.062000", "182236.078000", "182236.078000", "182236.078000", "182236.078000", "182236.078000", "182236.078000", "182236.093000", "182236.093000", "182236.093000", "182236.093000", "182236.093000", "182236.093000", "182236.093000", "182236.109000", "182236.109000", "182236.109000", "182236.109000", "182236.109000", "182236.109000", "182236.125000", "182236.125000", "182236.125000", "182236.125000", "182236.125000", "182336.062000", "182336.062000", "182336.062000", "182336.062000", "182336.078000", "182336.078000", "182336.078000", "182336.078000", "182336.078000", "182336.078000", "182336.078000", "182336.093000", "182336.093000", "182336.093000", "182336.093000", "182336.093000", "182336.093000", "182336.093000", "182336.109000", "182336.109000", "182336.109000", "182336.109000", "182336.109000", "182336.109000", "182336.109000", "182336.125000", "182336.125000", "182336.125000", "182436.062000", "182436.062000", "182436.062000", "182436.062000", "182436.078000", "182436.078000", "182436.078000", "182436.078000", "182436.078000", "182436.078000", "182436.078000", "182436.093000", "182436.093000", "182436.093000", "182436.093000", "182436.093000", "182436.093000", "182436.093000", "182436.109000", "182436.109000", "182436.109000", "182436.109000", "182436.109000", "182436.109000", "182436.109000", "182436.125000", "182436.125000", "182436.125000", "182436.125000", "182536.062000", "182536.062000", "182536.062000", "182536.062000", "182536.078000", "182536.078000", "182536.078000", "182536.078000", "182536.078000", "182536.078000", "182536.078000", "182536.093000", "182536.093000", "182536.093000", "182536.093000", "182536.093000", "182536.093000", "182536.093000", "182536.109000", "182536.109000", "182536.109000", "182536.109000", "182536.109000", "182536.125000", "182536.125000", "182536.125000", "182536.125000", "182536.125000", "182636.062000", "182636.062000", "182636.062000", "182636.062000", "182636.078000", "182636.078000", "182636.078000", "182636.078000", "182636.078000", "182636.078000", "182636.078000", "182636.093000", "182636.093000", "182636.093000", "182636.093000", "182636.093000", "182636.093000", "182636.093000", "182636.109000", "182636.109000", "182636.109000", "182636.109000", "182636.109000", "182636.109000", "182636.125000", "182636.125000", "182636.125000", "182636.125000", "182736.062000", "182736.062000", "182736.062000", "182736.062000", "182736.078000", "182736.078000", "182736.078000", "182736.078000", "182736.078000", "182736.078000", "182736.078000", "182736.093000", "182736.093000", "182736.093000", "182736.093000", "182736.093000", "182736.093000", "182736.109000", "182736.109000", "182736.109000", "182736.109000", "182736.109000", "182736.109000", "182736.109000", "182736.125000", "182736.125000", "182736.125000", "182736.125000", "182836.062000", "182836.062000", "182836.062000", "182836.062000", "182836.078000", "182836.078000", "182836.078000", "182836.078000", "182836.078000", "182836.078000", "182836.078000", "182836.093000", "182836.093000", "182836.093000", "182836.093000", "182836.093000", "182836.093000", "182836.093000", "182836.109000", "182836.109000", "182836.109000", "182836.109000", "182836.109000", "182836.109000", "182836.125000", "182836.125000", "182836.125000", "182836.125000", "182936.062000", "182936.062000", "182936.062000", "182936.062000", "182936.078000", "182936.078000", "182936.078000", "182936.078000", "182936.078000", "182936.078000", "182936.078000", "182936.093000", "182936.093000", "182936.093000", "182936.093000", "182936.093000", "182936.093000", "182936.093000", "182936.109000", "182936.109000", "182936.109000", "182936.109000", "182936.109000", "182936.109000", "182936.109000", "182936.125000", "182936.125000", "182936.125000", "183016.062000", "183016.062000", "183016.062000", "183016.062000", "183016.078000", "183016.078000", "183016.078000", "183016.078000", "183016.078000", "183016.078000", "183016.093000", "183016.093000", "183016.093000", "183016.093000", "183016.093000", "183016.093000", "183016.093000", "183016.109000", "183016.109000", "183116.062000", "183116.062000", "183116.062000", "183116.062000", "183116.078000", "183116.078000", "183116.078000", "183116.078000", "183116.078000", "183116.078000", "183116.078000", "183116.093000", "183116.093000", "183116.093000", "183116.093000", "183116.093000", "183116.093000", "183116.109000", "183116.109000", "183116.109000", "183116.109000", "183116.109000", "183116.109000", "183116.109000", "183116.125000", "183116.125000", "183116.125000", "183116.125000", "183216.062000", "183216.062000", "183216.062000", "183216.062000", "183216.078000", "183216.078000", "183216.078000", "183216.078000", "183216.078000", "183216.078000", "183216.078000", "183216.093000", "183216.093000", "183216.093000", "183216.093000", "183216.093000", "183216.093000", "183216.093000", "183216.109000", "183216.109000", "183216.109000", "183216.109000", "183216.109000", "183216.109000", "183216.109000", "183216.125000", "183216.125000", "183216.125000", "183316.062000", "183316.062000", "183316.062000", "183316.062000", "183316.078000", "183316.078000", "183316.078000", "183316.078000", "183316.078000", "183316.078000", "183316.078000", "183316.093000", "183316.093000", "183316.093000", "183316.093000", "183316.093000", "183316.093000", "183316.093000", "183316.109000", "183316.109000", "183316.109000", "183316.109000", "183316.109000", "183316.109000", "183316.125000", "183316.125000", "183316.125000", "183316.125000", "183354.140000", "183354.156000", "183354.156000", "183354.156000", "183354.156000", "183354.156000", "183354.156000", "183354.156000", "183354.171000", "183354.171000", "183354.171000", "183354.171000", "183354.171000", "183354.171000", "183354.171000", "183354.187000", "183354.187000", "183354.187000", "183354.187000"],
      "DataSetTrailingPadding": [
        "\u0000\u0000\u0000\u0000\u0000\u0000\u0000\u0000\u0000\u0000\u0000\u0000\u0000\u0000\u0000\u0000\u0000\u0000\u0000\u0000\u0000\u0000\u0000\u0000\u0000\u0000\u0000\u0000\u0000\u0000\u0000\u0000\u0000\u0000\u0000\u0000\u0000\u0000\u0000\u0000\u0000\u0000\u0000\u0000\u0000\u0000\u0000\u0000\u0000\u0000\u0000\u0000\u0000\u0000\u0000\u0000\u0000\u0000\u0000\u0000\u0000\u0000\u0000\u0000\u0000\u0000\u0000\u0000\u0000\u0000\u0000\u0000\u0000\u0000\u0000\u0000\u0000\u0000\u0000\u0000\u0000\u0000\u0000\u0000\u0000\u0000\u0000\u0000\u0000\u0000\u0000\u0000\u0000\u0000\u0000\u0000\u0000\u0000\u0000\u0000\u0000\u0000\u0000\u0000\u0000\u0000\u0000\u0000\u0000\u0000\u0000\u0000\u0000\u0000\u0000\u0000\u0000\u0000\u0000\u0000",
        "\u0000\u0000\u0000\u0000\u0000\u0000\u0000\u0000\u0000\u0000\u0000\u0000\u0000\u0000\u0000\u0000\u0000\u0000\u0000\u0000\u0000\u0000\u0000\u0000\u0000\u0000\u0000\u0000\u0000\u0000\u0000\u0000\u0000\u0000\u0000\u0000\u0000\u0000\u0000\u0000\u0000\u0000\u0000\u0000\u0000\u0000\u0000\u0000\u0000\u0000\u0000\u0000\u0000\u0000\u0000\u0000\u0000\u0000\u0000\u0000\u0000\u0000\u0000\u0000\u0000\u0000\u0000\u0000\u0000\u0000\u0000\u0000\u0000\u0000\u0000\u0000\u0000\u0000\u0000\u0000\u0000\u0000\u0000\u0000\u0000\u0000\u0000\u0000\u0000\u0000\u0000\u0000\u0000\u0000\u0000\u0000\u0000\u0000\u0000\u0000\u0000\u0000\u0000\u0000\u0000\u0000\u0000\u0000\u0000\u0000\u0000\u0000\u0000\u0000\u0000\u0000\u0000\u0000\u0000\u0000\u0000\u0000",
