{
  "AcquisitionMatrixPE": 104,
  "AcquisitionNumber": 1,
  "AcquisitionTime": "16:00:1.830000",
  "BandwidthPerPixelPhaseEncode": 13.935,
  "BaseResolution": 104,
  "CoilString": "C:HEA;HEP",
  "ConversionSoftware": "dcm2niix",
  "ConversionSoftwareVersion": "v1.0.20210317",
  "DerivedVendorReportedEchoSpacing": 0.000690017,
  "DeviceSerialNumber": "35450",
  "DwellTime": 2.5e-06,
  "EchoTime": 0.0348,
  "EffectiveEchoSpacing": 0.000690017,
  "FlipAngle": 55,
  "ImageComments": "Unaliased MB8/PE3",
  "ImageOrientationPatientDICOM": [0.999848, 0.000304494, -0.0174455, 4.81466e-08, 0.999848, 0.0174541],
  "ImageType": [
    "ORIGINAL",
    "PRIMARY",
    "M",
    "MB",
    "ND",
    "MOSAIC"
],
  "ImagingFrequency": 123.234,
  "InPlanePhaseEncodingDirectionDICOM": "COL",
  "InstitutionAddress": "Univeristy Ave. 197,Newark,North East,US,07102-1814",
  "InstitutionName": "RUBIC",
  "InstitutionalDepartmentName": "Department",
  "MRAcquisitionType": "2D",
  "MagneticFieldStrength": 3,
  "Manufacturer": "Siemens",
  "ManufacturersModelName": "TrioTim",
  "Modality": "MR",
  "MultibandAccelerationFactor": 8,
  "PartialFourier": 0.875,
  "PatientPosition": "HFS",
  "PercentPhaseFOV": 100,
  "PercentSampling": 100,
  "PhaseEncodingDirection": "j-",
  "PhaseEncodingSteps": 91,
  "PhaseResolution": 1,
  "PixelBandwidth": 1923,
  "ProcedureStepDescription": "Cole^Michael",
  "ProtocolName": "cmrr_mbep2d_bold_2mm_MB8_Task_8x",
  "PulseSequenceDetails": "%CustomerSeq%\\cmrr_mbep2d_bold",
  "ReceiveCoilName": "32Ch_Head",
  "ReconMatrixPE": 104,
  "RepetitionTime": 0.785,
  "SAR": 0.138097,
  "ScanOptions": "PFP\\FS",
  "ScanningSequence": "EP",
  "SequenceName": "epfid2d1_104",
  "SequenceVariant": "SK\\SS",
  "SeriesDescription": "cmrr_mbep2d_bold_2mm_MB8_Task_8x",
  "SeriesNumber": 15,
  "ShimSetting": [2063, -443, -7295, 354, 30, -482, 45, 57],
  "SliceThickness": 2,
  "SliceTiming": [0, 0.4375, 0.0875, 0.525, 0.175, 0.6125, 0.2625, 0.7, 0.35, 0, 0.4375, 0.0875, 0.525, 0.175, 0.6125, 0.2625, 0.7, 0.35, 0, 0.4375, 0.0875, 0.525, 0.175, 0.6125, 0.2625, 0.7, 0.35, 0, 0.4375, 0.0875, 0.525, 0.175, 0.6125, 0.2625, 0.7, 0.35, 0, 0.4375, 0.0875, 0.525, 0.175, 0.6125, 0.2625, 0.7, 0.35, 0, 0.4375, 0.0875, 0.525, 0.175, 0.6125, 0.2625, 0.7, 0.35, 0, 0.4375, 0.0875, 0.525, 0.175, 0.6125, 0.2625, 0.7, 0.35, 0, 0.4375, 0.0875, 0.525, 0.175, 0.6125, 0.2625, 0.7, 0.35],
  "SoftwareVersions": "syngo MR B19",
  "SpacingBetweenSlices": 2,
  "StationName": "MRC35450",
  "TaskName": "cpro",
  "TotalReadoutTime": 0.0710717,
  "TxRefAmp": 334.042,
  "dcmmeta_affine": [
    [-1.9996955394744873, 9.629313524328609e-08, -0.034896306693553925, 106.29036712646484],
    [-0.0006089875823818147, 1.9996953010559082, 0.0349029004573822, -90.44208526611328],
    [-0.03489099442958832, -0.03490821272134781, 1.999390959739685, -82.82828521728516],
    [0.0, 0.0, 0.0, 1.0]
],
  "dcmmeta_reorient_transform": [
    [0.0, -1.0, 0.0, 103.0],
    [1.0, 0.0, 0.0, 0.0],
    [0.0, 0.0, 1.0, 0.0],
    [0.0, 0.0, 0.0, 1.0]
],
  "dcmmeta_shape": [104, 104, 72, 581],
  "dcmmeta_slice_dim": 2,
  "dcmmeta_version": 0.6,
  "global": {
    "const": {
      "AcquisitionMatrix": [104, 0, 0, 104],
      "AngioFlag": "N",
      "BitsAllocated": 16,
      "BitsStored": 12,
      "Columns": 936,
      "EchoNumbers": 1,
      "EchoTime": 34.8,
      "EchoTrainLength": 1,
      "FlipAngle": 55.0,
      "HighBit": 11,
      "ImageOrientationPatient": [0.99984776937914, 0.00030449379544, -0.0174454965846, 4.8146568e-08, 0.99984766548581, 0.01745410618091],
      "ImagePositionPatient": [-938.16376033097, -947.65313371085, -86.43099406802],
      "ImageType": [
        "ORIGINAL",
        "PRIMARY",
        "M",
        "MB",
        "ND",
        "MOSAIC"
],
      "ImagedNucleus": "1H",
      "ImagingFrequency": 123.234434,
      "InPlanePhaseEncodingDirection": "COL",
      "MRAcquisitionType": "2D",
      "MagneticFieldStrength": 3.0,
      "Manufacturer": "SIEMENS",
      "ManufacturerModelName": "TrioTim",
      "Modality": "MR",
      "NumberOfAverages": 1.0,
      "NumberOfPhaseEncodingSteps": 91,
      "PercentPhaseFieldOfView": 100.0,
      "PercentSampling": 100.0,
      "PerformedProcedureStepStartTime": "150522.062000",
      "PhotometricInterpretation": "MONOCHROME2",
      "PixelBandwidth": 1923.0,
      "PixelRepresentation": 0,
      "PixelSpacing": [2.0, 2.0],
      "ProtocolName": "cmrr_mbep2d_bold_2mm_MB8_Task_8x",
      "RepetitionTime": 785.0,
      "Rows": 936,
      "SAR": 0.13809714698674,
      "SamplesPerPixel": 1,
      "ScanOptions": [
        "PFP",
        "FS"
],
      "ScanningSequence": "EP",
      "SequenceName": "epfid2d1_104",
      "SequenceVariant": [
        "SK",
        "SS"
],
      "SeriesDescription": "cmrr_mbep2d_bold_2mm_MB8_Task_8x",
      "SeriesNumber": 15,
      "SeriesTime": "162809.500000",
      "SliceLocation": -86.235976436838,
      "SliceThickness": 2.0,
      "SmallestImagePixelValue": 0,
      "SoftwareVersions": "syngo MR B19",
      "SpacingBetweenSlices": 2.0000000217543,
      "SpecificCharacterSet": "ISO_IR 100",
      "StudyID": "1",
      "StudyTime": "150522.000000",
      "TransmitCoilName": "Body",
      "VariableFlipAngleFlag": "N",
      "WindowCenterWidthExplanation": "Algo1",
      "dBdt": 0.0},
    "slices": {}
  },
  "time": {
    "samples": {
      "AcquisitionNumber": [1, 2, 3, 4, 5, 6, 7, 8, 9, 10, 11, 12, 13, 14, 15, 16, 17, 18, 19, 20, 21, 22, 23, 24, 25, 26, 27, 28, 29, 30, 31, 32, 33, 34, 35, 36, 37, 38, 39, 40, 41, 42, 43, 44, 45, 46, 47, 48, 49, 50, 51, 52, 53, 54, 55, 56, 57, 58, 59, 60, 61, 62, 63, 64, 65, 66, 67, 68, 69, 70, 71, 72, 73, 74, 75, 76, 77, 78, 79, 80, 81, 82, 83, 84, 85, 86, 87, 88, 89, 90, 91, 92, 93, 94, 95, 96, 97, 98, 99, 100, 101, 102, 103, 104, 105, 106, 107, 108, 109, 110, 111, 112, 113, 114, 115, 116, 117, 118, 119, 120, 121, 122, 123, 124, 125, 126, 127, 128, 129, 130, 131, 132, 133, 134, 135, 136, 137, 138, 139, 140, 141, 142, 143, 144, 145, 146, 147, 148, 149, 150, 151, 152, 153, 154, 155, 156, 157, 158, 159, 160, 161, 162, 163, 164, 165, 166, 167, 168, 169, 170, 171, 172, 173, 174, 175, 176, 177, 178, 179, 180, 181, 182, 183, 184, 185, 186, 187, 188, 189, 190, 191, 192, 193, 194, 195, 196, 197, 198, 199, 200, 201, 202, 203, 204, 205, 206, 207, 208, 209, 210, 211, 212, 213, 214, 215, 216, 217, 218, 219, 220, 221, 222, 223, 224, 225, 226, 227, 228, 229, 230, 231, 232, 233, 234, 235, 236, 237, 238, 239, 240, 241, 242, 243, 244, 245, 246, 247, 248, 249, 250, 251, 252, 253, 254, 255, 256, 257, 258, 259, 260, 261, 262, 263, 264, 265, 266, 267, 268, 269, 270, 271, 272, 273, 274, 275, 276, 277, 278, 279, 280, 281, 282, 283, 284, 285, 286, 287, 288, 289, 290, 291, 292, 293, 294, 295, 296, 297, 298, 299, 300, 301, 302, 303, 304, 305, 306, 307, 308, 309, 310, 311, 312, 313, 314, 315, 316, 317, 318, 319, 320, 321, 322, 323, 324, 325, 326, 327, 328, 329, 330, 331, 332, 333, 334, 335, 336, 337, 338, 339, 340, 341, 342, 343, 344, 345, 346, 347, 348, 349, 350, 351, 352, 353, 354, 355, 356, 357, 358, 359, 360, 361, 362, 363, 364, 365, 366, 367, 368, 369, 370, 371, 372, 373, 374, 375, 376, 377, 378, 379, 380, 381, 382, 383, 384, 385, 386, 387, 388, 389, 390, 391, 392, 393, 394, 395, 396, 397, 398, 399, 400, 401, 402, 403, 404, 405, 406, 407, 408, 409, 410, 411, 412, 413, 414, 415, 416, 417, 418, 419, 420, 421, 422, 423, 424, 425, 426, 427, 428, 429, 430, 431, 432, 433, 434, 435, 436, 437, 438, 439, 440, 441, 442, 443, 444, 445, 446, 447, 448, 449, 450, 451, 452, 453, 454, 455, 456, 457, 458, 459, 460, 461, 462, 463, 464, 465, 466, 467, 468, 469, 470, 471, 472, 473, 474, 475, 476, 477, 478, 479, 480, 481, 482, 483, 484, 485, 486, 487, 488, 489, 490, 491, 492, 493, 494, 495, 496, 497, 498, 499, 500, 501, 502, 503, 504, 505, 506, 507, 508, 509, 510, 511, 512, 513, 514, 515, 516, 517, 518, 519, 520, 521, 522, 523, 524, 525, 526, 527, 528, 529, 530, 531, 532, 533, 534, 535, 536, 537, 538, 539, 540, 541, 542, 543, 544, 545, 546, 547, 548, 549, 550, 551, 552, 553, 554, 555, 556, 557, 558, 559, 560, 561, 562, 563, 564, 565, 566, 567, 568, 569, 570, 571, 572, 573, 574, 575, 576, 577, 578, 579, 580, 581],
      "AcquisitionTime": ["160001.830000", "160002.617500", "160003.407500", "160004.195000", "160004.982500", "160005.770000", "160006.560000", "160007.347500", "160008.135000", "160008.922500", "160009.712500", "160010.500000", "160011.287500", "160012.075000", "160012.865000", "160013.652500", "160014.440000", "160015.230000", "160016.017500", "160016.805000", "160017.592500", "160018.382500", "160019.170000", "160019.957500", "160020.745000", "160021.535000", "160022.322500", "160023.110000", "160023.897500", "160024.687500", "160025.475000", "160026.262500", "160027.050000", "160027.840000", "160028.627500", "160029.415000", "160030.202500", "160030.992500", "160031.780000", "160032.567500", "160033.357500", "160034.145000", "160034.932500", "160035.720000", "160036.510000", "160037.297500", "160038.085000", "160038.872500", "160039.662500", "160040.450000", "160041.237500", "160042.025000", "160042.815000", "160043.602500", "160044.390000", "160045.177500", "160045.967500", "160046.755000", "160047.542500", "160048.330000", "160049.120000", "160049.907500", "160050.695000", "160051.485000", "160052.272500", "160053.060000", "160053.847500", "160054.637500", "160055.425000", "160056.212500", "160057.000000", "160057.790000", "160058.577500", "160059.365000", "160100.152500", "160100.942500", "160101.730000", "160102.517500", "160103.305000", "160104.095000", "160104.882500", "160105.670000", "160106.457500", "160107.247500", "160108.035000", "160108.822500", "160109.612500", "160110.400000", "160111.187500", "160111.975000", "160112.765000", "160113.552500", "160114.340000", "160115.127500", "160115.917500", "160116.705000", "160117.492500", "160118.280000", "160119.070000", "160119.857500", "160120.645000", "160121.432500", "160122.222500", "160123.010000", "160123.797500", "160124.585000", "160125.375000", "160126.162500", "160126.950000", "160127.740000", "160128.527500", "160129.315000", "160130.102500", "160130.892500", "160131.680000", "160132.467500", "160133.255000", "160134.045000", "160134.832500", "160135.620000", "160136.407500", "160137.197500", "160137.985000", "160138.772500", "160139.560000", "160140.350000", "160141.137500", "160141.925000", "160142.712500", "160143.502500", "160144.290000", "160145.077500", "160145.867500", "160146.655000", "160147.442500", "160148.230000", "160149.020000", "160149.807500", "160150.595000", "160151.382500", "160152.172500", "160152.960000", "160153.747500", "160154.535000", "160155.325000", "160156.112500", "160156.900000", "160157.687500", "160158.477500", "160159.265000", "160200.052500", "160200.840000", "160201.630000", "160202.417500", "160203.205000", "160203.995000", "160204.782500", "160205.570000", "160206.357500", "160207.147500", "160207.935000", "160208.722500", "160209.510000", "160210.300000", "160211.087500", "160211.875000", "160212.662500", "160213.452500", "160214.240000", "160215.027500", "160215.815000", "160216.605000", "160217.392500", "160218.180000", "160218.967500", "160219.757500", "160220.545000", "160221.332500", "160222.122500", "160222.910000", "160223.697500", "160224.485000", "160225.275000", "160226.062500", "160226.850000", "160227.637500", "160228.427500", "160229.215000", "160230.002500", "160230.790000", "160231.580000", "160232.367500", "160233.155000", "160233.942500", "160234.732500", "160235.520000", "160236.307500", "160237.095000", "160237.885000", "160238.672500", "160239.460000", "160240.250000", "160241.037500", "160241.825000", "160242.612500", "160243.402500", "160244.190000", "160244.977500", "160245.765000", "160246.555000", "160247.342500", "160248.130000", "160248.917500", "160249.707500", "160250.495000", "160251.282500", "160252.070000", "160252.860000", "160253.647500", "160254.435000", "160255.222500", "160256.012500", "160256.800000", "160257.587500", "160258.377500", "160259.165000", "160259.952500", "160300.740000", "160301.530000", "160302.317500", "160303.105000", "160303.892500", "160304.682500", "160305.470000", "160306.257500", "160307.045000", "160307.835000", "160308.622500", "160309.410000", "160310.197500", "160310.987500", "160311.775000", "160312.562500", "160313.350000", "160314.140000", "160314.927500", "160315.715000", "160316.505000", "160317.292500", "160318.080000", "160318.867500", "160319.657500", "160320.445000", "160321.232500", "160322.020000", "160322.810000", "160323.597500", "160324.385000", "160325.172500", "160325.962500", "160326.750000", "160327.537500", "160328.325000", "160329.115000", "160329.902500", "160330.690000", "160331.480000", "160332.267500", "160333.055000", "160333.842500", "160334.632500", "160335.420000", "160336.207500", "160336.995000", "160337.785000", "160338.572500", "160339.360000", "160340.147500", "160340.937500", "160341.725000", "160342.512500", "160343.300000", "160344.090000", "160344.877500", "160345.665000", "160346.452500", "160347.242500", "160348.030000", "160348.817500", "160349.607500", "160350.395000", "160351.182500", "160351.970000", "160352.760000", "160353.547500", "160354.335000", "160355.122500", "160355.912500", "160356.700000", "160357.487500", "160358.275000", "160359.065000", "160359.852500", "160400.640000", "160401.427500", "160402.217500", "160403.005000", "160403.792500", "160404.580000", "160405.370000", "160406.157500", "160406.945000", "160407.735000", "160408.522500", "160409.310000", "160410.097500", "160410.887500", "160411.675000", "160412.462500", "160413.250000", "160414.040000", "160414.827500", "160415.615000", "160416.402500", "160417.192500", "160417.980000", "160418.767500", "160419.555000", "160420.345000", "160421.132500", "160421.920000", "160422.707500", "160423.497500", "160424.285000", "160425.072500", "160425.862500", "160426.650000", "160427.437500", "160428.225000", "160429.015000", "160429.802500", "160430.590000", "160431.377500", "160432.167500", "160432.955000", "160433.742500", "160434.530000", "160435.320000", "160436.107500", "160436.895000", "160437.682500", "160438.472500", "160439.260000", "160440.047500", "160440.835000", "160441.625000", "160442.412500", "160443.200000", "160443.990000", "160444.777500", "160445.565000", "160446.352500", "160447.142500", "160447.930000", "160448.717500", "160449.505000", "160450.295000", "160451.082500", "160451.870000", "160452.657500", "160453.447500", "160454.235000", "160455.022500", "160455.810000", "160456.600000", "160457.387500", "160458.175000", "160458.962500", "160459.752500", "160500.540000", "160501.327500", "160502.117500", "160502.905000", "160503.692500", "160504.480000", "160505.270000", "160506.057500", "160506.845000", "160507.632500", "160508.422500", "160509.210000", "160509.997500", "160510.785000", "160511.575000", "160512.362500", "160513.150000", "160513.937500", "160514.727500", "160515.515000", "160516.302500", "160517.090000", "160517.880000", "160518.667500", "160519.455000", "160520.245000", "160521.032500", "160521.820000", "160522.607500", "160523.397500", "160524.185000", "160524.972500", "160525.760000", "160526.550000", "160527.337500", "160528.125000", "160528.912500", "160529.702500", "160530.490000", "160531.277500", "160532.065000", "160532.855000", "160533.642500", "160534.430000", "160535.217500", "160536.007500", "160536.795000", "160537.582500", "160538.372500", "160539.160000", "160539.947500", "160540.735000", "160541.525000", "160542.312500", "160543.100000", "160543.887500", "160544.677500", "160545.465000", "160546.252500", "160547.040000", "160547.830000", "160548.617500", "160549.405000", "160550.192500", "160550.982500", "160551.770000", "160552.557500", "160553.345000", "160554.135000", "160554.922500", "160555.710000", "160556.500000", "160557.287500", "160558.075000", "160558.862500", "160559.652500", "160600.440000", "160601.227500", "160602.015000", "160602.805000", "160603.592500", "160604.380000", "160605.167500", "160605.957500", "160606.745000", "160607.532500", "160608.320000", "160609.110000", "160609.897500", "160610.685000", "160611.472500", "160612.262500", "160613.050000", "160613.837500", "160614.627500", "160615.415000", "160616.202500", "160616.990000", "160617.780000", "160618.567500", "160619.355000", "160620.142500", "160620.932500", "160621.720000", "160622.507500", "160623.295000", "160624.085000", "160624.872500", "160625.660000", "160626.447500", "160627.237500", "160628.025000", "160628.812500", "160629.600000", "160630.390000", "160631.177500", "160631.965000", "160632.755000", "160633.542500", "160634.330000", "160635.117500", "160635.907500", "160636.695000", "160637.482500", "160638.270000", "160639.060000", "160639.847500", "160640.635000", "160641.422500", "160642.212500", "160643.000000", "160643.787500", "160644.575000", "160645.365000", "160646.152500", "160646.940000", "160647.730000", "160648.517500", "160649.305000", "160650.092500", "160650.882500", "160651.670000", "160652.457500", "160653.245000", "160654.035000", "160654.822500", "160655.610000", "160656.397500", "160657.187500", "160657.975000", "160658.762500", "160659.550000", "160700.340000", "160701.127500", "160701.915000", "160702.702500", "160703.492500", "160704.280000", "160705.067500", "160705.857500", "160706.645000", "160707.432500", "160708.220000", "160709.010000", "160709.797500", "160710.585000", "160711.372500", "160712.162500", "160712.950000", "160713.737500", "160714.525000", "160715.315000", "160716.102500", "160716.890000", "160717.677500", "160718.467500", "160719.255000", "160720.042500", "160720.830000", "160721.620000", "160722.407500", "160723.195000", "160723.985000", "160724.772500", "160725.560000", "160726.347500", "160727.137500", "160727.925000", "160728.712500", "160729.500000", "160730.290000", "160731.077500", "160731.865000", "160732.652500", "160733.442500", "160734.230000", "160735.017500", "160735.805000", "160736.595000", "160737.382500", "160738.170000", "160738.957500"],
      "ContentTime": ["162809.500000", "162809.500000", "162809.500000", "162809.500000", "162809.500000", "162809.515000", "162809.515000", "162809.515000", "162829.468000", "162829.484000", "162829.484000", "162829.484000", "162829.484000", "162829.484000", "162829.484000", "162829.484000", "162829.500000", "162929.468000", "162929.484000", "162929.484000", "162929.484000", "162929.484000", "162929.484000", "162929.484000", "162929.484000", "162929.500000", "162929.500000", "162929.500000", "162929.500000", "162929.500000", "162929.500000", "162929.515000", "162929.515000", "162929.515000", "162929.515000", "162929.515000", "162929.531000", "162929.531000", "162929.531000", "162929.531000", "162929.531000", "162929.531000", "162929.531000", "162929.546000", "163029.468000", "163029.484000", "163029.484000", "163029.484000", "163029.484000", "163029.484000", "163029.484000", "163029.484000", "163029.500000", "163029.500000", "163029.500000", "163029.500000", "163029.500000", "163029.500000", "163029.500000", "163029.515000", "163029.515000", "163029.515000", "163029.515000", "163029.515000", "163029.515000", "163029.531000", "163029.531000", "163029.531000", "163029.531000", "163029.531000", "163029.531000", "163029.546000", "163129.468000", "163129.484000", "163129.484000", "163129.484000", "163129.484000", "163129.484000", "163129.484000", "163129.500000", "163129.500000", "163129.500000", "163129.500000", "163129.500000", "163129.500000", "163129.515000", "163129.515000", "163129.515000", "163129.515000", "163129.515000", "163129.515000", "163129.515000", "163129.531000", "163129.531000", "163129.531000", "163129.531000", "163129.531000", "163129.531000", "163129.531000", "163229.468000", "163229.484000", "163229.484000", "163229.484000", "163229.484000", "163229.484000", "163229.484000", "163229.484000", "163229.500000", "163229.500000", "163229.500000", "163229.500000", "163229.500000", "163229.500000", "163229.500000", "163229.515000", "163229.515000", "163229.515000", "163229.515000", "163229.515000", "163229.515000", "163229.515000", "163229.531000", "163229.531000", "163229.531000", "163229.531000", "163229.531000", "163229.531000", "163329.468000", "163329.484000", "163329.484000", "163329.484000", "163329.484000", "163329.484000", "163329.484000", "163329.484000", "163329.500000", "163329.500000", "163329.500000", "163329.500000", "163329.500000", "163329.500000", "163329.500000", "163329.515000", "163329.515000", "163329.515000", "163329.515000", "163329.515000", "163329.515000", "163329.515000", "163329.531000", "163329.531000", "163329.531000", "163329.531000", "163329.531000", "163329.531000", "163429.468000", "163429.484000", "163429.484000", "163429.484000", "163429.484000", "163429.484000", "163429.484000", "163429.484000", "163429.500000", "163429.500000", "163429.500000", "163429.500000", "163429.500000", "163429.500000", "163429.500000", "163429.515000", "163429.515000", "163429.515000", "163429.515000", "163429.515000", "163429.515000", "163429.515000", "163429.531000", "163429.531000", "163429.531000", "163429.531000", "163429.531000", "163529.468000", "163529.484000", "163529.484000", "163529.484000", "163529.484000", "163529.484000", "163529.484000", "163529.500000", "163529.500000", "163529.500000", "163529.500000", "163529.500000", "163529.500000", "163529.500000", "163529.515000", "163529.515000", "163529.515000", "163529.515000", "163529.515000", "163529.515000", "163529.531000", "163529.531000", "163529.531000", "163529.531000", "163529.531000", "163529.546000", "163529.546000", "163529.546000", "163629.468000", "163629.484000", "163629.484000", "163629.484000", "163629.484000", "163629.484000", "163629.500000", "163629.500000", "163629.500000", "163629.500000", "163629.500000", "163629.500000", "163629.500000", "163629.515000", "163629.515000", "163629.515000", "163629.515000", "163629.515000", "163629.515000", "163629.515000", "163629.531000", "163629.531000", "163629.531000", "163629.531000", "163629.531000", "163629.531000", "163629.531000", "163729.468000", "163729.484000", "163729.484000", "163729.484000", "163729.484000", "163729.484000", "163729.484000", "163729.484000", "163729.500000", "163729.500000", "163729.500000", "163729.500000", "163729.500000", "163729.500000", "163729.500000", "163729.515000", "163729.515000", "163729.515000", "163729.515000", "163729.515000", "163729.515000", "163729.515000", "163729.531000", "163729.531000", "163729.531000", "163729.531000", "163729.531000", "163829.468000", "163829.484000", "163829.484000", "163829.484000", "163829.484000", "163829.484000", "163829.484000", "163829.484000", "163829.500000", "163829.500000", "163829.500000", "163829.500000", "163829.500000", "163829.500000", "163829.500000", "163829.515000", "163829.515000", "163829.515000", "163829.515000", "163829.515000", "163829.515000", "163829.515000", "163829.531000", "163829.531000", "163829.531000", "163829.531000", "163829.531000", "163829.531000", "163929.468000", "163929.484000", "163929.484000", "163929.484000", "163929.484000", "163929.484000", "163929.484000", "163929.500000", "163929.500000", "163929.500000", "163929.500000", "163929.500000", "163929.500000", "163929.500000", "163929.515000", "163929.515000", "163929.515000", "163929.515000", "163929.515000", "163929.515000", "163929.515000", "163929.531000", "163929.531000", "163929.531000", "163929.531000", "163929.531000", "163929.531000", "164029.468000", "164029.484000", "164029.484000", "164029.484000", "164029.484000", "164029.484000", "164029.484000", "164029.500000", "164029.500000", "164029.500000", "164029.500000", "164029.500000", "164029.500000", "164029.500000", "164029.515000", "164029.515000", "164029.515000", "164029.515000", "164029.515000", "164029.515000", "164029.515000", "164029.531000", "164029.531000", "164029.531000", "164029.531000", "164029.531000", "164029.531000", "164029.531000", "164129.468000", "164129.484000", "164129.484000", "164129.484000", "164129.484000", "164129.484000", "164129.484000", "164129.484000", "164129.500000", "164129.500000", "164129.500000", "164129.500000", "164129.500000", "164129.500000", "164129.515000", "164129.515000", "164129.515000", "164129.515000", "164129.531000", "164129.531000", "164129.531000", "164129.531000", "164129.531000", "164129.531000", "164129.531000", "164129.546000", "164129.546000", "164229.468000", "164229.484000", "164229.484000", "164229.484000", "164229.484000", "164229.484000", "164229.484000", "164229.484000", "164229.500000", "164229.500000", "164229.500000", "164229.500000", "164229.500000", "164229.500000", "164229.500000", "164229.515000", "164229.515000", "164229.515000", "164229.515000", "164229.515000", "164229.515000", "164229.515000", "164229.531000", "164229.531000", "164229.531000", "164229.531000", "164229.531000", "164229.531000", "164329.468000", "164329.484000", "164329.484000", "164329.484000", "164329.484000", "164329.484000", "164329.500000", "164329.500000", "164329.500000", "164329.500000", "164329.500000", "164329.500000", "164329.500000", "164329.515000", "164329.515000", "164329.515000", "164329.515000", "164329.515000", "164329.515000", "164329.515000", "164329.531000", "164329.531000", "164329.531000", "164329.531000", "164329.531000", "164329.531000", "164329.531000", "164429.468000", "164429.484000", "164429.484000", "164429.484000", "164429.484000", "164429.484000", "164429.484000", "164429.484000", "164429.500000", "164429.500000", "164429.500000", "164429.500000", "164429.500000", "164429.500000", "164429.515000", "164429.515000", "164429.515000", "164429.515000", "164429.515000", "164429.515000", "164429.515000", "164429.531000", "164429.531000", "164429.531000", "164429.531000", "164429.531000", "164429.531000", "164529.468000", "164529.484000", "164529.484000", "164529.484000", "164529.484000", "164529.484000", "164529.484000", "164529.500000", "164529.500000", "164529.500000", "164529.500000", "164529.500000", "164529.500000", "164529.500000", "164529.515000", "164529.515000", "164529.515000", "164529.515000", "164529.515000", "164529.515000", "164529.515000", "164529.531000", "164529.531000", "164529.531000", "164529.531000", "164529.531000", "164529.531000", "164529.531000", "164629.468000", "164629.484000", "164629.484000", "164629.484000", "164629.484000", "164629.484000", "164629.484000", "164629.500000", "164629.500000", "164629.500000", "164629.500000", "164629.500000", "164629.500000", "164629.515000", "164629.515000", "164629.515000", "164629.515000", "164629.515000", "164629.515000", "164629.531000", "164629.531000", "164629.531000", "164629.531000", "164629.531000", "164629.531000", "164629.531000", "164629.531000", "164729.468000", "164729.484000", "164729.484000", "164729.484000", "164729.484000", "164729.484000", "164729.484000", "164729.484000", "164729.500000", "164729.500000", "164729.500000", "164729.500000", "164729.500000", "164729.500000", "164729.515000", "164729.515000", "164729.515000", "164729.515000", "164729.515000", "164729.515000", "164729.515000", "164729.515000", "164729.531000", "164729.531000", "164729.531000", "164729.531000", "164729.531000", "164829.468000", "164829.484000", "164829.484000", "164829.484000", "164829.484000", "164829.484000", "164829.484000", "164829.500000", "164829.500000", "164829.500000", "164829.500000", "164829.500000", "164829.500000", "164829.500000", "164829.515000", "164829.515000", "164829.515000", "164829.515000", "164829.515000", "164829.515000", "164829.515000", "164829.531000", "164829.531000", "164829.531000", "164829.531000", "164829.531000", "164829.531000", "164829.531000", "164900.171000", "164900.187000", "164900.187000", "164900.187000", "164900.187000", "164900.187000", "164900.187000", "164900.203000", "164900.203000", "164900.203000", "164900.203000", "164900.203000", "164900.203000", "164900.203000", "164900.218000"],
      "DataSetTrailingPadding": [
        "\u0000\u0000\u0000\u0000\u0000\u0000\u0000\u0000\u0000\u0000\u0000\u0000\u0000\u0000\u0000\u0000\u0000\u0000\u0000\u0000\u0000\u0000\u0000\u0000\u0000\u0000\u0000\u0000\u0000\u0000\u0000\u0000\u0000\u0000\u0000\u0000\u0000\u0000\u0000\u0000\u0000\u0000\u0000\u0000\u0000\u0000\u0000\u0000\u0000\u0000\u0000\u0000\u0000\u0000\u0000\u0000\u0000\u0000\u0000\u0000\u0000\u0000\u0000\u0000\u0000\u0000\u0000\u0000\u0000\u0000\u0000\u0000\u0000\u0000\u0000\u0000\u0000\u0000\u0000\u0000\u0000\u0000\u0000\u0000\u0000\u0000\u0000\u0000\u0000\u0000\u0000\u0000\u0000\u0000\u0000\u0000\u0000\u0000\u0000\u0000\u0000\u0000\u0000\u0000\u0000\u0000\u0000\u0000\u0000\u0000\u0000\u0000\u0000\u0000\u0000\u0000\u0000\u0000\u0000\u0000",
        "\u0000\u0000\u0000\u0000\u0000\u0000\u0000\u0000\u0000\u0000\u0000\u0000\u0000\u0000\u0000\u0000\u0000\u0000\u0000\u0000\u0000\u0000\u0000\u0000\u0000\u0000\u0000\u0000\u0000\u0000\u0000\u0000\u0000\u0000\u0000\u0000\u0000\u0000\u0000\u0000\u0000\u0000\u0000\u0000\u0000\u0000\u0000\u0000\u0000\u0000\u0000\u0000\u0000\u0000\u0000\u0000\u0000\u0000\u0000\u0000\u0000\u0000\u0000\u0000\u0000\u0000\u0000\u0000\u0000\u0000\u0000\u0000\u0000\u0000\u0000\u0000\u0000\u0000\u0000\u0000\u0000\u0000\u0000\u0000\u0000\u0000\u0000\u0000\u0000\u0000\u0000\u0000\u0000\u0000\u0000\u0000\u0000\u0000\u0000\u0000\u0000\u0000\u0000\u0000\u0000\u0000\u0000\u0000\u0000\u0000\u0000\u0000\u0000\u0000\u0000\u0000\u0000\u0000\u0000\u0000",
