{
  "AcquisitionMatrixPE": 104,
  "AcquisitionNumber": 1,
  "AcquisitionTime": "16:32:19.725000",
  "BandwidthPerPixelPhaseEncode": 13.935,
  "BaseResolution": 104,
  "CoilString": "C:HEA;HEP",
  "ConversionSoftware": "dcm2niix",
  "ConversionSoftwareVersion": "v1.0.20210317",
  "DerivedVendorReportedEchoSpacing": 0.000690017,
  "DeviceSerialNumber": "35450",
  "DwellTime": 2.5e-06,
  "EchoTime": 0.0348,
  "EffectiveEchoSpacing": 0.000690017,
  "FlipAngle": 55,
  "ImageComments": "Unaliased MB8/PE3",
  "ImageOrientationPatientDICOM": [0.999848, 0.000304494, -0.0174455, 4.81466e-08, 0.999848, 0.0174541],
  "ImageType": [
    "ORIGINAL",
    "PRIMARY",
    "M",
    "MB",
    "ND",
    "MOSAIC"
],
  "ImagingFrequency": 123.234,
  "InPlanePhaseEncodingDirectionDICOM": "COL",
  "InstitutionAddress": "Univeristy Ave. 197,Newark,North East,US,07102-1814",
  "InstitutionName": "RUBIC",
  "InstitutionalDepartmentName": "Department",
  "MRAcquisitionType": "2D",
  "MagneticFieldStrength": 3,
  "Manufacturer": "Siemens",
  "ManufacturersModelName": "TrioTim",
  "Modality": "MR",
  "MultibandAccelerationFactor": 8,
  "PartialFourier": 0.875,
  "PatientPosition": "HFS",
  "PercentPhaseFOV": 100,
  "PercentSampling": 100,
  "PhaseEncodingDirection": "j-",
  "PhaseEncodingSteps": 91,
  "PhaseResolution": 1,
  "PixelBandwidth": 1923,
  "ProcedureStepDescription": "Cole^Michael",
  "ProtocolName": "cmrr_mbep2d_bold_2mm_MB8_Task_8x",
  "PulseSequenceDetails": "%CustomerSeq%\\cmrr_mbep2d_bold",
  "ReceiveCoilName": "32Ch_Head",
  "ReconMatrixPE": 104,
  "RepetitionTime": 0.785,
  "SAR": 0.143074,
  "ScanOptions": "PFP\\FS",
  "ScanningSequence": "EP",
  "SequenceName": "epfid2d1_104",
  "SequenceVariant": "SK\\SS",
  "SeriesDescription": "cmrr_mbep2d_bold_2mm_MB8_Task_8x",
  "SeriesNumber": 23,
  "ShimSetting": [2063, -443, -7295, 354, 30, -482, 45, 57],
  "SliceThickness": 2,
  "SliceTiming": [0, 0.4375, 0.0875, 0.525, 0.175, 0.6125, 0.2625, 0.7, 0.35, 0, 0.4375, 0.0875, 0.525, 0.175, 0.6125, 0.2625, 0.7, 0.35, 0, 0.4375, 0.0875, 0.525, 0.175, 0.6125, 0.2625, 0.7, 0.35, 0, 0.4375, 0.0875, 0.525, 0.175, 0.6125, 0.2625, 0.7, 0.35, 0, 0.4375, 0.0875, 0.525, 0.175, 0.6125, 0.2625, 0.7, 0.35, 0, 0.4375, 0.0875, 0.525, 0.175, 0.6125, 0.2625, 0.7, 0.35, 0, 0.4375, 0.0875, 0.525, 0.175, 0.6125, 0.2625, 0.7, 0.35, 0, 0.4375, 0.0875, 0.525, 0.175, 0.6125, 0.2625, 0.7, 0.35],
  "SoftwareVersions": "syngo MR B19",
  "SpacingBetweenSlices": 2,
  "StationName": "MRC35450",
  "TaskName": "cpro",
  "TotalReadoutTime": 0.0710717,
  "TxRefAmp": 334.042,
  "dcmmeta_affine": [
    [-1.9996955394744873, 9.629313524328609e-08, -0.034896306693553925, 106.29036712646484],
    [-0.0006089875823818147, 1.9996953010559082, 0.0349029004573822, -90.44208526611328],
    [-0.03489099442958832, -0.03490821272134781, 1.999390959739685, -82.82828521728516],
    [0.0, 0.0, 0.0, 1.0]
],
  "dcmmeta_reorient_transform": [
    [0.0, -1.0, 0.0, 103.0],
    [1.0, 0.0, 0.0, 0.0],
    [0.0, 0.0, 1.0, 0.0],
    [0.0, 0.0, 0.0, 1.0]
],
  "dcmmeta_shape": [104, 104, 72, 581],
  "dcmmeta_slice_dim": 2,
  "dcmmeta_version": 0.6,
  "global": {
    "const": {
      "AcquisitionMatrix": [104, 0, 0, 104],
      "AngioFlag": "N",
      "BitsAllocated": 16,
      "BitsStored": 12,
      "Columns": 936,
      "EchoNumbers": 1,
      "EchoTime": 34.8,
      "EchoTrainLength": 1,
      "FlipAngle": 55.0,
      "HighBit": 11,
      "ImageOrientationPatient": [0.99984776937914, 0.00030449379544, -0.0174454965846, 4.8146568e-08, 0.99984766548581, 0.01745410618091],
      "ImagePositionPatient": [-938.16376033097, -947.65313371085, -86.43099406802],
      "ImageType": [
        "ORIGINAL",
        "PRIMARY",
        "M",
        "MB",
        "ND",
        "MOSAIC"
],
      "ImagedNucleus": "1H",
      "ImagingFrequency": 123.234434,
      "InPlanePhaseEncodingDirection": "COL",
      "MRAcquisitionType": "2D",
      "MagneticFieldStrength": 3.0,
      "Manufacturer": "SIEMENS",
      "ManufacturerModelName": "TrioTim",
      "Modality": "MR",
      "NumberOfAverages": 1.0,
      "NumberOfPhaseEncodingSteps": 91,
      "PercentPhaseFieldOfView": 100.0,
      "PercentSampling": 100.0,
      "PerformedProcedureStepStartTime": "150522.062000",
      "PhotometricInterpretation": "MONOCHROME2",
      "PixelBandwidth": 1923.0,
      "PixelRepresentation": 0,
      "PixelSpacing": [2.0, 2.0],
      "ProtocolName": "cmrr_mbep2d_bold_2mm_MB8_Task_8x",
      "RepetitionTime": 785.0,
      "Rows": 936,
      "SAR": 0.1430736028208,
      "SamplesPerPixel": 1,
      "ScanOptions": [
        "PFP",
        "FS"
],
      "ScanningSequence": "EP",
      "SequenceName": "epfid2d1_104",
      "SequenceVariant": [
        "SK",
        "SS"
],
      "SeriesDescription": "cmrr_mbep2d_bold_2mm_MB8_Task_8x",
      "SeriesNumber": 23,
      "SeriesTime": "175238.359000",
      "SliceLocation": -86.235976436838,
      "SliceThickness": 2.0,
      "SmallestImagePixelValue": 0,
      "SoftwareVersions": "syngo MR B19",
      "SpacingBetweenSlices": 2.0000000217543,
      "SpecificCharacterSet": "ISO_IR 100",
      "StudyID": "1",
      "StudyTime": "150522.000000",
      "TransmitCoilName": "Body",
      "VariableFlipAngleFlag": "N",
      "WindowCenterWidthExplanation": "Algo1",
      "dBdt": 0.0},
    "slices": {}
  },
  "time": {
    "samples": {
      "AcquisitionNumber": [1, 2, 3, 4, 5, 6, 7, 8, 9, 10, 11, 12, 13, 14, 15, 16, 17, 18, 19, 20, 21, 22, 23, 24, 25, 26, 27, 28, 29, 30, 31, 32, 33, 34, 35, 36, 37, 38, 39, 40, 41, 42, 43, 44, 45, 46, 47, 48, 49, 50, 51, 52, 53, 54, 55, 56, 57, 58, 59, 60, 61, 62, 63, 64, 65, 66, 67, 68, 69, 70, 71, 72, 73, 74, 75, 76, 77, 78, 79, 80, 81, 82, 83, 84, 85, 86, 87, 88, 89, 90, 91, 92, 93, 94, 95, 96, 97, 98, 99, 100, 101, 102, 103, 104, 105, 106, 107, 108, 109, 110, 111, 112, 113, 114, 115, 116, 117, 118, 119, 120, 121, 122, 123, 124, 125, 126, 127, 128, 129, 130, 131, 132, 133, 134, 135, 136, 137, 138, 139, 140, 141, 142, 143, 144, 145, 146, 147, 148, 149, 150, 151, 152, 153, 154, 155, 156, 157, 158, 159, 160, 161, 162, 163, 164, 165, 166, 167, 168, 169, 170, 171, 172, 173, 174, 175, 176, 177, 178, 179, 180, 181, 182, 183, 184, 185, 186, 187, 188, 189, 190, 191, 192, 193, 194, 195, 196, 197, 198, 199, 200, 201, 202, 203, 204, 205, 206, 207, 208, 209, 210, 211, 212, 213, 214, 215, 216, 217, 218, 219, 220, 221, 222, 223, 224, 225, 226, 227, 228, 229, 230, 231, 232, 233, 234, 235, 236, 237, 238, 239, 240, 241, 242, 243, 244, 245, 246, 247, 248, 249, 250, 251, 252, 253, 254, 255, 256, 257, 258, 259, 260, 261, 262, 263, 264, 265, 266, 267, 268, 269, 270, 271, 272, 273, 274, 275, 276, 277, 278, 279, 280, 281, 282, 283, 284, 285, 286, 287, 288, 289, 290, 291, 292, 293, 294, 295, 296, 297, 298, 299, 300, 301, 302, 303, 304, 305, 306, 307, 308, 309, 310, 311, 312, 313, 314, 315, 316, 317, 318, 319, 320, 321, 322, 323, 324, 325, 326, 327, 328, 329, 330, 331, 332, 333, 334, 335, 336, 337, 338, 339, 340, 341, 342, 343, 344, 345, 346, 347, 348, 349, 350, 351, 352, 353, 354, 355, 356, 357, 358, 359, 360, 361, 362, 363, 364, 365, 366, 367, 368, 369, 370, 371, 372, 373, 374, 375, 376, 377, 378, 379, 380, 381, 382, 383, 384, 385, 386, 387, 388, 389, 390, 391, 392, 393, 394, 395, 396, 397, 398, 399, 400, 401, 402, 403, 404, 405, 406, 407, 408, 409, 410, 411, 412, 413, 414, 415, 416, 417, 418, 419, 420, 421, 422, 423, 424, 425, 426, 427, 428, 429, 430, 431, 432, 433, 434, 435, 436, 437, 438, 439, 440, 441, 442, 443, 444, 445, 446, 447, 448, 449, 450, 451, 452, 453, 454, 455, 456, 457, 458, 459, 460, 461, 462, 463, 464, 465, 466, 467, 468, 469, 470, 471, 472, 473, 474, 475, 476, 477, 478, 479, 480, 481, 482, 483, 484, 485, 486, 487, 488, 489, 490, 491, 492, 493, 494, 495, 496, 497, 498, 499, 500, 501, 502, 503, 504, 505, 506, 507, 508, 509, 510, 511, 512, 513, 514, 515, 516, 517, 518, 519, 520, 521, 522, 523, 524, 525, 526, 527, 528, 529, 530, 531, 532, 533, 534, 535, 536, 537, 538, 539, 540, 541, 542, 543, 544, 545, 546, 547, 548, 549, 550, 551, 552, 553, 554, 555, 556, 557, 558, 559, 560, 561, 562, 563, 564, 565, 566, 567, 568, 569, 570, 571, 572, 573, 574, 575, 576, 577, 578, 579, 580, 581],
      "AcquisitionTime": ["163219.725000", "163220.512500", "163221.302500", "163222.090000", "163222.877500", "163223.665000", "163224.455000", "163225.242500", "163226.030000", "163226.817500", "163227.607500", "163228.395000", "163229.182500", "163229.970000", "163230.760000", "163231.547500", "163232.335000", "163233.122500", "163233.912500", "163234.700000", "163235.487500", "163236.275000", "163237.065000", "163237.852500", "163238.640000", "163239.430000", "163240.217500", "163241.005000", "163241.792500", "163242.582500", "163243.370000", "163244.157500", "163244.945000", "163245.735000", "163246.522500", "163247.310000", "163248.097500", "163248.887500", "163249.675000", "163250.462500", "163251.250000", "163252.040000", "163252.827500", "163253.615000", "163254.402500", "163255.192500", "163255.980000", "163256.767500", "163257.557500", "163258.345000", "163259.132500", "163259.920000", "163300.710000", "163301.497500", "163302.285000", "163303.072500", "163303.862500", "163304.650000", "163305.437500", "163306.225000", "163307.015000", "163307.802500", "163308.590000", "163309.377500", "163310.167500", "163310.955000", "163311.742500", "163312.532500", "163313.320000", "163314.107500", "163314.895000", "163315.685000", "163316.472500", "163317.260000", "163318.047500", "163318.837500", "163319.625000", "163320.412500", "163321.200000", "163321.990000", "163322.777500", "163323.565000", "163324.352500", "163325.142500", "163325.930000", "163326.717500", "163327.505000", "163328.295000", "163329.082500", "163329.870000", "163330.660000", "163331.447500", "163332.235000", "163333.022500", "163333.812500", "163334.600000", "163335.387500", "163336.175000", "163336.965000", "163337.752500", "163338.540000", "163339.327500", "163340.117500", "163340.905000", "163341.692500", "163342.480000", "163343.270000", "163344.057500", "163344.845000", "163345.632500", "163346.422500", "163347.210000", "163347.997500", "163348.787500", "163349.575000", "163350.362500", "163351.150000", "163351.940000", "163352.727500", "163353.515000", "163354.302500", "163355.092500", "163355.880000", "163356.667500", "163357.455000", "163358.245000", "163359.032500", "163359.820000", "163400.607500", "163401.397500", "163402.185000", "163402.972500", "163403.760000", "163404.550000", "163405.337500", "163406.125000", "163406.915000", "163407.702500", "163408.490000", "163409.277500", "163410.067500", "163410.855000", "163411.642500", "163412.430000", "163413.220000", "163414.007500", "163414.795000", "163415.582500", "163416.372500", "163417.160000", "163417.947500", "163418.735000", "163419.525000", "163420.312500", "163421.100000", "163421.887500", "163422.677500", "163423.465000", "163424.252500", "163425.042500", "163425.830000", "163426.617500", "163427.405000", "163428.195000", "163428.982500", "163429.770000", "163430.557500", "163431.347500", "163432.135000", "163432.922500", "163433.710000", "163434.500000", "163435.287500", "163436.075000", "163436.862500", "163437.652500", "163438.440000", "163439.227500", "163440.015000", "163440.805000", "163441.592500", "163442.380000", "163443.170000", "163443.957500", "163444.745000", "163445.532500", "163446.322500", "163447.110000", "163447.897500", "163448.685000", "163449.475000", "163450.262500", "163451.050000", "163451.837500", "163452.627500", "163453.415000", "163454.202500", "163454.990000", "163455.780000", "163456.567500", "163457.355000", "163458.142500", "163458.932500", "163459.720000", "163500.507500", "163501.297500", "163502.085000", "163502.872500", "163503.660000", "163504.450000", "163505.237500", "163506.025000", "163506.812500", "163507.602500", "163508.390000", "163509.177500", "163509.965000", "163510.755000", "163511.542500", "163512.330000", "163513.117500", "163513.907500", "163514.695000", "163515.482500", "163516.270000", "163517.060000", "163517.847500", "163518.635000", "163519.425000", "163520.212500", "163521.000000", "163521.787500", "163522.577500", "163523.365000", "163524.152500", "163524.940000", "163525.730000", "163526.517500", "163527.305000", "163528.092500", "163528.882500", "163529.670000", "163530.457500", "163531.245000", "163532.035000", "163532.822500", "163533.610000", "163534.397500", "163535.187500", "163535.975000", "163536.762500", "163537.552500", "163538.340000", "163539.127500", "163539.915000", "163540.705000", "163541.492500", "163542.280000", "163543.067500", "163543.857500", "163544.645000", "163545.432500", "163546.220000", "163547.010000", "163547.797500", "163548.585000", "163549.372500", "163550.162500", "163550.950000", "163551.737500", "163552.525000", "163553.315000", "163554.102500", "163554.890000", "163555.680000", "163556.467500", "163557.255000", "163558.042500", "163558.832500", "163559.620000", "163600.407500", "163601.195000", "163601.985000", "163602.772500", "163603.560000", "163604.347500", "163605.137500", "163605.925000", "163606.712500", "163607.500000", "163608.290000", "163609.077500", "163609.865000", "163610.652500", "163611.442500", "163612.230000", "163613.017500", "163613.807500", "163614.595000", "163615.382500", "163616.170000", "163616.960000", "163617.747500", "163618.535000", "163619.322500", "163620.112500", "163620.900000", "163621.687500", "163622.475000", "163623.265000", "163624.052500", "163624.840000", "163625.627500", "163626.417500", "163627.205000", "163627.992500", "163628.782500", "163629.570000", "163630.357500", "163631.145000", "163631.935000", "163632.722500", "163633.510000", "163634.297500", "163635.087500", "163635.875000", "163636.662500", "163637.450000", "163638.240000", "163639.027500", "163639.815000", "163640.602500", "163641.392500", "163642.180000", "163642.967500", "163643.755000", "163644.545000", "163645.332500", "163646.120000", "163646.910000", "163647.697500", "163648.485000", "163649.272500", "163650.062500", "163650.850000", "163651.637500", "163652.425000", "163653.215000", "163654.002500", "163654.790000", "163655.577500", "163656.367500", "163657.155000", "163657.942500", "163658.730000", "163659.520000", "163700.307500", "163701.095000", "163701.882500", "163702.672500", "163703.460000", "163704.247500", "163705.037500", "163705.825000", "163706.612500", "163707.400000", "163708.190000", "163708.977500", "163709.765000", "163710.552500", "163711.342500", "163712.130000", "163712.917500", "163713.705000", "163714.495000", "163715.282500", "163716.070000", "163716.857500", "163717.647500", "163718.435000", "163719.222500", "163720.010000", "163720.800000", "163721.587500", "163722.375000", "163723.165000", "163723.952500", "163724.740000", "163725.527500", "163726.317500", "163727.105000", "163727.892500", "163728.680000", "163729.470000", "163730.257500", "163731.045000", "163731.832500", "163732.622500", "163733.410000", "163734.197500", "163734.985000", "163735.775000", "163736.562500", "163737.350000", "163738.137500", "163738.927500", "163739.715000", "163740.502500", "163741.292500", "163742.080000", "163742.867500", "163743.655000", "163744.445000", "163745.232500", "163746.020000", "163746.807500", "163747.597500", "163748.385000", "163749.172500", "163749.960000", "163750.750000", "163751.537500", "163752.325000", "163753.112500", "163753.902500", "163754.690000", "163755.477500", "163756.265000", "163757.055000", "163757.842500", "163758.630000", "163759.420000", "163800.207500", "163800.995000", "163801.782500", "163802.572500", "163803.360000", "163804.147500", "163804.935000", "163805.725000", "163806.512500", "163807.300000", "163808.087500", "163808.877500", "163809.665000", "163810.452500", "163811.240000", "163812.030000", "163812.817500", "163813.605000", "163814.392500", "163815.182500", "163815.970000", "163816.757500", "163817.547500", "163818.335000", "163819.122500", "163819.910000", "163820.700000", "163821.487500", "163822.275000", "163823.062500", "163823.852500", "163824.640000", "163825.427500", "163826.215000", "163827.005000", "163827.792500", "163828.580000", "163829.367500", "163830.157500", "163830.945000", "163831.732500", "163832.520000", "163833.310000", "163834.097500", "163834.885000", "163835.675000", "163836.462500", "163837.250000", "163838.037500", "163838.827500", "163839.615000", "163840.402500", "163841.190000", "163841.980000", "163842.767500", "163843.555000", "163844.342500", "163845.132500", "163845.920000", "163846.707500", "163847.495000", "163848.285000", "163849.072500", "163849.860000", "163850.647500", "163851.437500", "163852.225000", "163853.012500", "163853.802500", "163854.590000", "163855.377500", "163856.165000", "163856.955000", "163857.742500", "163858.530000", "163859.317500", "163900.107500", "163900.895000", "163901.682500", "163902.470000", "163903.260000", "163904.047500", "163904.835000", "163905.622500", "163906.412500", "163907.200000", "163907.987500", "163908.775000", "163909.565000", "163910.352500", "163911.140000", "163911.930000", "163912.717500", "163913.505000", "163914.292500", "163915.082500", "163915.870000", "163916.657500", "163917.445000", "163918.235000", "163919.022500", "163919.810000", "163920.597500", "163921.387500", "163922.175000", "163922.962500", "163923.750000", "163924.540000", "163925.327500", "163926.115000", "163926.902500", "163927.692500", "163928.480000", "163929.267500", "163930.057500", "163930.845000", "163931.632500", "163932.420000", "163933.210000", "163933.997500", "163934.785000", "163935.572500", "163936.362500", "163937.150000", "163937.937500", "163938.725000", "163939.515000", "163940.302500", "163941.090000", "163941.877500", "163942.667500", "163943.455000", "163944.242500", "163945.032500", "163945.820000", "163946.607500", "163947.395000", "163948.185000", "163948.972500", "163949.760000", "163950.547500", "163951.337500", "163952.125000", "163952.912500", "163953.700000", "163954.490000", "163955.277500", "163956.065000", "163956.852500"],
      "ContentTime": ["175238.359000", "175238.359000", "175238.375000", "175238.375000", "175238.390000", "175338.343000", "175338.343000", "175338.343000", "175338.343000", "175338.359000", "175338.359000", "175338.359000", "175338.359000", "175338.359000", "175338.359000", "175338.359000", "175338.375000", "175338.375000", "175338.375000", "175338.375000", "175338.375000", "175338.375000", "175338.375000", "175338.390000", "175338.390000", "175338.390000", "175338.390000", "175338.390000", "175338.406000", "175338.406000", "175338.406000", "175338.406000", "175338.406000", "175338.406000", "175438.343000", "175438.343000", "175438.343000", "175438.343000", "175438.359000", "175438.359000", "175438.359000", "175438.359000", "175438.359000", "175438.359000", "175438.359000", "175438.375000", "175438.375000", "175438.375000", "175438.375000", "175438.375000", "175438.375000", "175438.390000", "175438.390000", "175438.390000", "175438.390000", "175438.390000", "175438.406000", "175438.406000", "175438.406000", "175438.406000", "175438.406000", "175438.406000", "175538.343000", "175538.343000", "175538.343000", "175538.343000", "175538.359000", "175538.359000", "175538.359000", "175538.359000", "175538.359000", "175538.359000", "175538.359000", "175538.375000", "175538.375000", "175538.375000", "175538.375000", "175538.375000", "175538.375000", "175538.390000", "175538.390000", "175538.390000", "175538.390000", "175538.390000", "175538.390000", "175538.390000", "175538.406000", "175538.406000", "175538.406000", "175538.406000", "175638.343000", "175638.343000", "175638.343000", "175638.343000", "175638.359000", "175638.359000", "175638.359000", "175638.359000", "175638.359000", "175638.359000", "175638.359000", "175638.375000", "175638.375000", "175638.375000", "175638.375000", "175638.375000", "175638.375000", "175638.375000", "175638.390000", "175638.390000", "175638.390000", "175638.406000", "175638.406000", "175638.406000", "175638.406000", "175638.406000", "175638.421000", "175638.421000", "175738.343000", "175738.343000", "175738.343000", "175738.359000", "175738.359000", "175738.359000", "175738.359000", "175738.359000", "175738.375000", "175738.375000", "175738.375000", "175738.375000", "175738.375000", "175738.375000", "175738.390000", "175738.390000", "175738.390000", "175738.390000", "175738.390000", "175738.390000", "175738.390000", "175738.406000", "175738.406000", "175738.406000", "175738.406000", "175738.406000", "175738.406000", "175738.406000", "175738.421000", "175838.343000", "175838.343000", "175838.343000", "175838.343000", "175838.359000", "175838.359000", "175838.359000", "175838.359000", "175838.359000", "175838.359000", "175838.359000", "175838.375000", "175838.375000", "175838.375000", "175838.375000", "175838.375000", "175838.375000", "175838.375000", "175838.390000", "175838.390000", "175838.390000", "175838.390000", "175838.390000", "175838.390000", "175838.406000", "175838.406000", "175838.406000", "175838.406000", "175938.343000", "175938.343000", "175938.343000", "175938.343000", "175938.359000", "175938.359000", "175938.359000", "175938.359000", "175938.359000", "175938.359000", "175938.359000", "175938.375000", "175938.375000", "175938.375000", "175938.375000", "175938.375000", "175938.375000", "175938.375000", "175938.390000", "175938.390000", "175938.390000", "175938.390000", "175938.390000", "175938.406000", "175938.406000", "175938.406000", "175938.406000", "175938.406000", "180038.343000", "180038.343000", "180038.343000", "180038.343000", "180038.359000", "180038.359000", "180038.359000", "180038.359000", "180038.359000", "180038.359000", "180038.359000", "180038.375000", "180038.375000", "180038.375000", "180038.375000", "180038.375000", "180038.375000", "180038.375000", "180038.390000", "180038.390000", "180038.390000", "180038.390000", "180038.390000", "180038.390000", "180038.406000", "180038.406000", "180038.406000", "180038.406000", "180138.343000", "180138.343000", "180138.343000", "180138.343000", "180138.359000", "180138.359000", "180138.359000", "180138.359000", "180138.359000", "180138.359000", "180138.359000", "180138.375000", "180138.375000", "180138.375000", "180138.375000", "180138.375000", "180138.375000", "180138.375000", "180138.390000", "180138.390000", "180138.390000", "180138.390000", "180138.406000", "180138.406000", "180138.406000", "180138.406000", "180138.406000", "180138.406000", "180238.343000", "180238.343000", "180238.343000", "180238.343000", "180238.359000", "180238.359000", "180238.359000", "180238.359000", "180238.359000", "180238.359000", "180238.359000", "180238.375000", "180238.375000", "180238.375000", "180238.375000", "180238.375000", "180238.375000", "180238.375000", "180238.390000", "180238.390000", "180238.390000", "180238.390000", "180238.390000", "180238.390000", "180238.406000", "180238.406000", "180238.406000", "180238.406000", "180238.406000", "180338.343000", "180338.343000", "180338.343000", "180338.343000", "180338.359000", "180338.359000", "180338.359000", "180338.359000", "180338.359000", "180338.359000", "180338.359000", "180338.375000", "180338.375000", "180338.375000", "180338.375000", "180338.375000", "180338.375000", "180338.390000", "180338.390000", "180338.390000", "180338.390000", "180338.390000", "180338.390000", "180338.390000", "180338.406000", "180338.406000", "180338.406000", "180338.406000", "180438.343000", "180438.343000", "180438.343000", "180438.343000", "180438.359000", "180438.359000", "180438.359000", "180438.359000", "180438.359000", "180438.359000", "180438.359000", "180438.375000", "180438.375000", "180438.375000", "180438.375000", "180438.375000", "180438.375000", "180438.390000", "180438.390000", "180438.390000", "180438.390000", "180438.390000", "180438.390000", "180438.390000", "180438.406000", "180438.406000", "180438.406000", "180438.406000", "180538.343000", "180538.343000", "180538.343000", "180538.343000", "180538.359000", "180538.359000", "180538.359000", "180538.359000", "180538.359000", "180538.359000", "180538.359000", "180538.375000", "180538.375000", "180538.375000", "180538.375000", "180538.375000", "180538.375000", "180538.375000", "180538.390000", "180538.390000", "180538.390000", "180538.390000", "180538.390000", "180538.390000", "180538.406000", "180538.406000", "180538.406000", "180538.406000", "180538.406000", "180638.343000", "180638.343000", "180638.343000", "180638.343000", "180638.359000", "180638.359000", "180638.359000", "180638.359000", "180638.359000", "180638.359000", "180638.359000", "180638.375000", "180638.375000", "180638.375000", "180638.375000", "180638.375000", "180638.375000", "180638.375000", "180638.390000", "180638.390000", "180638.390000", "180638.390000", "180638.390000", "180638.390000", "180638.390000", "180638.406000", "180638.406000", "180638.406000", "180738.343000", "180738.343000", "180738.343000", "180738.343000", "180738.359000", "180738.359000", "180738.359000", "180738.359000", "180738.359000", "180738.359000", "180738.359000", "180738.375000", "180738.375000", "180738.375000", "180738.375000", "180738.375000", "180738.375000", "180738.375000", "180738.390000", "180738.390000", "180738.390000", "180738.390000", "180738.390000", "180738.390000", "180738.406000", "180738.406000", "180738.406000", "180738.406000", "180838.343000", "180838.343000", "180838.343000", "180838.343000", "180838.359000", "180838.359000", "180838.359000", "180838.359000", "180838.359000", "180838.359000", "180838.375000", "180838.375000", "180838.375000", "180838.375000", "180838.375000", "180838.375000", "180838.375000", "180838.390000", "180838.390000", "180838.390000", "180838.390000", "180838.390000", "180838.390000", "180838.406000", "180838.406000", "180838.406000", "180838.406000", "180838.406000", "180938.343000", "180938.343000", "180938.343000", "180938.343000", "180938.359000", "180938.359000", "180938.359000", "180938.359000", "180938.375000", "180938.375000", "180938.375000", "180938.375000", "180938.375000", "180938.375000", "180938.375000", "180938.390000", "180938.390000", "180938.390000", "180938.390000", "180938.390000", "180938.390000", "180938.390000", "180938.406000", "180938.406000", "180938.406000", "180938.406000", "180938.406000", "180938.406000", "181038.343000", "181038.343000", "181038.343000", "181038.343000", "181038.359000", "181038.359000", "181038.359000", "181038.359000", "181038.359000", "181038.359000", "181038.359000", "181038.375000", "181038.375000", "181038.375000", "181038.375000", "181038.375000", "181038.375000", "181038.375000", "181038.390000", "181038.390000", "181038.390000", "181038.390000", "181038.390000", "181038.406000", "181038.406000", "181038.406000", "181038.406000", "181038.406000", "181038.406000", "181138.343000", "181138.343000", "181138.343000", "181138.343000", "181138.359000", "181138.359000", "181138.359000", "181138.359000", "181138.359000", "181138.359000", "181138.375000", "181138.375000", "181138.375000", "181138.375000", "181138.375000", "181138.390000", "181138.390000", "181138.390000", "181138.390000", "181138.390000", "181138.390000", "181138.406000", "181138.406000", "181138.406000", "181138.406000", "181138.406000", "181138.421000", "181138.421000", "181238.343000", "181238.343000", "181238.343000", "181238.343000", "181238.359000", "181238.359000", "181238.359000", "181238.359000", "181238.359000", "181238.359000", "181238.359000", "181238.375000", "181238.375000", "181238.375000", "181238.375000", "181238.375000", "181238.375000", "181238.375000", "181238.390000", "181238.390000", "181238.390000", "181238.390000", "181238.390000", "181238.390000", "181238.390000", "181238.406000", "181238.406000", "181238.406000", "181259.890000", "181259.890000", "181259.890000", "181259.890000", "181259.890000", "181259.890000", "181259.906000", "181259.906000", "181259.906000", "181259.906000", "181259.906000"],
      "DataSetTrailingPadding": [
        "\u0000\u0000\u0000\u0000\u0000\u0000\u0000\u0000\u0000\u0000\u0000\u0000\u0000\u0000\u0000\u0000\u0000\u0000\u0000\u0000\u0000\u0000\u0000\u0000\u0000\u0000\u0000\u0000\u0000\u0000\u0000\u0000\u0000\u0000\u0000\u0000\u0000\u0000\u0000\u0000\u0000\u0000\u0000\u0000\u0000\u0000\u0000\u0000\u0000\u0000\u0000\u0000\u0000\u0000\u0000\u0000\u0000\u0000\u0000\u0000\u0000\u0000\u0000\u0000\u0000\u0000\u0000\u0000\u0000\u0000\u0000\u0000\u0000\u0000\u0000\u0000\u0000\u0000\u0000\u0000\u0000\u0000\u0000\u0000\u0000\u0000\u0000\u0000\u0000\u0000\u0000\u0000\u0000\u0000\u0000\u0000\u0000\u0000\u0000\u0000\u0000\u0000\u0000\u0000\u0000\u0000\u0000\u0000\u0000\u0000\u0000\u0000\u0000\u0000\u0000\u0000\u0000\u0000\u0000\u0000",
        "\u0000\u0000\u0000\u0000\u0000\u0000\u0000\u0000\u0000\u0000\u0000\u0000\u0000\u0000\u0000\u0000\u0000\u0000\u0000\u0000\u0000\u0000\u0000\u0000\u0000\u0000\u0000\u0000\u0000\u0000\u0000\u0000\u0000\u0000\u0000\u0000\u0000\u0000\u0000\u0000\u0000\u0000\u0000\u0000\u0000\u0000\u0000\u0000\u0000\u0000\u0000\u0000\u0000\u0000\u0000\u0000\u0000\u0000\u0000\u0000\u0000\u0000\u0000\u0000\u0000\u0000\u0000\u0000\u0000\u0000\u0000\u0000\u0000\u0000\u0000\u0000\u0000\u0000\u0000\u0000\u0000\u0000\u0000\u0000\u0000\u0000\u0000\u0000\u0000\u0000\u0000\u0000\u0000\u0000\u0000\u0000\u0000\u0000\u0000\u0000\u0000\u0000\u0000\u0000\u0000\u0000\u0000\u0000\u0000\u0000\u0000\u0000\u0000\u0000\u0000\u0000\u0000\u0000\u0000\u0000",
