{
  "AcquisitionMatrixPE": 104,
  "AcquisitionNumber": 1,
  "AcquisitionTime": "16:24:6.692500",
  "BandwidthPerPixelPhaseEncode": 13.935,
  "BaseResolution": 104,
  "CoilString": "C:HEA;HEP",
  "ConversionSoftware": "dcm2niix",
  "ConversionSoftwareVersion": "v1.0.20210317",
  "DerivedVendorReportedEchoSpacing": 0.000690017,
  "DeviceSerialNumber": "35450",
  "DwellTime": 2.5e-06,
  "EchoTime": 0.0348,
  "EffectiveEchoSpacing": 0.000690017,
  "FlipAngle": 55,
  "ImageComments": "Unaliased MB8/PE3",
  "ImageOrientationPatientDICOM": [0.999848, 0.000304494, -0.0174455, 4.81466e-08, 0.999848, 0.0174541],
  "ImageType": [
    "ORIGINAL",
    "PRIMARY",
    "M",
    "MB",
    "ND",
    "MOSAIC"
],
  "ImagingFrequency": 123.234,
  "InPlanePhaseEncodingDirectionDICOM": "COL",
  "InstitutionAddress": "Univeristy Ave. 197,Newark,North East,US,07102-1814",
  "InstitutionName": "RUBIC",
  "InstitutionalDepartmentName": "Department",
  "MRAcquisitionType": "2D",
  "MagneticFieldStrength": 3,
  "Manufacturer": "Siemens",
  "ManufacturersModelName": "TrioTim",
  "Modality": "MR",
  "MultibandAccelerationFactor": 8,
  "PartialFourier": 0.875,
  "PatientPosition": "HFS",
  "PercentPhaseFOV": 100,
  "PercentSampling": 100,
  "PhaseEncodingDirection": "j-",
  "PhaseEncodingSteps": 91,
  "PhaseResolution": 1,
  "PixelBandwidth": 1923,
  "ProcedureStepDescription": "Cole^Michael",
  "ProtocolName": "cmrr_mbep2d_bold_2mm_MB8_Task_8x",
  "PulseSequenceDetails": "%CustomerSeq%\\cmrr_mbep2d_bold",
  "ReceiveCoilName": "32Ch_Head",
  "ReconMatrixPE": 104,
  "RepetitionTime": 0.785,
  "SAR": 0.143074,
  "ScanOptions": "PFP\\FS",
  "ScanningSequence": "EP",
  "SequenceName": "epfid2d1_104",
  "SequenceVariant": "SK\\SS",
  "SeriesDescription": "cmrr_mbep2d_bold_2mm_MB8_Task_8x",
  "SeriesNumber": 21,
  "ShimSetting": [2063, -443, -7295, 354, 30, -482, 45, 57],
  "SliceThickness": 2,
  "SliceTiming": [0, 0.4375, 0.0875, 0.525, 0.175, 0.6125, 0.2625, 0.7, 0.35, 0, 0.4375, 0.0875, 0.525, 0.175, 0.6125, 0.2625, 0.7, 0.35, 0, 0.4375, 0.0875, 0.525, 0.175, 0.6125, 0.2625, 0.7, 0.35, 0, 0.4375, 0.0875, 0.525, 0.175, 0.6125, 0.2625, 0.7, 0.35, 0, 0.4375, 0.0875, 0.525, 0.175, 0.6125, 0.2625, 0.7, 0.35, 0, 0.4375, 0.0875, 0.525, 0.175, 0.6125, 0.2625, 0.7, 0.35, 0, 0.4375, 0.0875, 0.525, 0.175, 0.6125, 0.2625, 0.7, 0.35, 0, 0.4375, 0.0875, 0.525, 0.175, 0.6125, 0.2625, 0.7, 0.35],
  "SoftwareVersions": "syngo MR B19",
  "SpacingBetweenSlices": 2,
  "StationName": "MRC35450",
  "TaskName": "cpro",
  "TotalReadoutTime": 0.0710717,
  "TxRefAmp": 334.042,
  "dcmmeta_affine": [
    [-1.9996955394744873, 9.629313524328609e-08, -0.034896306693553925, 106.29036712646484],
    [-0.0006089875823818147, 1.9996953010559082, 0.0349029004573822, -90.44208526611328],
    [-0.03489099442958832, -0.03490821272134781, 1.999390959739685, -82.82828521728516],
    [0.0, 0.0, 0.0, 1.0]
],
  "dcmmeta_reorient_transform": [
    [0.0, -1.0, 0.0, 103.0],
    [1.0, 0.0, 0.0, 0.0],
    [0.0, 0.0, 1.0, 0.0],
    [0.0, 0.0, 0.0, 1.0]
],
  "dcmmeta_shape": [104, 104, 72, 581],
  "dcmmeta_slice_dim": 2,
  "dcmmeta_version": 0.6,
  "global": {
    "const": {
      "AcquisitionMatrix": [104, 0, 0, 104],
      "AngioFlag": "N",
      "BitsAllocated": 16,
      "BitsStored": 12,
      "Columns": 936,
      "EchoNumbers": 1,
      "EchoTime": 34.8,
      "EchoTrainLength": 1,
      "FlipAngle": 55.0,
      "HighBit": 11,
      "ImageOrientationPatient": [0.99984776937914, 0.00030449379544, -0.0174454965846, 4.8146568e-08, 0.99984766548581, 0.01745410618091],
      "ImagePositionPatient": [-938.16376033097, -947.65313371085, -86.43099406802],
      "ImageType": [
        "ORIGINAL",
        "PRIMARY",
        "M",
        "MB",
        "ND",
        "MOSAIC"
],
      "ImagedNucleus": "1H",
      "ImagingFrequency": 123.234434,
      "InPlanePhaseEncodingDirection": "COL",
      "MRAcquisitionType": "2D",
      "MagneticFieldStrength": 3.0,
      "Manufacturer": "SIEMENS",
      "ManufacturerModelName": "TrioTim",
      "Modality": "MR",
      "NumberOfAverages": 1.0,
      "NumberOfPhaseEncodingSteps": 91,
      "PercentPhaseFieldOfView": 100.0,
      "PercentSampling": 100.0,
      "PerformedProcedureStepStartTime": "150522.062000",
      "PhotometricInterpretation": "MONOCHROME2",
      "PixelBandwidth": 1923.0,
      "PixelRepresentation": 0,
      "PixelSpacing": [2.0, 2.0],
      "ProtocolName": "cmrr_mbep2d_bold_2mm_MB8_Task_8x",
      "RepetitionTime": 785.0,
      "Rows": 936,
      "SAR": 0.1430736028208,
      "SamplesPerPixel": 1,
      "ScanOptions": [
        "PFP",
        "FS"
],
      "ScanningSequence": "EP",
      "SequenceName": "epfid2d1_104",
      "SequenceVariant": [
        "SK",
        "SS"
],
      "SeriesDescription": "cmrr_mbep2d_bold_2mm_MB8_Task_8x",
      "SeriesNumber": 21,
      "SeriesTime": "173154.703000",
      "SliceLocation": -86.235976436838,
      "SliceThickness": 2.0,
      "SmallestImagePixelValue": 0,
      "SoftwareVersions": "syngo MR B19",
      "SpacingBetweenSlices": 2.0000000217543,
      "SpecificCharacterSet": "ISO_IR 100",
      "StudyID": "1",
      "StudyTime": "150522.000000",
      "TransmitCoilName": "Body",
      "VariableFlipAngleFlag": "N",
      "WindowCenterWidthExplanation": "Algo1",
      "dBdt": 0.0},
    "slices": {}
  },
  "time": {
    "samples": {
      "AcquisitionNumber": [1, 2, 3, 4, 5, 6, 7, 8, 9, 10, 11, 12, 13, 14, 15, 16, 17, 18, 19, 20, 21, 22, 23, 24, 25, 26, 27, 28, 29, 30, 31, 32, 33, 34, 35, 36, 37, 38, 39, 40, 41, 42, 43, 44, 45, 46, 47, 48, 49, 50, 51, 52, 53, 54, 55, 56, 57, 58, 59, 60, 61, 62, 63, 64, 65, 66, 67, 68, 69, 70, 71, 72, 73, 74, 75, 76, 77, 78, 79, 80, 81, 82, 83, 84, 85, 86, 87, 88, 89, 90, 91, 92, 93, 94, 95, 96, 97, 98, 99, 100, 101, 102, 103, 104, 105, 106, 107, 108, 109, 110, 111, 112, 113, 114, 115, 116, 117, 118, 119, 120, 121, 122, 123, 124, 125, 126, 127, 128, 129, 130, 131, 132, 133, 134, 135, 136, 137, 138, 139, 140, 141, 142, 143, 144, 145, 146, 147, 148, 149, 150, 151, 152, 153, 154, 155, 156, 157, 158, 159, 160, 161, 162, 163, 164, 165, 166, 167, 168, 169, 170, 171, 172, 173, 174, 175, 176, 177, 178, 179, 180, 181, 182, 183, 184, 185, 186, 187, 188, 189, 190, 191, 192, 193, 194, 195, 196, 197, 198, 199, 200, 201, 202, 203, 204, 205, 206, 207, 208, 209, 210, 211, 212, 213, 214, 215, 216, 217, 218, 219, 220, 221, 222, 223, 224, 225, 226, 227, 228, 229, 230, 231, 232, 233, 234, 235, 236, 237, 238, 239, 240, 241, 242, 243, 244, 245, 246, 247, 248, 249, 250, 251, 252, 253, 254, 255, 256, 257, 258, 259, 260, 261, 262, 263, 264, 265, 266, 267, 268, 269, 270, 271, 272, 273, 274, 275, 276, 277, 278, 279, 280, 281, 282, 283, 284, 285, 286, 287, 288, 289, 290, 291, 292, 293, 294, 295, 296, 297, 298, 299, 300, 301, 302, 303, 304, 305, 306, 307, 308, 309, 310, 311, 312, 313, 314, 315, 316, 317, 318, 319, 320, 321, 322, 323, 324, 325, 326, 327, 328, 329, 330, 331, 332, 333, 334, 335, 336, 337, 338, 339, 340, 341, 342, 343, 344, 345, 346, 347, 348, 349, 350, 351, 352, 353, 354, 355, 356, 357, 358, 359, 360, 361, 362, 363, 364, 365, 366, 367, 368, 369, 370, 371, 372, 373, 374, 375, 376, 377, 378, 379, 380, 381, 382, 383, 384, 385, 386, 387, 388, 389, 390, 391, 392, 393, 394, 395, 396, 397, 398, 399, 400, 401, 402, 403, 404, 405, 406, 407, 408, 409, 410, 411, 412, 413, 414, 415, 416, 417, 418, 419, 420, 421, 422, 423, 424, 425, 426, 427, 428, 429, 430, 431, 432, 433, 434, 435, 436, 437, 438, 439, 440, 441, 442, 443, 444, 445, 446, 447, 448, 449, 450, 451, 452, 453, 454, 455, 456, 457, 458, 459, 460, 461, 462, 463, 464, 465, 466, 467, 468, 469, 470, 471, 472, 473, 474, 475, 476, 477, 478, 479, 480, 481, 482, 483, 484, 485, 486, 487, 488, 489, 490, 491, 492, 493, 494, 495, 496, 497, 498, 499, 500, 501, 502, 503, 504, 505, 506, 507, 508, 509, 510, 511, 512, 513, 514, 515, 516, 517, 518, 519, 520, 521, 522, 523, 524, 525, 526, 527, 528, 529, 530, 531, 532, 533, 534, 535, 536, 537, 538, 539, 540, 541, 542, 543, 544, 545, 546, 547, 548, 549, 550, 551, 552, 553, 554, 555, 556, 557, 558, 559, 560, 561, 562, 563, 564, 565, 566, 567, 568, 569, 570, 571, 572, 573, 574, 575, 576, 577, 578, 579, 580, 581],
      "AcquisitionTime": ["162406.692500", "162407.480000", "162408.267500", "162409.057500", "162409.845000", "162410.632500", "162411.420000", "162412.210000", "162412.997500", "162413.785000", "162414.572500", "162415.362500", "162416.150000", "162416.937500", "162417.725000", "162418.515000", "162419.302500", "162420.090000", "162420.880000", "162421.667500", "162422.455000", "162423.242500", "162424.032500", "162424.820000", "162425.607500", "162426.395000", "162427.185000", "162427.972500", "162428.760000", "162429.547500", "162430.337500", "162431.125000", "162431.912500", "162432.700000", "162433.490000", "162434.277500", "162435.065000", "162435.852500", "162436.642500", "162437.430000", "162438.217500", "162439.007500", "162439.795000", "162440.582500", "162441.370000", "162442.160000", "162442.947500", "162443.735000", "162444.522500", "162445.312500", "162446.100000", "162446.887500", "162447.675000", "162448.465000", "162449.252500", "162450.040000", "162450.827500", "162451.617500", "162452.405000", "162453.192500", "162453.980000", "162454.770000", "162455.557500", "162456.345000", "162457.135000", "162457.922500", "162458.710000", "162459.497500", "162500.287500", "162501.075000", "162501.862500", "162502.650000", "162503.440000", "162504.227500", "162505.015000", "162505.802500", "162506.592500", "162507.380000", "162508.167500", "162508.955000", "162509.745000", "162510.532500", "162511.320000", "162512.107500", "162512.897500", "162513.685000", "162514.472500", "162515.262500", "162516.050000", "162516.837500", "162517.625000", "162518.415000", "162519.202500", "162519.990000", "162520.777500", "162521.567500", "162522.355000", "162523.142500", "162523.930000", "162524.720000", "162525.507500", "162526.295000", "162527.082500", "162527.872500", "162528.660000", "162529.447500", "162530.235000", "162531.025000", "162531.812500", "162532.600000", "162533.390000", "162534.177500", "162534.965000", "162535.752500", "162536.542500", "162537.330000", "162538.117500", "162538.905000", "162539.695000", "162540.482500", "162541.270000", "162542.057500", "162542.847500", "162543.635000", "162544.422500", "162545.210000", "162546.000000", "162546.787500", "162547.575000", "162548.362500", "162549.152500", "162549.940000", "162550.727500", "162551.517500", "162552.305000", "162553.092500", "162553.880000", "162554.670000", "162555.457500", "162556.245000", "162557.032500", "162557.822500", "162558.610000", "162559.397500", "162600.185000", "162600.975000", "162601.762500", "162602.550000", "162603.337500", "162604.127500", "162604.915000", "162605.702500", "162606.492500", "162607.280000", "162608.067500", "162608.855000", "162609.645000", "162610.432500", "162611.220000", "162612.007500", "162612.797500", "162613.585000", "162614.372500", "162615.160000", "162615.950000", "162616.737500", "162617.525000", "162618.312500", "162619.102500", "162619.890000", "162620.677500", "162621.465000", "162622.255000", "162623.042500", "162623.830000", "162624.620000", "162625.407500", "162626.195000", "162626.982500", "162627.772500", "162628.560000", "162629.347500", "162630.135000", "162630.925000", "162631.712500", "162632.500000", "162633.287500", "162634.077500", "162634.865000", "162635.652500", "162636.440000", "162637.230000", "162638.017500", "162638.805000", "162639.592500", "162640.382500", "162641.170000", "162641.957500", "162642.747500", "162643.535000", "162644.322500", "162645.110000", "162645.900000", "162646.687500", "162647.475000", "162648.262500", "162649.052500", "162649.840000", "162650.627500", "162651.415000", "162652.205000", "162652.992500", "162653.780000", "162654.567500", "162655.357500", "162656.145000", "162656.932500", "162657.720000", "162658.510000", "162659.297500", "162700.085000", "162700.875000", "162701.662500", "162702.450000", "162703.237500", "162704.027500", "162704.815000", "162705.602500", "162706.390000", "162707.180000", "162707.967500", "162708.755000", "162709.542500", "162710.332500", "162711.120000", "162711.907500", "162712.695000", "162713.485000", "162714.272500", "162715.060000", "162715.847500", "162716.637500", "162717.425000", "162718.212500", "162719.002500", "162719.790000", "162720.577500", "162721.365000", "162722.155000", "162722.942500", "162723.730000", "162724.517500", "162725.307500", "162726.095000", "162726.882500", "162727.670000", "162728.460000", "162729.247500", "162730.035000", "162730.822500", "162731.612500", "162732.400000", "162733.187500", "162733.975000", "162734.765000", "162735.552500", "162736.340000", "162737.130000", "162737.917500", "162738.705000", "162739.492500", "162740.282500", "162741.070000", "162741.857500", "162742.645000", "162743.435000", "162744.222500", "162745.010000", "162745.797500", "162746.587500", "162747.375000", "162748.162500", "162748.950000", "162749.740000", "162750.527500", "162751.315000", "162752.102500", "162752.892500", "162753.680000", "162754.467500", "162755.257500", "162756.045000", "162756.832500", "162757.620000", "162758.410000", "162759.197500", "162759.985000", "162800.772500", "162801.562500", "162802.350000", "162803.137500", "162803.925000", "162804.715000", "162805.502500", "162806.290000", "162807.077500", "162807.867500", "162808.655000", "162809.442500", "162810.230000", "162811.020000", "162811.807500", "162812.595000", "162813.385000", "162814.172500", "162814.960000", "162815.747500", "162816.537500", "162817.325000", "162818.112500", "162818.900000", "162819.690000", "162820.477500", "162821.265000", "162822.052500", "162822.842500", "162823.630000", "162824.417500", "162825.205000", "162825.995000", "162826.782500", "162827.570000", "162828.357500", "162829.147500", "162829.935000", "162830.722500", "162831.512500", "162832.300000", "162833.087500", "162833.875000", "162834.665000", "162835.452500", "162836.240000", "162837.027500", "162837.817500", "162838.605000", "162839.392500", "162840.180000", "162840.970000", "162841.757500", "162842.545000", "162843.332500", "162844.122500", "162844.910000", "162845.697500", "162846.485000", "162847.275000", "162848.062500", "162848.850000", "162849.640000", "162850.427500", "162851.215000", "162852.002500", "162852.792500", "162853.580000", "162854.367500", "162855.155000", "162855.945000", "162856.732500", "162857.520000", "162858.307500", "162859.097500", "162859.885000", "162900.672500", "162901.460000", "162902.250000", "162903.037500", "162903.825000", "162904.612500", "162905.402500", "162906.190000", "162906.977500", "162907.767500", "162908.555000", "162909.342500", "162910.130000", "162910.920000", "162911.707500", "162912.495000", "162913.282500", "162914.072500", "162914.860000", "162915.647500", "162916.435000", "162917.225000", "162918.012500", "162918.800000", "162919.587500", "162920.377500", "162921.165000", "162921.952500", "162922.742500", "162923.530000", "162924.317500", "162925.105000", "162925.895000", "162926.682500", "162927.470000", "162928.257500", "162929.047500", "162929.835000", "162930.622500", "162931.410000", "162932.200000", "162932.987500", "162933.775000", "162934.562500", "162935.352500", "162936.140000", "162936.927500", "162937.715000", "162938.505000", "162939.292500", "162940.080000", "162940.870000", "162941.657500", "162942.445000", "162943.232500", "162944.022500", "162944.810000", "162945.597500", "162946.385000", "162947.175000", "162947.962500", "162948.750000", "162949.537500", "162950.327500", "162951.115000", "162951.902500", "162952.690000", "162953.480000", "162954.267500", "162955.055000", "162955.842500", "162956.632500", "162957.420000", "162958.207500", "162958.997500", "162959.785000", "163000.572500", "163001.360000", "163002.150000", "163002.937500", "163003.725000", "163004.512500", "163005.302500", "163006.090000", "163006.877500", "163007.665000", "163008.455000", "163009.242500", "163010.030000", "163010.817500", "163011.607500", "163012.395000", "163013.182500", "163013.970000", "163014.760000", "163015.547500", "163016.335000", "163017.125000", "163017.912500", "163018.700000", "163019.487500", "163020.277500", "163021.065000", "163021.852500", "163022.640000", "163023.430000", "163024.217500", "163025.005000", "163025.792500", "163026.582500", "163027.370000", "163028.157500", "163028.945000", "163029.735000", "163030.522500", "163031.310000", "163032.097500", "163032.887500", "163033.675000", "163034.462500", "163035.252500", "163036.040000", "163036.827500", "163037.615000", "163038.405000", "163039.192500", "163039.980000", "163040.767500", "163041.557500", "163042.345000", "163043.132500", "163043.920000", "163044.710000", "163045.497500", "163046.285000", "163047.072500", "163047.862500", "163048.650000", "163049.437500", "163050.225000", "163051.015000", "163051.802500", "163052.590000", "163053.380000", "163054.167500", "163054.955000", "163055.742500", "163056.532500", "163057.320000", "163058.107500", "163058.895000", "163059.685000", "163100.472500", "163101.260000", "163102.047500", "163102.837500", "163103.625000", "163104.412500", "163105.200000", "163105.990000", "163106.777500", "163107.565000", "163108.352500", "163109.142500", "163109.930000", "163110.717500", "163111.507500", "163112.295000", "163113.082500", "163113.870000", "163114.660000", "163115.447500", "163116.235000", "163117.022500", "163117.812500", "163118.600000", "163119.387500", "163120.175000", "163120.965000", "163121.752500", "163122.540000", "163123.327500", "163124.117500", "163124.905000", "163125.692500", "163126.480000", "163127.270000", "163128.057500", "163128.845000", "163129.635000", "163130.422500", "163131.210000", "163131.997500", "163132.787500", "163133.575000", "163134.362500", "163135.150000", "163135.940000", "163136.727500", "163137.515000", "163138.302500", "163139.092500", "163139.880000", "163140.667500", "163141.455000", "163142.245000", "163143.032500", "163143.820000"],
      "ContentTime": ["173154.703000", "173154.703000", "173154.718000", "173154.718000", "173154.718000", "173154.718000", "173154.718000", "173154.718000", "173154.718000", "173254.687000", "173254.687000", "173254.687000", "173254.687000", "173254.703000", "173254.703000", "173254.703000", "173254.703000", "173254.703000", "173254.718000", "173254.718000", "173254.718000", "173254.718000", "173254.718000", "173254.718000", "173254.734000", "173254.734000", "173254.734000", "173254.734000", "173254.734000", "173254.734000", "173254.734000", "173254.750000", "173254.750000", "173254.750000", "173254.750000", "173254.750000", "173254.750000", "173254.750000", "173354.687000", "173354.687000", "173354.687000", "173354.687000", "173354.703000", "173354.703000", "173354.703000", "173354.703000", "173354.703000", "173354.703000", "173354.703000", "173354.718000", "173354.718000", "173354.718000", "173354.718000", "173354.718000", "173354.718000", "173354.718000", "173354.734000", "173354.734000", "173354.734000", "173354.734000", "173354.734000", "173354.734000", "173354.734000", "173354.750000", "173354.750000", "173354.750000", "173454.687000", "173454.687000", "173454.687000", "173454.687000", "173454.703000", "173454.703000", "173454.703000", "173454.703000", "173454.703000", "173454.703000", "173454.703000", "173454.718000", "173454.718000", "173454.718000", "173454.718000", "173454.718000", "173454.718000", "173454.718000", "173454.734000", "173454.734000", "173454.734000", "173454.734000", "173454.734000", "173454.734000", "173454.734000", "173454.750000", "173454.750000", "173454.750000", "173554.687000", "173554.687000", "173554.687000", "173554.687000", "173554.703000", "173554.703000", "173554.703000", "173554.703000", "173554.703000", "173554.703000", "173554.703000", "173554.718000", "173554.718000", "173554.718000", "173554.718000", "173554.718000", "173554.718000", "173554.718000", "173554.734000", "173554.734000", "173554.734000", "173554.734000", "173554.734000", "173554.734000", "173554.750000", "173554.750000", "173554.750000", "173554.750000", "173654.687000", "173654.687000", "173654.687000", "173654.687000", "173654.703000", "173654.703000", "173654.703000", "173654.703000", "173654.703000", "173654.703000", "173654.703000", "173654.718000", "173654.718000", "173654.718000", "173654.718000", "173654.718000", "173654.718000", "173654.718000", "173654.734000", "173654.734000", "173654.734000", "173654.734000", "173654.734000", "173654.734000", "173654.734000", "173654.750000", "173654.750000", "173654.750000", "173754.687000", "173754.687000", "173754.687000", "173754.687000", "173754.703000", "173754.703000", "173754.703000", "173754.703000", "173754.703000", "173754.703000", "173754.703000", "173754.718000", "173754.718000", "173754.718000", "173754.718000", "173754.734000", "173754.734000", "173754.734000", "173754.734000", "173754.734000", "173754.734000", "173754.750000", "173754.750000", "173754.750000", "173754.750000", "173754.750000", "173754.750000", "173754.765000", "173854.687000", "173854.687000", "173854.687000", "173854.687000", "173854.703000", "173854.703000", "173854.703000", "173854.703000", "173854.703000", "173854.703000", "173854.703000", "173854.718000", "173854.718000", "173854.718000", "173854.718000", "173854.718000", "173854.718000", "173854.734000", "173854.734000", "173854.734000", "173854.734000", "173854.734000", "173854.734000", "173854.734000", "173854.750000", "173854.750000", "173854.750000", "173854.750000", "173854.750000", "173954.687000", "173954.687000", "173954.687000", "173954.687000", "173954.703000", "173954.703000", "173954.703000", "173954.703000", "173954.703000", "173954.703000", "173954.703000", "173954.718000", "173954.718000", "173954.718000", "173954.718000", "173954.718000", "173954.718000", "173954.718000", "173954.734000", "173954.734000", "173954.734000", "173954.734000", "173954.734000", "173954.734000", "173954.734000", "173954.750000", "173954.750000", "173954.750000", "174054.687000", "174054.687000", "174054.687000", "174054.687000", "174054.703000", "174054.703000", "174054.703000", "174054.703000", "174054.703000", "174054.703000", "174054.703000", "174054.718000", "174054.718000", "174054.718000", "174054.718000", "174054.718000", "174054.718000", "174054.718000", "174054.734000", "174054.734000", "174054.734000", "174054.734000", "174054.734000", "174054.750000", "174054.750000", "174054.750000", "174054.750000", "174054.750000", "174134.687000", "174134.687000", "174134.687000", "174134.687000", "174134.703000", "174134.703000", "174134.703000", "174134.703000", "174134.703000", "174134.703000", "174134.703000", "174134.718000", "174134.718000", "174134.718000", "174134.718000", "174134.718000", "174134.718000", "174134.718000", "174134.734000", "174234.687000", "174234.687000", "174234.687000", "174234.687000", "174234.703000", "174234.703000", "174234.703000", "174234.703000", "174234.703000", "174234.703000", "174234.703000", "174234.718000", "174234.718000", "174234.718000", "174234.718000", "174234.718000", "174234.718000", "174234.734000", "174234.734000", "174234.734000", "174234.734000", "174234.734000", "174234.734000", "174234.750000", "174234.750000", "174234.750000", "174234.750000", "174234.750000", "174334.687000", "174334.687000", "174334.687000", "174334.687000", "174334.703000", "174334.703000", "174334.703000", "174334.703000", "174334.703000", "174334.703000", "174334.703000", "174334.718000", "174334.718000", "174334.718000", "174334.718000", "174334.718000", "174334.718000", "174334.734000", "174334.734000", "174334.734000", "174334.734000", "174334.734000", "174334.734000", "174334.750000", "174334.750000", "174334.750000", "174334.750000", "174334.750000", "174434.687000", "174434.687000", "174434.687000", "174434.687000", "174434.703000", "174434.703000", "174434.703000", "174434.703000", "174434.703000", "174434.703000", "174434.718000", "174434.718000", "174434.718000", "174434.718000", "174434.718000", "174434.718000", "174434.718000", "174434.734000", "174434.734000", "174434.734000", "174434.734000", "174434.734000", "174434.734000", "174434.734000", "174434.750000", "174434.750000", "174434.750000", "174434.750000", "174534.687000", "174534.687000", "174534.687000", "174534.687000", "174534.703000", "174534.703000", "174534.703000", "174534.703000", "174534.703000", "174534.703000", "174534.718000", "174534.718000", "174534.718000", "174534.718000", "174534.718000", "174534.718000", "174534.718000", "174534.734000", "174534.734000", "174534.734000", "174534.734000", "174534.734000", "174534.734000", "174534.734000", "174534.750000", "174534.750000", "174534.750000", "174534.750000", "174534.750000", "174634.687000", "174634.687000", "174634.687000", "174634.687000", "174634.703000", "174634.703000", "174634.703000", "174634.703000", "174634.703000", "174634.703000", "174634.703000", "174634.718000", "174634.718000", "174634.718000", "174634.718000", "174634.718000", "174634.718000", "174634.718000", "174634.734000", "174634.734000", "174634.734000", "174634.734000", "174634.734000", "174634.734000", "174634.750000", "174634.750000", "174634.750000", "174634.750000", "174734.687000", "174734.687000", "174734.687000", "174734.687000", "174734.703000", "174734.703000", "174734.703000", "174734.703000", "174734.703000", "174734.703000", "174734.703000", "174734.718000", "174734.718000", "174734.718000", "174734.718000", "174734.718000", "174734.718000", "174734.718000", "174734.734000", "174734.734000", "174734.734000", "174734.734000", "174734.734000", "174734.734000", "174734.734000", "174734.750000", "174734.750000", "174734.750000", "174834.687000", "174834.687000", "174834.687000", "174834.687000", "174834.703000", "174834.703000", "174834.703000", "174834.703000", "174834.703000", "174834.703000", "174834.703000", "174834.718000", "174834.718000", "174834.718000", "174834.718000", "174834.718000", "174834.718000", "174834.718000", "174834.734000", "174834.734000", "174834.734000", "174834.734000", "174834.734000", "174834.734000", "174834.750000", "174834.750000", "174834.750000", "174834.750000", "174934.687000", "174934.687000", "174934.687000", "174934.687000", "174934.703000", "174934.703000", "174934.703000", "174934.703000", "174934.703000", "174934.703000", "174934.703000", "174934.718000", "174934.718000", "174934.718000", "174934.718000", "174934.718000", "174934.718000", "174934.718000", "174934.734000", "174934.734000", "174934.734000", "174934.734000", "174934.734000", "174934.734000", "174934.750000", "174934.750000", "174934.750000", "174934.750000", "175034.687000", "175034.687000", "175034.687000", "175034.687000", "175034.703000", "175034.703000", "175034.703000", "175034.703000", "175034.703000", "175034.703000", "175034.703000", "175034.718000", "175034.718000", "175034.718000", "175034.718000", "175034.718000", "175034.718000", "175034.718000", "175034.734000", "175034.734000", "175034.734000", "175034.734000", "175034.734000", "175034.750000", "175034.750000", "175034.750000", "175034.750000", "175034.750000", "175134.687000", "175134.687000", "175134.687000", "175134.687000", "175134.703000", "175134.703000", "175134.703000", "175134.703000", "175134.703000", "175134.703000", "175134.703000", "175134.718000", "175134.718000", "175134.718000", "175134.718000", "175134.718000", "175134.718000", "175134.718000", "175134.734000", "175134.734000", "175134.734000", "175134.734000", "175134.734000", "175134.734000", "175134.750000", "175134.750000", "175134.750000", "175134.750000", "175134.750000", "175210.281000", "175210.281000", "175210.281000", "175210.281000", "175210.296000", "175210.296000", "175210.296000", "175210.296000", "175210.296000", "175210.296000", "175210.296000", "175210.312000", "175210.312000", "175210.312000", "175210.312000", "175210.312000", "175210.328000"],
      "DataSetTrailingPadding": [
        "\u0000\u0000\u0000\u0000\u0000\u0000\u0000\u0000\u0000\u0000\u0000\u0000\u0000\u0000\u0000\u0000\u0000\u0000\u0000\u0000\u0000\u0000\u0000\u0000\u0000\u0000\u0000\u0000\u0000\u0000\u0000\u0000\u0000\u0000\u0000\u0000\u0000\u0000\u0000\u0000\u0000\u0000\u0000\u0000\u0000\u0000\u0000\u0000\u0000\u0000\u0000\u0000\u0000\u0000\u0000\u0000\u0000\u0000\u0000\u0000\u0000\u0000\u0000\u0000\u0000\u0000\u0000\u0000\u0000\u0000\u0000\u0000\u0000\u0000\u0000\u0000\u0000\u0000\u0000\u0000\u0000\u0000\u0000\u0000\u0000\u0000\u0000\u0000\u0000\u0000\u0000\u0000\u0000\u0000\u0000\u0000\u0000\u0000\u0000\u0000\u0000\u0000\u0000\u0000\u0000\u0000\u0000\u0000\u0000\u0000\u0000\u0000\u0000\u0000\u0000\u0000\u0000\u0000\u0000\u0000",
        "\u0000\u0000\u0000\u0000\u0000\u0000\u0000\u0000\u0000\u0000\u0000\u0000\u0000\u0000\u0000\u0000\u0000\u0000\u0000\u0000\u0000\u0000\u0000\u0000\u0000\u0000\u0000\u0000\u0000\u0000\u0000\u0000\u0000\u0000\u0000\u0000\u0000\u0000\u0000\u0000\u0000\u0000\u0000\u0000\u0000\u0000\u0000\u0000\u0000\u0000\u0000\u0000\u0000\u0000\u0000\u0000\u0000\u0000\u0000\u0000\u0000\u0000\u0000\u0000\u0000\u0000\u0000\u0000\u0000\u0000\u0000\u0000\u0000\u0000\u0000\u0000\u0000\u0000\u0000\u0000\u0000\u0000\u0000\u0000\u0000\u0000\u0000\u0000\u0000\u0000\u0000\u0000\u0000\u0000\u0000\u0000\u0000\u0000\u0000\u0000\u0000\u0000\u0000\u0000\u0000\u0000\u0000\u0000\u0000\u0000\u0000\u0000\u0000\u0000\u0000\u0000\u0000\u0000\u0000\u0000",
