{
  "AcquisitionMatrixPE": 104,
  "AcquisitionNumber": 1,
  "AcquisitionTime": "16:56:54.727500",
  "BandwidthPerPixelPhaseEncode": 13.935,
  "BaseResolution": 104,
  "CoilString": "C:HEA;HEP",
  "ConversionSoftware": "dcm2niix",
  "ConversionSoftwareVersion": "v1.0.20210317",
  "DerivedVendorReportedEchoSpacing": 0.000690017,
  "DeviceSerialNumber": "35450",
  "DwellTime": 2.5e-06,
  "EchoTime": 0.0348,
  "EffectiveEchoSpacing": 0.000690017,
  "FlipAngle": 55,
  "ImageComments": "Unaliased MB8/PE3",
  "ImageOrientationPatientDICOM": [0.999848, 0.000304494, -0.0174455, 4.81466e-08, 0.999848, 0.0174541],
  "ImageType": [
    "ORIGINAL",
    "PRIMARY",
    "M",
    "MB",
    "ND",
    "MOSAIC"
],
  "ImagingFrequency": 123.234,
  "InPlanePhaseEncodingDirectionDICOM": "COL",
  "InstitutionAddress": "Univeristy Ave. 197,Newark,North East,US,07102-1814",
  "InstitutionName": "RUBIC",
  "InstitutionalDepartmentName": "Department",
  "MRAcquisitionType": "2D",
  "MagneticFieldStrength": 3,
  "Manufacturer": "Siemens",
  "ManufacturersModelName": "TrioTim",
  "Modality": "MR",
  "MultibandAccelerationFactor": 8,
  "PartialFourier": 0.875,
  "PatientPosition": "HFS",
  "PercentPhaseFOV": 100,
  "PercentSampling": 100,
  "PhaseEncodingDirection": "j-",
  "PhaseEncodingSteps": 91,
  "PhaseResolution": 1,
  "PixelBandwidth": 1923,
  "ProcedureStepDescription": "Cole^Michael",
  "ProtocolName": "cmrr_mbep2d_bold_2mm_MB8_Task_8x",
  "PulseSequenceDetails": "%CustomerSeq%\\cmrr_mbep2d_bold",
  "ReceiveCoilName": "32Ch_Head",
  "ReconMatrixPE": 104,
  "RepetitionTime": 0.785,
  "SAR": 0.143074,
  "ScanOptions": "PFP\\FS",
  "ScanningSequence": "EP",
  "SequenceName": "epfid2d1_104",
  "SequenceVariant": "SK\\SS",
  "SeriesDescription": "cmrr_mbep2d_bold_2mm_MB8_Task_8x",
  "SeriesNumber": 29,
  "ShimSetting": [2063, -443, -7295, 354, 30, -482, 45, 57],
  "SliceThickness": 2,
  "SliceTiming": [0, 0.4375, 0.0875, 0.525, 0.175, 0.6125, 0.2625, 0.7, 0.35, 0, 0.4375, 0.0875, 0.525, 0.175, 0.6125, 0.2625, 0.7, 0.35, 0, 0.4375, 0.0875, 0.525, 0.175, 0.6125, 0.2625, 0.7, 0.35, 0, 0.4375, 0.0875, 0.525, 0.175, 0.6125, 0.2625, 0.7, 0.35, 0, 0.4375, 0.0875, 0.525, 0.175, 0.6125, 0.2625, 0.7, 0.35, 0, 0.4375, 0.0875, 0.525, 0.175, 0.6125, 0.2625, 0.7, 0.35, 0, 0.4375, 0.0875, 0.525, 0.175, 0.6125, 0.2625, 0.7, 0.35, 0, 0.4375, 0.0875, 0.525, 0.175, 0.6125, 0.2625, 0.7, 0.35],
  "SoftwareVersions": "syngo MR B19",
  "SpacingBetweenSlices": 2,
  "StationName": "MRC35450",
  "TaskName": "cpro",
  "TotalReadoutTime": 0.0710717,
  "TxRefAmp": 334.042,
  "dcmmeta_affine": [
    [-1.9996955394744873, 9.629313524328609e-08, -0.034896306693553925, 106.29036712646484],
    [-0.0006089875823818147, 1.9996953010559082, 0.0349029004573822, -90.44208526611328],
    [-0.03489099442958832, -0.03490821272134781, 1.999390959739685, -82.82828521728516],
    [0.0, 0.0, 0.0, 1.0]
],
  "dcmmeta_reorient_transform": [
    [0.0, -1.0, 0.0, 103.0],
    [1.0, 0.0, 0.0, 0.0],
    [0.0, 0.0, 1.0, 0.0],
    [0.0, 0.0, 0.0, 1.0]
],
  "dcmmeta_shape": [104, 104, 72, 581],
  "dcmmeta_slice_dim": 2,
  "dcmmeta_version": 0.6,
  "global": {
    "const": {
      "AcquisitionMatrix": [104, 0, 0, 104],
      "AngioFlag": "N",
      "BitsAllocated": 16,
      "BitsStored": 12,
      "Columns": 936,
      "EchoNumbers": 1,
      "EchoTime": 34.8,
      "EchoTrainLength": 1,
      "FlipAngle": 55.0,
      "HighBit": 11,
      "ImageOrientationPatient": [0.99984776937914, 0.00030449379544, -0.0174454965846, 4.8146568e-08, 0.99984766548581, 0.01745410618091],
      "ImagePositionPatient": [-938.16376033097, -947.65313371085, -86.43099406802],
      "ImageType": [
        "ORIGINAL",
        "PRIMARY",
        "M",
        "MB",
        "ND",
        "MOSAIC"
],
      "ImagedNucleus": "1H",
      "ImagingFrequency": 123.234434,
      "InPlanePhaseEncodingDirection": "COL",
      "MRAcquisitionType": "2D",
      "MagneticFieldStrength": 3.0,
      "Manufacturer": "SIEMENS",
      "ManufacturerModelName": "TrioTim",
      "Modality": "MR",
      "NumberOfAverages": 1.0,
      "NumberOfPhaseEncodingSteps": 91,
      "PercentPhaseFieldOfView": 100.0,
      "PercentSampling": 100.0,
      "PerformedProcedureStepStartTime": "150522.062000",
      "PhotometricInterpretation": "MONOCHROME2",
      "PixelBandwidth": 1923.0,
      "PixelRepresentation": 0,
      "PixelSpacing": [2.0, 2.0],
      "ProtocolName": "cmrr_mbep2d_bold_2mm_MB8_Task_8x",
      "RepetitionTime": 785.0,
      "Rows": 936,
      "SAR": 0.1430736028208,
      "SamplesPerPixel": 1,
      "ScanOptions": [
        "PFP",
        "FS"
],
      "ScanningSequence": "EP",
      "SequenceName": "epfid2d1_104",
      "SequenceVariant": [
        "SK",
        "SS"
],
      "SeriesDescription": "cmrr_mbep2d_bold_2mm_MB8_Task_8x",
      "SeriesNumber": 29,
      "SeriesTime": "185509.500000",
      "SliceLocation": -86.235976436838,
      "SliceThickness": 2.0,
      "SmallestImagePixelValue": 0,
      "SoftwareVersions": "syngo MR B19",
      "SpacingBetweenSlices": 2.0000000217543,
      "SpecificCharacterSet": "ISO_IR 100",
      "StudyID": "1",
      "StudyTime": "150522.000000",
      "TransmitCoilName": "Body",
      "VariableFlipAngleFlag": "N",
      "WindowCenterWidthExplanation": "Algo1",
      "dBdt": 0.0},
    "slices": {}
  },
  "time": {
    "samples": {
      "AcquisitionNumber": [1, 2, 3, 4, 5, 6, 7, 8, 9, 10, 11, 12, 13, 14, 15, 16, 17, 18, 19, 20, 21, 22, 23, 24, 25, 26, 27, 28, 29, 30, 31, 32, 33, 34, 35, 36, 37, 38, 39, 40, 41, 42, 43, 44, 45, 46, 47, 48, 49, 50, 51, 52, 53, 54, 55, 56, 57, 58, 59, 60, 61, 62, 63, 64, 65, 66, 67, 68, 69, 70, 71, 72, 73, 74, 75, 76, 77, 78, 79, 80, 81, 82, 83, 84, 85, 86, 87, 88, 89, 90, 91, 92, 93, 94, 95, 96, 97, 98, 99, 100, 101, 102, 103, 104, 105, 106, 107, 108, 109, 110, 111, 112, 113, 114, 115, 116, 117, 118, 119, 120, 121, 122, 123, 124, 125, 126, 127, 128, 129, 130, 131, 132, 133, 134, 135, 136, 137, 138, 139, 140, 141, 142, 143, 144, 145, 146, 147, 148, 149, 150, 151, 152, 153, 154, 155, 156, 157, 158, 159, 160, 161, 162, 163, 164, 165, 166, 167, 168, 169, 170, 171, 172, 173, 174, 175, 176, 177, 178, 179, 180, 181, 182, 183, 184, 185, 186, 187, 188, 189, 190, 191, 192, 193, 194, 195, 196, 197, 198, 199, 200, 201, 202, 203, 204, 205, 206, 207, 208, 209, 210, 211, 212, 213, 214, 215, 216, 217, 218, 219, 220, 221, 222, 223, 224, 225, 226, 227, 228, 229, 230, 231, 232, 233, 234, 235, 236, 237, 238, 239, 240, 241, 242, 243, 244, 245, 246, 247, 248, 249, 250, 251, 252, 253, 254, 255, 256, 257, 258, 259, 260, 261, 262, 263, 264, 265, 266, 267, 268, 269, 270, 271, 272, 273, 274, 275, 276, 277, 278, 279, 280, 281, 282, 283, 284, 285, 286, 287, 288, 289, 290, 291, 292, 293, 294, 295, 296, 297, 298, 299, 300, 301, 302, 303, 304, 305, 306, 307, 308, 309, 310, 311, 312, 313, 314, 315, 316, 317, 318, 319, 320, 321, 322, 323, 324, 325, 326, 327, 328, 329, 330, 331, 332, 333, 334, 335, 336, 337, 338, 339, 340, 341, 342, 343, 344, 345, 346, 347, 348, 349, 350, 351, 352, 353, 354, 355, 356, 357, 358, 359, 360, 361, 362, 363, 364, 365, 366, 367, 368, 369, 370, 371, 372, 373, 374, 375, 376, 377, 378, 379, 380, 381, 382, 383, 384, 385, 386, 387, 388, 389, 390, 391, 392, 393, 394, 395, 396, 397, 398, 399, 400, 401, 402, 403, 404, 405, 406, 407, 408, 409, 410, 411, 412, 413, 414, 415, 416, 417, 418, 419, 420, 421, 422, 423, 424, 425, 426, 427, 428, 429, 430, 431, 432, 433, 434, 435, 436, 437, 438, 439, 440, 441, 442, 443, 444, 445, 446, 447, 448, 449, 450, 451, 452, 453, 454, 455, 456, 457, 458, 459, 460, 461, 462, 463, 464, 465, 466, 467, 468, 469, 470, 471, 472, 473, 474, 475, 476, 477, 478, 479, 480, 481, 482, 483, 484, 485, 486, 487, 488, 489, 490, 491, 492, 493, 494, 495, 496, 497, 498, 499, 500, 501, 502, 503, 504, 505, 506, 507, 508, 509, 510, 511, 512, 513, 514, 515, 516, 517, 518, 519, 520, 521, 522, 523, 524, 525, 526, 527, 528, 529, 530, 531, 532, 533, 534, 535, 536, 537, 538, 539, 540, 541, 542, 543, 544, 545, 546, 547, 548, 549, 550, 551, 552, 553, 554, 555, 556, 557, 558, 559, 560, 561, 562, 563, 564, 565, 566, 567, 568, 569, 570, 571, 572, 573, 574, 575, 576, 577, 578, 579, 580, 581],
      "AcquisitionTime": ["165654.727500", "165655.515000", "165656.302500", "165657.092500", "165657.880000", "165658.667500", "165659.455000", "165700.245000", "165701.032500", "165701.820000", "165702.607500", "165703.397500", "165704.185000", "165704.972500", "165705.760000", "165706.550000", "165707.337500", "165708.125000", "165708.912500", "165709.702500", "165710.490000", "165711.277500", "165712.067500", "165712.855000", "165713.642500", "165714.430000", "165715.220000", "165716.007500", "165716.795000", "165717.582500", "165718.372500", "165719.160000", "165719.947500", "165720.735000", "165721.525000", "165722.312500", "165723.100000", "165723.887500", "165724.677500", "165725.465000", "165726.252500", "165727.040000", "165727.830000", "165728.617500", "165729.405000", "165730.195000", "165730.982500", "165731.770000", "165732.557500", "165733.347500", "165734.135000", "165734.922500", "165735.710000", "165736.500000", "165737.287500", "165738.075000", "165738.862500", "165739.652500", "165740.440000", "165741.227500", "165742.015000", "165742.805000", "165743.592500", "165744.380000", "165745.167500", "165745.957500", "165746.745000", "165747.532500", "165748.322500", "165749.110000", "165749.897500", "165750.685000", "165751.475000", "165752.262500", "165753.050000", "165753.837500", "165754.627500", "165755.415000", "165756.202500", "165756.990000", "165757.780000", "165758.567500", "165759.355000", "165800.142500", "165800.932500", "165801.720000", "165802.507500", "165803.295000", "165804.085000", "165804.872500", "165805.660000", "165806.450000", "165807.237500", "165808.025000", "165808.812500", "165809.602500", "165810.390000", "165811.177500", "165811.965000", "165812.755000", "165813.542500", "165814.330000", "165815.117500", "165815.907500", "165816.695000", "165817.482500", "165818.270000", "165819.060000", "165819.847500", "165820.635000", "165821.422500", "165822.212500", "165823.000000", "165823.787500", "165824.577500", "165825.365000", "165826.152500", "165826.940000", "165827.730000", "165828.517500", "165829.305000", "165830.092500", "165830.882500", "165831.670000", "165832.457500", "165833.245000", "165834.035000", "165834.822500", "165835.610000", "165836.397500", "165837.187500", "165837.975000", "165838.762500", "165839.550000", "165840.340000", "165841.127500", "165841.915000", "165842.705000", "165843.492500", "165844.280000", "165845.067500", "165845.857500", "165846.645000", "165847.432500", "165848.220000", "165849.010000", "165849.797500", "165850.585000", "165851.372500", "165852.162500", "165852.950000", "165853.737500", "165854.525000", "165855.315000", "165856.102500", "165856.890000", "165857.677500", "165858.467500", "165859.255000", "165900.042500", "165900.832500", "165901.620000", "165902.407500", "165903.195000", "165903.985000", "165904.772500", "165905.560000", "165906.347500", "165907.137500", "165907.925000", "165908.712500", "165909.500000", "165910.290000", "165911.077500", "165911.865000", "165912.652500", "165913.442500", "165914.230000", "165915.017500", "165915.805000", "165916.595000", "165917.382500", "165918.170000", "165918.960000", "165919.747500", "165920.535000", "165921.322500", "165922.112500", "165922.900000", "165923.687500", "165924.475000", "165925.265000", "165926.052500", "165926.840000", "165927.627500", "165928.417500", "165929.205000", "165929.992500", "165930.780000", "165931.570000", "165932.357500", "165933.145000", "165933.935000", "165934.722500", "165935.510000", "165936.297500", "165937.087500", "165937.875000", "165938.662500", "165939.450000", "165940.240000", "165941.027500", "165941.815000", "165942.602500", "165943.392500", "165944.180000", "165944.967500", "165945.755000", "165946.545000", "165947.332500", "165948.120000", "165948.907500", "165949.697500", "165950.485000", "165951.272500", "165952.062500", "165952.850000", "165953.637500", "165954.425000", "165955.215000", "165956.002500", "165956.790000", "165957.577500", "165958.367500", "165959.155000", "165959.942500", "170000.730000", "170001.520000", "170002.307500", "170003.095000", "170003.882500", "170004.672500", "170005.460000", "170006.247500", "170007.035000", "170007.825000", "170008.612500", "170009.400000", "170010.190000", "170010.977500", "170011.765000", "170012.552500", "170013.342500", "170014.130000", "170014.917500", "170015.705000", "170016.495000", "170017.282500", "170018.070000", "170018.857500", "170019.647500", "170020.435000", "170021.222500", "170022.010000", "170022.800000", "170023.587500", "170024.375000", "170025.162500", "170025.952500", "170026.740000", "170027.527500", "170028.317500", "170029.105000", "170029.892500", "170030.680000", "170031.470000", "170032.257500", "170033.045000", "170033.832500", "170034.622500", "170035.410000", "170036.197500", "170036.985000", "170037.775000", "170038.562500", "170039.350000", "170040.137500", "170040.927500", "170041.715000", "170042.502500", "170043.290000", "170044.080000", "170044.867500", "170045.655000", "170046.445000", "170047.232500", "170048.020000", "170048.807500", "170049.597500", "170050.385000", "170051.172500", "170051.960000", "170052.750000", "170053.537500", "170054.325000", "170055.112500", "170055.902500", "170056.690000", "170057.477500", "170058.265000", "170059.055000", "170059.842500", "170100.630000", "170101.417500", "170102.207500", "170102.995000", "170103.782500", "170104.572500", "170105.360000", "170106.147500", "170106.935000", "170107.725000", "170108.512500", "170109.300000", "170110.087500", "170110.877500", "170111.665000", "170112.452500", "170113.240000", "170114.030000", "170114.817500", "170115.605000", "170116.392500", "170117.182500", "170117.970000", "170118.757500", "170119.545000", "170120.335000", "170121.122500", "170121.910000", "170122.700000", "170123.487500", "170124.275000", "170125.062500", "170125.852500", "170126.640000", "170127.427500", "170128.215000", "170129.005000", "170129.792500", "170130.580000", "170131.367500", "170132.157500", "170132.945000", "170133.732500", "170134.520000", "170135.310000", "170136.097500", "170136.885000", "170137.672500", "170138.462500", "170139.250000", "170140.037500", "170140.827500", "170141.615000", "170142.402500", "170143.190000", "170143.980000", "170144.767500", "170145.555000", "170146.342500", "170147.132500", "170147.920000", "170148.707500", "170149.495000", "170150.285000", "170151.072500", "170151.860000", "170152.647500", "170153.437500", "170154.225000", "170155.012500", "170155.800000", "170156.590000", "170157.377500", "170158.165000", "170158.955000", "170159.742500", "170200.530000", "170201.317500", "170202.107500", "170202.895000", "170203.682500", "170204.470000", "170205.260000", "170206.047500", "170206.835000", "170207.622500", "170208.412500", "170209.200000", "170209.987500", "170210.775000", "170211.565000", "170212.352500", "170213.140000", "170213.927500", "170214.717500", "170215.505000", "170216.292500", "170217.082500", "170217.870000", "170218.657500", "170219.445000", "170220.235000", "170221.022500", "170221.810000", "170222.597500", "170223.387500", "170224.175000", "170224.962500", "170225.750000", "170226.540000", "170227.327500", "170228.115000", "170228.902500", "170229.692500", "170230.480000", "170231.267500", "170232.055000", "170232.845000", "170233.632500", "170234.420000", "170235.210000", "170235.997500", "170236.785000", "170237.572500", "170238.362500", "170239.150000", "170239.937500", "170240.725000", "170241.515000", "170242.302500", "170243.090000", "170243.877500", "170244.667500", "170245.455000", "170246.242500", "170247.030000", "170247.820000", "170248.607500", "170249.395000", "170250.185000", "170250.972500", "170251.760000", "170252.547500", "170253.337500", "170254.125000", "170254.912500", "170255.700000", "170256.490000", "170257.277500", "170258.065000", "170258.852500", "170259.642500", "170300.430000", "170301.217500", "170302.005000", "170302.795000", "170303.582500", "170304.370000", "170305.157500", "170305.947500", "170306.735000", "170307.522500", "170308.312500", "170309.100000", "170309.887500", "170310.675000", "170311.465000", "170312.252500", "170313.040000", "170313.827500", "170314.617500", "170315.405000", "170316.192500", "170316.980000", "170317.770000", "170318.557500", "170319.345000", "170320.132500", "170320.922500", "170321.710000", "170322.497500", "170323.285000", "170324.075000", "170324.862500", "170325.650000", "170326.440000", "170327.227500", "170328.015000", "170328.802500", "170329.592500", "170330.380000", "170331.167500", "170331.955000", "170332.745000", "170333.532500", "170334.320000", "170335.107500", "170335.897500", "170336.685000", "170337.472500", "170338.260000", "170339.050000", "170339.837500", "170340.625000", "170341.412500", "170342.202500", "170342.990000", "170343.777500", "170344.567500", "170345.355000", "170346.142500", "170346.930000", "170347.720000", "170348.507500", "170349.295000", "170350.082500", "170350.872500", "170351.660000", "170352.447500", "170353.235000", "170354.025000", "170354.812500", "170355.600000", "170356.387500", "170357.177500", "170357.965000", "170358.752500", "170359.540000", "170400.330000", "170401.117500", "170401.905000", "170402.695000", "170403.482500", "170404.270000", "170405.057500", "170405.847500", "170406.635000", "170407.422500", "170408.210000", "170409.000000", "170409.787500", "170410.575000", "170411.362500", "170412.152500", "170412.940000", "170413.727500", "170414.515000", "170415.305000", "170416.092500", "170416.880000", "170417.667500", "170418.457500", "170419.245000", "170420.032500", "170420.822500", "170421.610000", "170422.397500", "170423.185000", "170423.975000", "170424.762500", "170425.550000", "170426.337500", "170427.127500", "170427.915000", "170428.702500", "170429.490000", "170430.280000", "170431.067500", "170431.855000"],
      "ContentTime": ["185509.500000", "185509.500000", "185509.500000", "185509.515000", "185509.515000", "185609.468000", "185609.468000", "185609.468000", "185609.468000", "185609.484000", "185609.484000", "185609.484000", "185609.484000", "185609.484000", "185609.484000", "185609.484000", "185609.500000", "185609.500000", "185609.500000", "185609.500000", "185609.500000", "185609.500000", "185609.500000", "185609.515000", "185609.515000", "185609.515000", "185609.515000", "185609.515000", "185609.515000", "185609.515000", "185609.531000", "185609.531000", "185609.531000", "185709.468000", "185709.468000", "185709.468000", "185709.468000", "185709.484000", "185709.484000", "185709.484000", "185709.484000", "185709.484000", "185709.484000", "185709.484000", "185709.500000", "185709.500000", "185709.500000", "185709.500000", "185709.500000", "185709.500000", "185709.500000", "185709.515000", "185709.515000", "185709.515000", "185709.515000", "185709.515000", "185709.515000", "185709.515000", "185709.515000", "185709.531000", "185709.531000", "185709.531000", "185809.468000", "185809.468000", "185809.468000", "185809.468000", "185809.484000", "185809.484000", "185809.484000", "185809.484000", "185809.484000", "185809.484000", "185809.484000", "185809.500000", "185809.500000", "185809.500000", "185809.500000", "185809.500000", "185809.500000", "185809.500000", "185809.515000", "185809.515000", "185809.515000", "185809.515000", "185809.515000", "185809.515000", "185809.515000", "185809.515000", "185809.531000", "185809.531000", "185829.468000", "185829.468000", "185829.468000", "185829.468000", "185829.484000", "185829.484000", "185829.484000", "185829.484000", "185829.484000", "185929.468000", "185929.468000", "185929.468000", "185929.468000", "185929.484000", "185929.484000", "185929.484000", "185929.484000", "185929.484000", "185929.500000", "185929.500000", "185929.500000", "185929.500000", "185929.500000", "185929.500000", "185929.500000", "185929.515000", "185929.515000", "185929.515000", "185929.515000", "185929.515000", "185929.531000", "185929.531000", "185929.531000", "185929.531000", "185929.531000", "185929.531000", "185929.531000", "190029.468000", "190029.468000", "190029.468000", "190029.484000", "190029.484000", "190029.484000", "190029.484000", "190029.484000", "190029.484000", "190029.484000", "190029.500000", "190029.500000", "190029.500000", "190029.500000", "190029.500000", "190029.500000", "190029.500000", "190029.515000", "190029.515000", "190029.515000", "190029.515000", "190029.515000", "190029.515000", "190029.531000", "190029.531000", "190029.531000", "190029.531000", "190029.531000", "190029.531000", "190129.468000", "190129.468000", "190129.468000", "190129.468000", "190129.484000", "190129.484000", "190129.484000", "190129.484000", "190129.484000", "190129.484000", "190129.484000", "190129.500000", "190129.500000", "190129.500000", "190129.500000", "190129.500000", "190129.500000", "190129.500000", "190129.515000", "190129.515000", "190129.515000", "190129.515000", "190129.515000", "190129.515000", "190129.515000", "190129.531000", "190129.531000", "190129.531000", "190229.468000", "190229.468000", "190229.468000", "190229.468000", "190229.484000", "190229.484000", "190229.484000", "190229.484000", "190229.484000", "190229.484000", "190229.484000", "190229.500000", "190229.500000", "190229.500000", "190229.500000", "190229.500000", "190229.500000", "190229.500000", "190229.515000", "190229.515000", "190229.515000", "190229.515000", "190229.515000", "190229.515000", "190229.515000", "190229.531000", "190229.531000", "190229.531000", "190329.468000", "190329.468000", "190329.468000", "190329.468000", "190329.484000", "190329.484000", "190329.484000", "190329.484000", "190329.484000", "190329.484000", "190329.484000", "190329.500000", "190329.500000", "190329.500000", "190329.500000", "190329.500000", "190329.500000", "190329.500000", "190329.515000", "190329.515000", "190329.515000", "190329.515000", "190329.515000", "190329.515000", "190329.515000", "190329.531000", "190329.531000", "190329.531000", "190429.468000", "190429.468000", "190429.468000", "190429.468000", "190429.484000", "190429.484000", "190429.484000", "190429.484000", "190429.484000", "190429.484000", "190429.484000", "190429.500000", "190429.500000", "190429.500000", "190429.500000", "190429.500000", "190429.500000", "190429.500000", "190429.515000", "190429.515000", "190429.515000", "190429.515000", "190429.515000", "190429.515000", "190429.515000", "190429.531000", "190429.531000", "190429.531000", "190429.531000", "190529.468000", "190529.468000", "190529.468000", "190529.468000", "190529.484000", "190529.484000", "190529.484000", "190529.484000", "190529.484000", "190529.484000", "190529.484000", "190529.500000", "190529.500000", "190529.500000", "190529.500000", "190529.500000", "190529.500000", "190529.500000", "190529.515000", "190529.515000", "190529.515000", "190529.515000", "190529.515000", "190529.515000", "190529.531000", "190529.531000", "190529.531000", "190529.531000", "190629.468000", "190629.468000", "190629.468000", "190629.468000", "190629.484000", "190629.484000", "190629.484000", "190629.484000", "190629.484000", "190629.484000", "190629.484000", "190629.500000", "190629.500000", "190629.500000", "190629.500000", "190629.500000", "190629.500000", "190629.500000", "190629.515000", "190629.515000", "190629.515000", "190629.515000", "190629.515000", "190629.515000", "190629.515000", "190629.531000", "190629.531000", "190629.531000", "190729.468000", "190729.468000", "190729.468000", "190729.468000", "190729.484000", "190729.484000", "190729.484000", "190729.484000", "190729.484000", "190729.484000", "190729.500000", "190729.500000", "190729.500000", "190729.500000", "190729.500000", "190729.500000", "190729.515000", "190729.515000", "190729.515000", "190729.515000", "190729.515000", "190729.515000", "190729.515000", "190729.531000", "190729.531000", "190729.531000", "190729.531000", "190729.531000", "190829.468000", "190829.468000", "190829.468000", "190829.468000", "190829.484000", "190829.484000", "190829.484000", "190829.484000", "190829.484000", "190829.484000", "190829.484000", "190829.500000", "190829.500000", "190829.500000", "190829.500000", "190829.500000", "190829.500000", "190829.500000", "190829.515000", "190829.515000", "190829.515000", "190829.515000", "190829.515000", "190829.515000", "190829.515000", "190829.531000", "190829.531000", "190829.531000", "190929.468000", "190929.468000", "190929.468000", "190929.468000", "190929.484000", "190929.484000", "190929.484000", "190929.484000", "190929.484000", "190929.484000", "190929.484000", "190929.500000", "190929.500000", "190929.500000", "190929.500000", "190929.500000", "190929.500000", "190929.500000", "190929.515000", "190929.515000", "190929.515000", "190929.515000", "190929.515000", "190929.515000", "190929.515000", "190929.531000", "190929.531000", "190929.531000", "190929.531000", "191029.468000", "191029.468000", "191029.468000", "191029.468000", "191029.484000", "191029.484000", "191029.484000", "191029.484000", "191029.484000", "191029.500000", "191029.500000", "191029.500000", "191029.500000", "191029.500000", "191029.515000", "191029.515000", "191029.515000", "191029.515000", "191029.515000", "191029.515000", "191029.531000", "191029.531000", "191029.531000", "191029.531000", "191029.531000", "191029.531000", "191029.531000", "191029.546000", "191129.468000", "191129.468000", "191129.468000", "191129.468000", "191129.484000", "191129.484000", "191129.484000", "191129.484000", "191129.484000", "191129.484000", "191129.484000", "191129.500000", "191129.500000", "191129.500000", "191129.500000", "191129.500000", "191129.500000", "191129.500000", "191129.515000", "191129.515000", "191129.515000", "191129.515000", "191129.515000", "191129.531000", "191129.531000", "191129.531000", "191129.531000", "191129.531000", "191229.468000", "191229.468000", "191229.468000", "191229.468000", "191229.484000", "191229.484000", "191229.484000", "191229.484000", "191229.484000", "191229.484000", "191229.484000", "191229.500000", "191229.500000", "191229.500000", "191229.500000", "191229.500000", "191229.515000", "191229.515000", "191229.515000", "191229.515000", "191229.515000", "191229.515000", "191229.515000", "191229.531000", "191229.531000", "191229.531000", "191229.531000", "191229.531000", "191229.531000", "191329.468000", "191329.468000", "191329.468000", "191329.468000", "191329.484000", "191329.484000", "191329.484000", "191329.484000", "191329.484000", "191329.484000", "191329.484000", "191329.500000", "191329.500000", "191329.500000", "191329.500000", "191329.500000", "191329.500000", "191329.500000", "191329.515000", "191329.515000", "191329.515000", "191329.515000", "191329.515000", "191329.515000", "191329.531000", "191329.531000", "191329.531000", "191329.531000", "191429.468000", "191429.468000", "191429.468000", "191429.468000", "191429.484000", "191429.484000", "191429.484000", "191429.484000", "191429.484000", "191429.484000", "191429.484000", "191429.500000", "191429.500000", "191429.500000", "191429.500000", "191429.500000", "191429.500000", "191429.500000", "191429.515000", "191429.515000", "191429.515000", "191429.515000", "191429.515000", "191429.515000", "191429.515000", "191429.531000", "191429.531000", "191429.531000", "191529.468000", "191529.468000", "191529.468000", "191529.468000", "191529.484000", "191529.484000", "191529.484000", "191529.484000", "191529.484000", "191529.484000", "191529.484000", "191529.500000", "191529.500000", "191529.500000", "191529.500000", "191529.500000", "191529.500000", "191529.500000", "191529.515000", "191529.515000", "191529.515000", "191529.515000", "191529.515000", "191529.515000", "191529.531000", "191529.531000", "191529.531000", "191529.531000", "191531.750000", "191531.765000"],
      "DataSetTrailingPadding": [
        "\u0000\u0000\u0000\u0000\u0000\u0000\u0000\u0000\u0000\u0000\u0000\u0000\u0000\u0000\u0000\u0000\u0000\u0000\u0000\u0000\u0000\u0000\u0000\u0000\u0000\u0000\u0000\u0000\u0000\u0000\u0000\u0000\u0000\u0000\u0000\u0000\u0000\u0000\u0000\u0000\u0000\u0000\u0000\u0000\u0000\u0000\u0000\u0000\u0000\u0000\u0000\u0000\u0000\u0000\u0000\u0000\u0000\u0000\u0000\u0000\u0000\u0000\u0000\u0000\u0000\u0000\u0000\u0000\u0000\u0000\u0000\u0000\u0000\u0000\u0000\u0000\u0000\u0000\u0000\u0000\u0000\u0000\u0000\u0000\u0000\u0000\u0000\u0000\u0000\u0000\u0000\u0000\u0000\u0000\u0000\u0000\u0000\u0000\u0000\u0000\u0000\u0000\u0000\u0000\u0000\u0000\u0000\u0000\u0000\u0000\u0000\u0000\u0000\u0000\u0000\u0000\u0000\u0000\u0000\u0000",
        "\u0000\u0000\u0000\u0000\u0000\u0000\u0000\u0000\u0000\u0000\u0000\u0000\u0000\u0000\u0000\u0000\u0000\u0000\u0000\u0000\u0000\u0000\u0000\u0000\u0000\u0000\u0000\u0000\u0000\u0000\u0000\u0000\u0000\u0000\u0000\u0000\u0000\u0000\u0000\u0000\u0000\u0000\u0000\u0000\u0000\u0000\u0000\u0000\u0000\u0000\u0000\u0000\u0000\u0000\u0000\u0000\u0000\u0000\u0000\u0000\u0000\u0000\u0000\u0000\u0000\u0000\u0000\u0000\u0000\u0000\u0000\u0000\u0000\u0000\u0000\u0000\u0000\u0000\u0000\u0000\u0000\u0000\u0000\u0000\u0000\u0000\u0000\u0000\u0000\u0000\u0000\u0000\u0000\u0000\u0000\u0000\u0000\u0000\u0000\u0000\u0000\u0000\u0000\u0000\u0000\u0000\u0000\u0000\u0000\u0000\u0000\u0000\u0000\u0000\u0000\u0000\u0000\u0000\u0000\u0000",
