{
  "AcquisitionMatrixPE": 104,
  "AcquisitionNumber": 1,
  "AcquisitionTime": "15:32:43.172500",
  "BandwidthPerPixelPhaseEncode": 13.935,
  "BaseResolution": 104,
  "CoilString": "C:HEA;HEP",
  "ConversionSoftware": "dcm2niix",
  "ConversionSoftwareVersion": "v1.0.20210317",
  "DerivedVendorReportedEchoSpacing": 0.000690017,
  "DeviceSerialNumber": "35450",
  "DwellTime": 2.5e-06,
  "EchoTime": 0.0348,
  "EffectiveEchoSpacing": 0.000690017,
  "FlipAngle": 55,
  "ImageComments": "Unaliased MB8/PE3",
  "ImageOrientationPatientDICOM": [0.999848, 0.000304494, -0.0174455, 4.81466e-08, 0.999848, 0.0174541],
  "ImageType": [
    "ORIGINAL",
    "PRIMARY",
    "M",
    "MB",
    "ND",
    "MOSAIC"
],
  "ImagingFrequency": 123.234,
  "InPlanePhaseEncodingDirectionDICOM": "COL",
  "InstitutionAddress": "Univeristy Ave. 197,Newark,North East,US,07102-1814",
  "InstitutionName": "RUBIC",
  "InstitutionalDepartmentName": "Department",
  "MRAcquisitionType": "2D",
  "MagneticFieldStrength": 3,
  "Manufacturer": "Siemens",
  "ManufacturersModelName": "TrioTim",
  "Modality": "MR",
  "MultibandAccelerationFactor": 8,
  "PartialFourier": 0.875,
  "PatientPosition": "HFS",
  "PercentPhaseFOV": 100,
  "PercentSampling": 100,
  "PhaseEncodingDirection": "j-",
  "PhaseEncodingSteps": 91,
  "PhaseResolution": 1,
  "PixelBandwidth": 1923,
  "ProcedureStepDescription": "Cole^Michael",
  "ProtocolName": "cmrr_mbep2d_bold_2mm_MB8_Rest",
  "PulseSequenceDetails": "%CustomerSeq%\\cmrr_mbep2d_bold",
  "ReceiveCoilName": "32Ch_Head",
  "ReconMatrixPE": 104,
  "RepetitionTime": 0.785,
  "SAR": 0.129546,
  "ScanOptions": "PFP\\FS",
  "ScanningSequence": "EP",
  "SequenceName": "epfid2d1_104",
  "SequenceVariant": "SK\\SS",
  "SeriesDescription": "cmrr_mbep2d_bold_2mm_MB8_Rest",
  "SeriesNumber": 9,
  "ShimSetting": [2063, -443, -7295, 354, 30, -482, 45, 57],
  "SliceThickness": 2,
  "SliceTiming": [0, 0.4375, 0.0875, 0.525, 0.175, 0.6125, 0.2625, 0.7, 0.35, 0, 0.4375, 0.0875, 0.525, 0.175, 0.6125, 0.2625, 0.7, 0.35, 0, 0.4375, 0.0875, 0.525, 0.175, 0.6125, 0.2625, 0.7, 0.35, 0, 0.4375, 0.0875, 0.525, 0.175, 0.6125, 0.2625, 0.7, 0.35, 0, 0.4375, 0.0875, 0.525, 0.175, 0.6125, 0.2625, 0.7, 0.35, 0, 0.4375, 0.0875, 0.525, 0.175, 0.6125, 0.2625, 0.7, 0.35, 0, 0.4375, 0.0875, 0.525, 0.175, 0.6125, 0.2625, 0.7, 0.35, 0, 0.4375, 0.0875, 0.525, 0.175, 0.6125, 0.2625, 0.7, 0.35],
  "SoftwareVersions": "syngo MR B19",
  "SpacingBetweenSlices": 2,
  "StationName": "MRC35450",
  "TaskName": "rest",
  "TotalReadoutTime": 0.0710717,
  "TxRefAmp": 334.042,
  "dcmmeta_affine": [
    [-1.9996955394744873, 9.629313524328609e-08, -0.034896306693553925, 106.29036712646484],
    [-0.0006089875823818147, 1.9996953010559082, 0.0349029004573822, -90.44208526611328],
    [-0.03489099442958832, -0.03490821272134781, 1.999390959739685, -82.82828521728516],
    [0.0, 0.0, 0.0, 1.0]
],
  "dcmmeta_reorient_transform": [
    [0.0, -1.0, 0.0, 103.0],
    [1.0, 0.0, 0.0, 0.0],
    [0.0, 0.0, 1.0, 0.0],
    [0.0, 0.0, 0.0, 1.0]
],
  "dcmmeta_shape": [104, 104, 72, 1070],
  "dcmmeta_slice_dim": 2,
  "dcmmeta_version": 0.6,
  "global": {
    "const": {
      "AcquisitionMatrix": [104, 0, 0, 104],
      "AngioFlag": "N",
      "BitsAllocated": 16,
      "BitsStored": 12,
      "Columns": 936,
      "EchoNumbers": 1,
      "EchoTime": 34.8,
      "EchoTrainLength": 1,
      "FlipAngle": 55.0,
      "HighBit": 11,
      "ImageOrientationPatient": [0.99984776937914, 0.00030449379544, -0.0174454965846, 4.8146568e-08, 0.99984766548581, 0.01745410618091],
      "ImagePositionPatient": [-938.16376033097, -947.65313371085, -86.43099406802],
      "ImageType": [
        "ORIGINAL",
        "PRIMARY",
        "M",
        "MB",
        "ND",
        "MOSAIC"
],
      "ImagedNucleus": "1H",
      "ImagingFrequency": 123.23437,
      "InPlanePhaseEncodingDirection": "COL",
      "MRAcquisitionType": "2D",
      "MagneticFieldStrength": 3.0,
      "Manufacturer": "SIEMENS",
      "ManufacturerModelName": "TrioTim",
      "Modality": "MR",
      "NumberOfAverages": 1.0,
      "NumberOfPhaseEncodingSteps": 91,
      "PercentPhaseFieldOfView": 100.0,
      "PercentSampling": 100.0,
      "PerformedProcedureStepStartTime": "150522.062000",
      "PhotometricInterpretation": "MONOCHROME2",
      "PixelBandwidth": 1923.0,
      "PixelRepresentation": 0,
      "PixelSpacing": [2.0, 2.0],
      "ProtocolName": "cmrr_mbep2d_bold_2mm_MB8_Rest",
      "RepetitionTime": 785.0,
      "Rows": 936,
      "SAR": 0.12954634730145,
      "SamplesPerPixel": 1,
      "ScanOptions": [
        "PFP",
        "FS"
],
      "ScanningSequence": "EP",
      "SequenceName": "epfid2d1_104",
      "SequenceVariant": [
        "SK",
        "SS"
],
      "SeriesDescription": "cmrr_mbep2d_bold_2mm_MB8_Rest",
      "SeriesNumber": 9,
      "SeriesTime": "153355.453000",
      "SliceLocation": -86.235976436838,
      "SliceThickness": 2.0,
      "SmallestImagePixelValue": 0,
      "SoftwareVersions": "syngo MR B19",
      "SpacingBetweenSlices": 2.0000000217543,
      "SpecificCharacterSet": "ISO_IR 100",
      "StudyID": "1",
      "StudyTime": "150522.000000",
      "TransmitCoilName": "Body",
      "VariableFlipAngleFlag": "N",
      "WindowCenterWidthExplanation": "Algo1",
      "dBdt": 0.0},
    "slices": {}
  },
  "time": {
    "samples": {
      "AcquisitionNumber": [1, 2, 3, 4, 5, 6, 7, 8, 9, 10, 11, 12, 13, 14, 15, 16, 17, 18, 19, 20, 21, 22, 23, 24, 25, 26, 27, 28, 29, 30, 31, 32, 33, 34, 35, 36, 37, 38, 39, 40, 41, 42, 43, 44, 45, 46, 47, 48, 49, 50, 51, 52, 53, 54, 55, 56, 57, 58, 59, 60, 61, 62, 63, 64, 65, 66, 67, 68, 69, 70, 71, 72, 73, 74, 75, 76, 77, 78, 79, 80, 81, 82, 83, 84, 85, 86, 87, 88, 89, 90, 91, 92, 93, 94, 95, 96, 97, 98, 99, 100, 101, 102, 103, 104, 105, 106, 107, 108, 109, 110, 111, 112, 113, 114, 115, 116, 117, 118, 119, 120, 121, 122, 123, 124, 125, 126, 127, 128, 129, 130, 131, 132, 133, 134, 135, 136, 137, 138, 139, 140, 141, 142, 143, 144, 145, 146, 147, 148, 149, 150, 151, 152, 153, 154, 155, 156, 157, 158, 159, 160, 161, 162, 163, 164, 165, 166, 167, 168, 169, 170, 171, 172, 173, 174, 175, 176, 177, 178, 179, 180, 181, 182, 183, 184, 185, 186, 187, 188, 189, 190, 191, 192, 193, 194, 195, 196, 197, 198, 199, 200, 201, 202, 203, 204, 205, 206, 207, 208, 209, 210, 211, 212, 213, 214, 215, 216, 217, 218, 219, 220, 221, 222, 223, 224, 225, 226, 227, 228, 229, 230, 231, 232, 233, 234, 235, 236, 237, 238, 239, 240, 241, 242, 243, 244, 245, 246, 247, 248, 249, 250, 251, 252, 253, 254, 255, 256, 257, 258, 259, 260, 261, 262, 263, 264, 265, 266, 267, 268, 269, 270, 271, 272, 273, 274, 275, 276, 277, 278, 279, 280, 281, 282, 283, 284, 285, 286, 287, 288, 289, 290, 291, 292, 293, 294, 295, 296, 297, 298, 299, 300, 301, 302, 303, 304, 305, 306, 307, 308, 309, 310, 311, 312, 313, 314, 315, 316, 317, 318, 319, 320, 321, 322, 323, 324, 325, 326, 327, 328, 329, 330, 331, 332, 333, 334, 335, 336, 337, 338, 339, 340, 341, 342, 343, 344, 345, 346, 347, 348, 349, 350, 351, 352, 353, 354, 355, 356, 357, 358, 359, 360, 361, 362, 363, 364, 365, 366, 367, 368, 369, 370, 371, 372, 373, 374, 375, 376, 377, 378, 379, 380, 381, 382, 383, 384, 385, 386, 387, 388, 389, 390, 391, 392, 393, 394, 395, 396, 397, 398, 399, 400, 401, 402, 403, 404, 405, 406, 407, 408, 409, 410, 411, 412, 413, 414, 415, 416, 417, 418, 419, 420, 421, 422, 423, 424, 425, 426, 427, 428, 429, 430, 431, 432, 433, 434, 435, 436, 437, 438, 439, 440, 441, 442, 443, 444, 445, 446, 447, 448, 449, 450, 451, 452, 453, 454, 455, 456, 457, 458, 459, 460, 461, 462, 463, 464, 465, 466, 467, 468, 469, 470, 471, 472, 473, 474, 475, 476, 477, 478, 479, 480, 481, 482, 483, 484, 485, 486, 487, 488, 489, 490, 491, 492, 493, 494, 495, 496, 497, 498, 499, 500, 501, 502, 503, 504, 505, 506, 507, 508, 509, 510, 511, 512, 513, 514, 515, 516, 517, 518, 519, 520, 521, 522, 523, 524, 525, 526, 527, 528, 529, 530, 531, 532, 533, 534, 535, 536, 537, 538, 539, 540, 541, 542, 543, 544, 545, 546, 547, 548, 549, 550, 551, 552, 553, 554, 555, 556, 557, 558, 559, 560, 561, 562, 563, 564, 565, 566, 567, 568, 569, 570, 571, 572, 573, 574, 575, 576, 577, 578, 579, 580, 581, 582, 583, 584, 585, 586, 587, 588, 589, 590, 591, 592, 593, 594, 595, 596, 597, 598, 599, 600, 601, 602, 603, 604, 605, 606, 607, 608, 609, 610, 611, 612, 613, 614, 615, 616, 617, 618, 619, 620, 621, 622, 623, 624, 625, 626, 627, 628, 629, 630, 631, 632, 633, 634, 635, 636, 637, 638, 639, 640, 641, 642, 643, 644, 645, 646, 647, 648, 649, 650, 651, 652, 653, 654, 655, 656, 657, 658, 659, 660, 661, 662, 663, 664, 665, 666, 667, 668, 669, 670, 671, 672, 673, 674, 675, 676, 677, 678, 679, 680, 681, 682, 683, 684, 685, 686, 687, 688, 689, 690, 691, 692, 693, 694, 695, 696, 697, 698, 699, 700, 701, 702, 703, 704, 705, 706, 707, 708, 709, 710, 711, 712, 713, 714, 715, 716, 717, 718, 719, 720, 721, 722, 723, 724, 725, 726, 727, 728, 729, 730, 731, 732, 733, 734, 735, 736, 737, 738, 739, 740, 741, 742, 743, 744, 745, 746, 747, 748, 749, 750, 751, 752, 753, 754, 755, 756, 757, 758, 759, 760, 761, 762, 763, 764, 765, 766, 767, 768, 769, 770, 771, 772, 773, 774, 775, 776, 777, 778, 779, 780, 781, 782, 783, 784, 785, 786, 787, 788, 789, 790, 791, 792, 793, 794, 795, 796, 797, 798, 799, 800, 801, 802, 803, 804, 805, 806, 807, 808, 809, 810, 811, 812, 813, 814, 815, 816, 817, 818, 819, 820, 821, 822, 823, 824, 825, 826, 827, 828, 829, 830, 831, 832, 833, 834, 835, 836, 837, 838, 839, 840, 841, 842, 843, 844, 845, 846, 847, 848, 849, 850, 851, 852, 853, 854, 855, 856, 857, 858, 859, 860, 861, 862, 863, 864, 865, 866, 867, 868, 869, 870, 871, 872, 873, 874, 875, 876, 877, 878, 879, 880, 881, 882, 883, 884, 885, 886, 887, 888, 889, 890, 891, 892, 893, 894, 895, 896, 897, 898, 899, 900, 901, 902, 903, 904, 905, 906, 907, 908, 909, 910, 911, 912, 913, 914, 915, 916, 917, 918, 919, 920, 921, 922, 923, 924, 925, 926, 927, 928, 929, 930, 931, 932, 933, 934, 935, 936, 937, 938, 939, 940, 941, 942, 943, 944, 945, 946, 947, 948, 949, 950, 951, 952, 953, 954, 955, 956, 957, 958, 959, 960, 961, 962, 963, 964, 965, 966, 967, 968, 969, 970, 971, 972, 973, 974, 975, 976, 977, 978, 979, 980, 981, 982, 983, 984, 985, 986, 987, 988, 989, 990, 991, 992, 993, 994, 995, 996, 997, 998, 999, 1000, 1001, 1002, 1003, 1004, 1005, 1006, 1007, 1008, 1009, 1010, 1011, 1012, 1013, 1014, 1015, 1016, 1017, 1018, 1019, 1020, 1021, 1022, 1023, 1024, 1025, 1026, 1027, 1028, 1029, 1030, 1031, 1032, 1033, 1034, 1035, 1036, 1037, 1038, 1039, 1040, 1041, 1042, 1043, 1044, 1045, 1046, 1047, 1048, 1049, 1050, 1051, 1052, 1053, 1054, 1055, 1056, 1057, 1058, 1059, 1060, 1061, 1062, 1063, 1064, 1065, 1066, 1067, 1068, 1069, 1070],
      "AcquisitionTime": ["153243.172500", "153243.960000", "153244.750000", "153245.537500", "153246.325000", "153247.112500", "153247.902500", "153248.690000", "153249.477500", "153250.267500", "153251.055000", "153251.842500", "153252.630000", "153253.420000", "153254.207500", "153254.995000", "153255.782500", "153256.572500", "153257.360000", "153258.147500", "153258.935000", "153259.725000", "153300.512500", "153301.300000", "153302.087500", "153302.877500", "153303.665000", "153304.452500", "153305.240000", "153306.030000", "153306.817500", "153307.605000", "153308.395000", "153309.182500", "153309.970000", "153310.757500", "153311.547500", "153312.335000", "153313.122500", "153313.910000", "153314.700000", "153315.487500", "153316.275000", "153317.062500", "153317.852500", "153318.640000", "153319.427500", "153320.215000", "153321.005000", "153321.792500", "153322.580000", "153323.370000", "153324.157500", "153324.945000", "153325.732500", "153326.522500", "153327.310000", "153328.097500", "153328.885000", "153329.675000", "153330.462500", "153331.250000", "153332.037500", "153332.827500", "153333.615000", "153334.402500", "153335.190000", "153335.980000", "153336.767500", "153337.555000", "153338.342500", "153339.132500", "153339.920000", "153340.707500", "153341.497500", "153342.285000", "153343.072500", "153343.860000", "153344.650000", "153345.437500", "153346.225000", "153347.012500", "153347.802500", "153348.590000", "153349.377500", "153350.165000", "153350.955000", "153351.742500", "153352.530000", "153353.317500", "153354.107500", "153354.895000", "153355.682500", "153356.470000", "153357.260000", "153358.047500", "153358.835000", "153359.625000", "153400.412500", "153401.200000", "153401.987500", "153402.777500", "153403.565000", "153404.352500", "153405.140000", "153405.930000", "153406.717500", "153407.505000", "153408.292500", "153409.082500", "153409.870000", "153410.657500", "153411.445000", "153412.235000", "153413.022500", "153413.810000", "153414.597500", "153415.387500", "153416.175000", "153416.962500", "153417.752500", "153418.540000", "153419.327500", "153420.115000", "153420.905000", "153421.692500", "153422.480000", "153423.267500", "153424.057500", "153424.845000", "153425.632500", "153426.420000", "153427.210000", "153427.997500", "153428.785000", "153429.572500", "153430.362500", "153431.150000", "153431.937500", "153432.725000", "153433.515000", "153434.302500", "153435.090000", "153435.880000", "153436.667500", "153437.455000", "153438.242500", "153439.032500", "153439.820000", "153440.607500", "153441.395000", "153442.185000", "153442.972500", "153443.760000", "153444.547500", "153445.337500", "153446.125000", "153446.912500", "153447.700000", "153448.490000", "153449.277500", "153450.065000", "153450.852500", "153451.642500", "153452.430000", "153453.217500", "153454.007500", "153454.795000", "153455.582500", "153456.370000", "153457.160000", "153457.947500", "153458.735000", "153459.522500", "153500.312500", "153501.100000", "153501.887500", "153502.675000", "153503.465000", "153504.252500", "153505.040000", "153505.827500", "153506.617500", "153507.405000", "153508.192500", "153508.980000", "153509.770000", "153510.557500", "153511.345000", "153512.135000", "153512.922500", "153513.710000", "153514.497500", "153515.287500", "153516.075000", "153516.862500", "153517.650000", "153518.440000", "153519.227500", "153520.015000", "153520.802500", "153521.592500", "153522.380000", "153523.167500", "153523.955000", "153524.745000", "153525.532500", "153526.320000", "153527.107500", "153527.897500", "153528.685000", "153529.472500", "153530.262500", "153531.050000", "153531.837500", "153532.625000", "153533.415000", "153534.202500", "153534.990000", "153535.777500", "153536.567500", "153537.355000", "153538.142500", "153538.930000", "153539.720000", "153540.507500", "153541.295000", "153542.082500", "153542.872500", "153543.660000", "153544.447500", "153545.235000", "153546.025000", "153546.812500", "153547.600000", "153548.390000", "153549.177500", "153549.965000", "153550.752500", "153551.542500", "153552.330000", "153553.117500", "153553.905000", "153554.695000", "153555.482500", "153556.270000", "153557.057500", "153557.847500", "153558.635000", "153559.422500", "153600.210000", "153601.000000", "153601.787500", "153602.575000", "153603.362500", "153604.152500", "153604.940000", "153605.727500", "153606.517500", "153607.305000", "153608.092500", "153608.880000", "153609.670000", "153610.457500", "153611.245000", "153612.032500", "153612.822500", "153613.610000", "153614.397500", "153615.185000", "153615.975000", "153616.762500", "153617.550000", "153618.337500", "153619.127500", "153619.915000", "153620.702500", "153621.490000", "153622.280000", "153623.067500", "153623.855000", "153624.645000", "153625.432500", "153626.220000", "153627.007500", "153627.797500", "153628.585000", "153629.372500", "153630.160000", "153630.950000", "153631.737500", "153632.525000", "153633.312500", "153634.102500", "153634.890000", "153635.677500", "153636.465000", "153637.255000", "153638.042500", "153638.830000", "153639.620000", "153640.407500", "153641.195000", "153641.982500", "153642.772500", "153643.560000", "153644.347500", "153645.135000", "153645.925000", "153646.712500", "153647.500000", "153648.287500", "153649.077500", "153649.865000", "153650.652500", "153651.440000", "153652.230000", "153653.017500", "153653.805000", "153654.592500", "153655.382500", "153656.170000", "153656.957500", "153657.747500", "153658.535000", "153659.322500", "153700.110000", "153700.900000", "153701.687500", "153702.475000", "153703.262500", "153704.052500", "153704.840000", "153705.627500", "153706.415000", "153707.205000", "153707.992500", "153708.780000", "153709.567500", "153710.357500", "153711.145000", "153711.932500", "153712.720000", "153713.510000", "153714.297500", "153715.085000", "153715.875000", "153716.662500", "153717.450000", "153718.237500", "153719.027500", "153719.815000", "153720.602500", "153721.390000", "153722.180000", "153722.967500", "153723.755000", "153724.542500", "153725.332500", "153726.120000", "153726.907500", "153727.695000", "153728.485000", "153729.272500", "153730.060000", "153730.847500", "153731.637500", "153732.425000", "153733.212500", "153734.002500", "153734.790000", "153735.577500", "153736.365000", "153737.155000", "153737.942500", "153738.730000", "153739.517500", "153740.307500", "153741.095000", "153741.882500", "153742.670000", "153743.460000", "153744.247500", "153745.035000", "153745.822500", "153746.612500", "153747.400000", "153748.187500", "153748.975000", "153749.765000", "153750.552500", "153751.340000", "153752.130000", "153752.917500", "153753.705000", "153754.492500", "153755.282500", "153756.070000", "153756.857500", "153757.645000", "153758.435000", "153759.222500", "153800.010000", "153800.797500", "153801.587500", "153802.375000", "153803.162500", "153803.950000", "153804.740000", "153805.527500", "153806.315000", "153807.102500", "153807.892500", "153808.680000", "153809.467500", "153810.257500", "153811.045000", "153811.832500", "153812.620000", "153813.410000", "153814.197500", "153814.985000", "153815.772500", "153816.562500", "153817.350000", "153818.137500", "153818.925000", "153819.715000", "153820.502500", "153821.290000", "153822.077500", "153822.867500", "153823.655000", "153824.442500", "153825.230000", "153826.020000", "153826.807500", "153827.595000", "153828.385000", "153829.172500", "153829.960000", "153830.747500", "153831.537500", "153832.325000", "153833.112500", "153833.900000", "153834.690000", "153835.477500", "153836.265000", "153837.052500", "153837.842500", "153838.630000", "153839.417500", "153840.205000", "153840.995000", "153841.782500", "153842.570000", "153843.357500", "153844.147500", "153844.935000", "153845.722500", "153846.512500", "153847.300000", "153848.087500", "153848.875000", "153849.665000", "153850.452500", "153851.240000", "153852.027500", "153852.817500", "153853.605000", "153854.392500", "153855.180000", "153855.970000", "153856.757500", "153857.545000", "153858.332500", "153859.122500", "153859.910000", "153900.697500", "153901.485000", "153902.275000", "153903.062500", "153903.850000", "153904.640000", "153905.427500", "153906.215000", "153907.002500", "153907.792500", "153908.580000", "153909.367500", "153910.155000", "153910.945000", "153911.732500", "153912.520000", "153913.307500", "153914.097500", "153914.885000", "153915.672500", "153916.460000", "153917.250000", "153918.037500", "153918.825000", "153919.612500", "153920.402500", "153921.190000", "153921.977500", "153922.767500", "153923.555000", "153924.342500", "153925.130000", "153925.920000", "153926.707500", "153927.495000", "153928.282500", "153929.072500", "153929.860000", "153930.647500", "153931.435000", "153932.225000", "153933.012500", "153933.800000", "153934.587500", "153935.377500", "153936.165000", "153936.952500", "153937.740000", "153938.530000", "153939.317500", "153940.105000", "153940.895000", "153941.682500", "153942.470000", "153943.257500", "153944.047500", "153944.835000", "153945.622500", "153946.410000", "153947.200000", "153947.987500", "153948.775000", "153949.562500", "153950.352500", "153951.140000", "153951.927500", "153952.715000", "153953.505000", "153954.292500", "153955.080000", "153955.870000", "153956.657500", "153957.445000", "153958.232500", "153959.022500", "153959.810000", "154000.597500", "154001.385000", "154002.175000", "154002.962500", "154003.750000", "154004.537500", "154005.327500", "154006.115000", "154006.902500", "154007.690000", "154008.480000", "154009.267500", "154010.055000", "154010.842500", "154011.632500", "154012.420000", "154013.207500", "154013.997500", "154014.785000", "154015.572500", "154016.360000", "154017.150000", "154017.937500", "154018.725000", "154019.512500", "154020.302500", "154021.090000", "154021.877500", "154022.665000", "154023.455000", "154024.242500", "154025.030000", "154025.817500", "154026.607500", "154027.395000", "154028.182500", "154028.970000", "154029.760000", "154030.547500", "154031.335000", "154032.125000", "154032.912500", "154033.700000", "154034.487500", "154035.277500", "154036.065000", "154036.852500", "154037.640000", "154038.430000", "154039.217500", "154040.005000", "154040.792500", "154041.582500", "154042.370000", "154043.157500", "154043.945000", "154044.735000", "154045.522500", "154046.310000", "154047.097500", "154047.887500", "154048.675000", "154049.462500", "154050.252500", "154051.040000", "154051.827500", "154052.615000", "154053.405000", "154054.192500", "154054.980000", "154055.767500", "154056.557500", "154057.345000", "154058.132500", "154058.920000", "154059.710000", "154100.497500", "154101.285000", "154102.072500", "154102.862500", "154103.650000", "154104.437500", "154105.225000", "154106.015000", "154106.802500", "154107.590000", "154108.380000", "154109.167500", "154109.955000", "154110.742500", "154111.532500", "154112.320000", "154113.107500", "154113.895000", "154114.685000", "154115.472500", "154116.260000", "154117.047500", "154117.837500", "154118.625000", "154119.412500", "154120.200000", "154120.990000", "154121.777500", "154122.565000", "154123.352500", "154124.142500", "154124.930000", "154125.717500", "154126.507500", "154127.295000", "154128.082500", "154128.870000", "154129.660000", "154130.447500", "154131.235000", "154132.022500", "154132.812500", "154133.600000", "154134.387500", "154135.175000", "154135.965000", "154136.752500", "154137.540000", "154138.327500", "154139.117500", "154139.905000", "154140.692500", "154141.480000", "154142.270000", "154143.057500", "154143.845000", "154144.635000", "154145.422500", "154146.210000", "154146.997500", "154147.787500", "154148.575000", "154149.362500", "154150.150000", "154150.940000", "154151.727500", "154152.515000", "154153.302500", "154154.092500", "154154.880000", "154155.667500", "154156.455000", "154157.245000", "154158.032500", "154158.820000", "154159.607500", "154200.397500", "154201.185000", "154201.972500", "154202.762500", "154203.550000", "154204.337500", "154205.125000", "154205.915000", "154206.702500", "154207.490000", "154208.277500", "154209.067500", "154209.855000", "154210.642500", "154211.430000", "154212.220000", "154213.007500", "154213.795000", "154214.582500", "154215.372500", "154216.160000", "154216.947500", "154217.735000", "154218.525000", "154219.312500", "154220.100000", "154220.890000", "154221.677500", "154222.465000", "154223.252500", "154224.042500", "154224.830000", "154225.617500", "154226.405000", "154227.195000", "154227.982500", "154228.770000", "154229.557500", "154230.347500", "154231.135000", "154231.922500", "154232.710000", "154233.500000", "154234.287500", "154235.075000", "154235.862500", "154236.652500", "154237.440000", "154238.227500", "154239.017500", "154239.805000", "154240.592500", "154241.380000", "154242.170000", "154242.957500", "154243.745000", "154244.532500", "154245.322500", "154246.110000", "154246.897500", "154247.685000", "154248.475000", "154249.262500", "154250.050000", "154250.837500", "154251.627500", "154252.415000", "154253.202500", "154253.990000", "154254.780000", "154255.567500", "154256.355000", "154257.145000", "154257.932500", "154258.720000", "154259.507500", "154300.297500", "154301.085000", "154301.872500", "154302.660000", "154303.450000", "154304.237500", "154305.025000", "154305.812500", "154306.602500", "154307.390000", "154308.177500", "154308.965000", "154309.755000", "154310.542500", "154311.330000", "154312.120000", "154312.907500", "154313.695000", "154314.482500", "154315.272500", "154316.060000", "154316.847500", "154317.635000", "154318.425000", "154319.212500", "154320.000000", "154320.787500", "154321.577500", "154322.365000", "154323.152500", "154323.940000", "154324.730000", "154325.517500", "154326.305000", "154327.092500", "154327.882500", "154328.670000", "154329.457500", "154330.247500", "154331.035000", "154331.822500", "154332.610000", "154333.400000", "154334.187500", "154334.975000", "154335.762500", "154336.552500", "154337.340000", "154338.127500", "154338.915000", "154339.705000", "154340.492500", "154341.280000", "154342.067500", "154342.857500", "154343.645000", "154344.432500", "154345.220000", "154346.010000", "154346.797500", "154347.585000", "154348.375000", "154349.162500", "154349.950000", "154350.737500", "154351.527500", "154352.315000", "154353.102500", "154353.890000", "154354.680000", "154355.467500", "154356.255000", "154357.042500", "154357.832500", "154358.620000", "154359.407500", "154400.195000", "154400.985000", "154401.772500", "154402.560000", "154403.347500", "154404.137500", "154404.925000", "154405.712500", "154406.502500", "154407.290000", "154408.077500", "154408.865000", "154409.655000", "154410.442500", "154411.230000", "154412.017500", "154412.807500", "154413.595000", "154414.382500", "154415.170000", "154415.960000", "154416.747500", "154417.535000", "154418.322500", "154419.112500", "154419.900000", "154420.687500", "154421.475000", "154422.265000", "154423.052500", "154423.840000", "154424.630000", "154425.417500", "154426.205000", "154426.992500", "154427.782500", "154428.570000", "154429.357500", "154430.145000", "154430.935000", "154431.722500", "154432.510000", "154433.297500", "154434.087500", "154434.875000", "154435.662500", "154436.450000", "154437.240000", "154438.027500", "154438.815000", "154439.602500", "154440.392500", "154441.180000", "154441.967500", "154442.757500", "154443.545000", "154444.332500", "154445.120000", "154445.910000", "154446.697500", "154447.485000", "154448.272500", "154449.062500", "154449.850000", "154450.637500", "154451.425000", "154452.215000", "154453.002500", "154453.790000", "154454.577500", "154455.367500", "154456.155000", "154456.942500", "154457.730000", "154458.520000", "154459.307500", "154500.095000", "154500.885000", "154501.672500", "154502.460000", "154503.247500", "154504.037500", "154504.825000", "154505.612500", "154506.400000", "154507.190000", "154507.977500", "154508.765000", "154509.552500", "154510.342500", "154511.130000", "154511.917500", "154512.705000", "154513.495000", "154514.282500", "154515.070000", "154515.857500", "154516.647500", "154517.435000", "154518.222500", "154519.012500", "154519.800000", "154520.587500", "154521.375000", "154522.165000", "154522.952500", "154523.740000", "154524.527500", "154525.317500", "154526.105000", "154526.892500", "154527.680000", "154528.470000", "154529.257500", "154530.045000", "154530.832500", "154531.622500", "154532.410000", "154533.197500", "154533.985000", "154534.775000", "154535.562500", "154536.350000", "154537.140000", "154537.927500", "154538.715000", "154539.502500", "154540.292500", "154541.080000", "154541.867500", "154542.655000", "154543.445000", "154544.232500", "154545.020000", "154545.807500", "154546.597500", "154547.385000", "154548.172500", "154548.960000", "154549.750000", "154550.537500", "154551.325000", "154552.112500", "154552.902500", "154553.690000", "154554.477500", "154555.267500", "154556.055000", "154556.842500", "154557.630000", "154558.420000", "154559.207500", "154559.995000", "154600.782500", "154601.572500", "154602.360000", "154603.147500", "154603.935000", "154604.725000", "154605.512500", "154606.300000", "154607.087500", "154607.877500", "154608.665000", "154609.452500", "154610.240000", "154611.030000", "154611.817500", "154612.605000", "154613.395000", "154614.182500", "154614.970000", "154615.757500", "154616.547500", "154617.335000", "154618.122500", "154618.910000", "154619.700000", "154620.487500", "154621.275000", "154622.062500", "154622.852500", "154623.640000", "154624.427500", "154625.215000", "154626.005000", "154626.792500", "154627.580000", "154628.370000", "154629.157500", "154629.945000", "154630.732500", "154631.522500", "154632.310000", "154633.097500", "154633.885000", "154634.675000", "154635.462500", "154636.250000", "154637.037500", "154637.827500", "154638.615000", "154639.402500", "154640.190000", "154640.980000", "154641.767500", "154642.555000", "154643.342500", "154644.132500", "154644.920000", "154645.707500"],
