{
  "AcquisitionMatrixPE": 104,
  "AcquisitionNumber": 1,
  "AcquisitionTime": "17:04:7.742500",
  "BandwidthPerPixelPhaseEncode": 13.935,
  "BaseResolution": 104,
  "CoilString": "C:HEA;HEP",
  "ConversionSoftware": "dcm2niix",
  "ConversionSoftwareVersion": "v1.0.20210317",
  "DerivedVendorReportedEchoSpacing": 0.000690017,
  "DeviceSerialNumber": "35450",
  "DwellTime": 2.5e-06,
  "EchoTime": 0.0348,
  "EffectiveEchoSpacing": 0.000690017,
  "FlipAngle": 55,
  "ImageComments": "Unaliased MB8/PE3 (remote)",
  "ImageOrientationPatientDICOM": [1, 0, 0, 0, 1, 0],
  "ImageType": [
    "ORIGINAL",
    "PRIMARY",
    "M",
    "MB",
    "ND",
    "MOSAIC"
],
  "ImagingFrequency": 123.234,
  "InPlanePhaseEncodingDirectionDICOM": "COL",
  "InstitutionAddress": "Univeristy Ave. 197,Newark,North East,US,07102-1814",
  "InstitutionName": "RUBIC",
  "InstitutionalDepartmentName": "Department",
  "MRAcquisitionType": "2D",
  "MagneticFieldStrength": 3,
  "Manufacturer": "Siemens",
  "ManufacturersModelName": "TrioTim",
  "Modality": "MR",
  "MultibandAccelerationFactor": 8,
  "PartialFourier": 0.875,
  "PatientPosition": "HFS",
  "PercentPhaseFOV": 100,
  "PercentSampling": 100,
  "PhaseEncodingDirection": "j-",
  "PhaseEncodingSteps": 91,
  "PhaseResolution": 1,
  "PixelBandwidth": 1923,
  "ProcedureStepDescription": "Cole^Michael",
  "ProtocolName": "cmrr_mbep2d_bold_2mm_MB8_Task_8x",
  "PulseSequenceDetails": "%CustomerSeq%\\cmrr_mbep2d_bold",
  "ReceiveCoilName": "32Ch_Head",
  "ReconMatrixPE": 104,
  "RepetitionTime": 0.785,
  "SAR": 0.122193,
  "ScanOptions": "PFP\\FS",
  "ScanningSequence": "EP",
  "SequenceName": "epfid2d1_104",
  "SequenceVariant": "SK\\SS",
  "SeriesDescription": "cmrr_mbep2d_bold_2mm_MB8_Task_8x",
  "SeriesNumber": 27,
  "ShimSetting": [2091, -483, -7219, 650, -117, -272, 261, 16],
  "SliceThickness": 2,
  "SliceTiming": [0, 0.4375, 0.0875, 0.525, 0.175, 0.6125, 0.2625, 0.7, 0.35, 0, 0.4375, 0.0875, 0.525, 0.175, 0.6125, 0.2625, 0.7, 0.35, 0, 0.4375, 0.0875, 0.525, 0.175, 0.6125, 0.2625, 0.7, 0.35, 0, 0.4375, 0.0875, 0.525, 0.175, 0.6125, 0.2625, 0.7, 0.35, 0, 0.4375, 0.0875, 0.525, 0.175, 0.6125, 0.2625, 0.7, 0.35, 0, 0.4375, 0.0875, 0.525, 0.175, 0.6125, 0.2625, 0.7, 0.35, 0, 0.4375, 0.0875, 0.525, 0.175, 0.6125, 0.2625, 0.7, 0.35, 0, 0.4375, 0.0875, 0.525, 0.175, 0.6125, 0.2625, 0.7, 0.35],
  "SoftwareVersions": "syngo MR B19",
  "SpacingBetweenSlices": 2,
  "StationName": "MRC35450",
  "TaskName": "cpro",
  "TotalReadoutTime": 0.0710717,
  "TxRefAmp": 321.099,
  "dcmmeta_affine": [
    [-2.0, 0.0, 0.0, 104.0],
    [0.0, 2.0, 0.0, -97.93220520019531],
    [0.0, 0.0, 2.0, -71.0],
    [0.0, 0.0, 0.0, 1.0]
],
  "dcmmeta_reorient_transform": [
    [0.0, -1.0, 0.0, 103.0],
    [1.0, 0.0, 0.0, 0.0],
    [0.0, 0.0, 1.0, 0.0],
    [0.0, 0.0, 0.0, 1.0]
],
  "dcmmeta_shape": [104, 104, 72, 581],
  "dcmmeta_slice_dim": 2,
  "dcmmeta_version": 0.6,
  "global": {
    "const": {
      "AcquisitionMatrix": [104, 0, 0, 104],
      "AngioFlag": "N",
      "BitsAllocated": 16,
      "BitsStored": 12,
      "Columns": 936,
      "EchoNumbers": 1,
      "EchoTime": 34.8,
      "EchoTrainLength": 1,
      "FlipAngle": 55.0,
      "HighBit": 11,
      "ImageOrientationPatient": [1.0, 0.0, 0.0, 0.0, 1.0, 0.0],
      "ImagePositionPatient": [-936.00000000083, -940.06779670715, -71.0],
      "ImageType": [
        "ORIGINAL",
        "PRIMARY",
        "M",
        "MB",
        "ND",
        "MOSAIC"
],
      "ImagedNucleus": "1H",
      "ImagingFrequency": 123.234352,
      "InPlanePhaseEncodingDirection": "COL",
      "MRAcquisitionType": "2D",
      "MagneticFieldStrength": 3.0,
      "Manufacturer": "SIEMENS",
      "ManufacturerModelName": "TrioTim",
      "Modality": "MR",
      "NumberOfAverages": 1.0,
      "NumberOfPhaseEncodingSteps": 91,
      "PercentPhaseFieldOfView": 100.0,
      "PercentSampling": 100.0,
      "PerformedProcedureStepStartTime": "145053.578000",
      "PhotometricInterpretation": "MONOCHROME2",
      "PixelBandwidth": 1923.0,
      "PixelRepresentation": 0,
      "PixelSpacing": [2.0, 2.0],
      "ProtocolName": "cmrr_mbep2d_bold_2mm_MB8_Task_8x",
      "RepetitionTime": 785.0,
      "Rows": 936,
      "SAR": 0.12219251189067,
      "SamplesPerPixel": 1,
      "ScanOptions": [
        "PFP",
        "FS"
],
      "ScanningSequence": "EP",
      "SequenceName": "epfid2d1_104",
      "SequenceVariant": [
        "SK",
        "SS"
],
      "SeriesDescription": "cmrr_mbep2d_bold_2mm_MB8_Task_8x",
      "SeriesNumber": 27,
      "SeriesTime": "170438.046000",
      "SliceLocation": -71.0,
      "SliceThickness": 2.0,
      "SmallestImagePixelValue": 0,
      "SoftwareVersions": "syngo MR B19",
      "SpacingBetweenSlices": 2.0,
      "SpecificCharacterSet": "ISO_IR 100",
      "StudyID": "1",
      "StudyTime": "145053.546000",
      "TransmitCoilName": "Body",
      "VariableFlipAngleFlag": "N",
      "WindowCenterWidthExplanation": "Algo1",
      "dBdt": 0.0},
    "slices": {}
  },
  "time": {
    "samples": {
      "AcquisitionNumber": [1, 2, 3, 4, 5, 6, 7, 8, 9, 10, 11, 12, 13, 14, 15, 16, 17, 18, 19, 20, 21, 22, 23, 24, 25, 26, 27, 28, 29, 30, 31, 32, 33, 34, 35, 36, 37, 38, 39, 40, 41, 42, 43, 44, 45, 46, 47, 48, 49, 50, 51, 52, 53, 54, 55, 56, 57, 58, 59, 60, 61, 62, 63, 64, 65, 66, 67, 68, 69, 70, 71, 72, 73, 74, 75, 76, 77, 78, 79, 80, 81, 82, 83, 84, 85, 86, 87, 88, 89, 90, 91, 92, 93, 94, 95, 96, 97, 98, 99, 100, 101, 102, 103, 104, 105, 106, 107, 108, 109, 110, 111, 112, 113, 114, 115, 116, 117, 118, 119, 120, 121, 122, 123, 124, 125, 126, 127, 128, 129, 130, 131, 132, 133, 134, 135, 136, 137, 138, 139, 140, 141, 142, 143, 144, 145, 146, 147, 148, 149, 150, 151, 152, 153, 154, 155, 156, 157, 158, 159, 160, 161, 162, 163, 164, 165, 166, 167, 168, 169, 170, 171, 172, 173, 174, 175, 176, 177, 178, 179, 180, 181, 182, 183, 184, 185, 186, 187, 188, 189, 190, 191, 192, 193, 194, 195, 196, 197, 198, 199, 200, 201, 202, 203, 204, 205, 206, 207, 208, 209, 210, 211, 212, 213, 214, 215, 216, 217, 218, 219, 220, 221, 222, 223, 224, 225, 226, 227, 228, 229, 230, 231, 232, 233, 234, 235, 236, 237, 238, 239, 240, 241, 242, 243, 244, 245, 246, 247, 248, 249, 250, 251, 252, 253, 254, 255, 256, 257, 258, 259, 260, 261, 262, 263, 264, 265, 266, 267, 268, 269, 270, 271, 272, 273, 274, 275, 276, 277, 278, 279, 280, 281, 282, 283, 284, 285, 286, 287, 288, 289, 290, 291, 292, 293, 294, 295, 296, 297, 298, 299, 300, 301, 302, 303, 304, 305, 306, 307, 308, 309, 310, 311, 312, 313, 314, 315, 316, 317, 318, 319, 320, 321, 322, 323, 324, 325, 326, 327, 328, 329, 330, 331, 332, 333, 334, 335, 336, 337, 338, 339, 340, 341, 342, 343, 344, 345, 346, 347, 348, 349, 350, 351, 352, 353, 354, 355, 356, 357, 358, 359, 360, 361, 362, 363, 364, 365, 366, 367, 368, 369, 370, 371, 372, 373, 374, 375, 376, 377, 378, 379, 380, 381, 382, 383, 384, 385, 386, 387, 388, 389, 390, 391, 392, 393, 394, 395, 396, 397, 398, 399, 400, 401, 402, 403, 404, 405, 406, 407, 408, 409, 410, 411, 412, 413, 414, 415, 416, 417, 418, 419, 420, 421, 422, 423, 424, 425, 426, 427, 428, 429, 430, 431, 432, 433, 434, 435, 436, 437, 438, 439, 440, 441, 442, 443, 444, 445, 446, 447, 448, 449, 450, 451, 452, 453, 454, 455, 456, 457, 458, 459, 460, 461, 462, 463, 464, 465, 466, 467, 468, 469, 470, 471, 472, 473, 474, 475, 476, 477, 478, 479, 480, 481, 482, 483, 484, 485, 486, 487, 488, 489, 490, 491, 492, 493, 494, 495, 496, 497, 498, 499, 500, 501, 502, 503, 504, 505, 506, 507, 508, 509, 510, 511, 512, 513, 514, 515, 516, 517, 518, 519, 520, 521, 522, 523, 524, 525, 526, 527, 528, 529, 530, 531, 532, 533, 534, 535, 536, 537, 538, 539, 540, 541, 542, 543, 544, 545, 546, 547, 548, 549, 550, 551, 552, 553, 554, 555, 556, 557, 558, 559, 560, 561, 562, 563, 564, 565, 566, 567, 568, 569, 570, 571, 572, 573, 574, 575, 576, 577, 578, 579, 580, 581],
      "AcquisitionTime": ["170407.742500", "170408.530000", "170409.317500", "170410.107500", "170410.895000", "170411.682500", "170412.470000", "170413.260000", "170414.047500", "170414.835000", "170415.622500", "170416.412500", "170417.200000", "170417.987500", "170418.775000", "170419.565000", "170420.352500", "170421.140000", "170421.927500", "170422.717500", "170423.505000", "170424.292500", "170425.082500", "170425.870000", "170426.657500", "170427.445000", "170428.235000", "170429.022500", "170429.810000", "170430.597500", "170431.387500", "170432.175000", "170432.962500", "170433.750000", "170434.540000", "170435.327500", "170436.115000", "170436.902500", "170437.692500", "170438.480000", "170439.267500", "170440.055000", "170440.845000", "170441.632500", "170442.420000", "170443.210000", "170443.997500", "170444.785000", "170445.572500", "170446.362500", "170447.150000", "170447.937500", "170448.725000", "170449.515000", "170450.302500", "170451.090000", "170451.877500", "170452.667500", "170453.455000", "170454.242500", "170455.030000", "170455.820000", "170456.607500", "170457.395000", "170458.182500", "170458.972500", "170459.760000", "170500.547500", "170501.337500", "170502.125000", "170502.912500", "170503.700000", "170504.490000", "170505.277500", "170506.065000", "170506.852500", "170507.642500", "170508.430000", "170509.217500", "170510.005000", "170510.795000", "170511.582500", "170512.370000", "170513.157500", "170513.947500", "170514.735000", "170515.522500", "170516.312500", "170517.100000", "170517.887500", "170518.675000", "170519.465000", "170520.252500", "170521.040000", "170521.827500", "170522.617500", "170523.405000", "170524.192500", "170524.980000", "170525.770000", "170526.557500", "170527.345000", "170528.132500", "170528.922500", "170529.710000", "170530.497500", "170531.285000", "170532.075000", "170532.862500", "170533.650000", "170534.440000", "170535.227500", "170536.015000", "170536.802500", "170537.592500", "170538.380000", "170539.167500", "170539.955000", "170540.745000", "170541.532500", "170542.320000", "170543.107500", "170543.897500", "170544.685000", "170545.472500", "170546.260000", "170547.050000", "170547.837500", "170548.625000", "170549.412500", "170550.202500", "170550.990000", "170551.777500", "170552.567500", "170553.355000", "170554.142500", "170554.930000", "170555.720000", "170556.507500", "170557.295000", "170558.082500", "170558.872500", "170559.660000", "170600.447500", "170601.235000", "170602.025000", "170602.812500", "170603.600000", "170604.387500", "170605.177500", "170605.965000", "170606.752500", "170607.540000", "170608.330000", "170609.117500", "170609.905000", "170610.695000", "170611.482500", "170612.270000", "170613.057500", "170613.847500", "170614.635000", "170615.422500", "170616.210000", "170617.000000", "170617.787500", "170618.575000", "170619.362500", "170620.152500", "170620.940000", "170621.727500", "170622.515000", "170623.305000", "170624.092500", "170624.880000", "170625.667500", "170626.457500", "170627.245000", "170628.032500", "170628.822500", "170629.610000", "170630.397500", "170631.185000", "170631.975000", "170632.762500", "170633.550000", "170634.337500", "170635.127500", "170635.915000", "170636.702500", "170637.490000", "170638.280000", "170639.067500", "170639.855000", "170640.642500", "170641.432500", "170642.220000", "170643.007500", "170643.795000", "170644.585000", "170645.372500", "170646.160000", "170646.950000", "170647.737500", "170648.525000", "170649.312500", "170650.102500", "170650.890000", "170651.677500", "170652.465000", "170653.255000", "170654.042500", "170654.830000", "170655.617500", "170656.407500", "170657.195000", "170657.982500", "170658.770000", "170659.560000", "170700.347500", "170701.135000", "170701.922500", "170702.712500", "170703.500000", "170704.287500", "170705.077500", "170705.865000", "170706.652500", "170707.440000", "170708.230000", "170709.017500", "170709.805000", "170710.592500", "170711.382500", "170712.170000", "170712.957500", "170713.745000", "170714.535000", "170715.322500", "170716.110000", "170716.897500", "170717.687500", "170718.475000", "170719.262500", "170720.050000", "170720.840000", "170721.627500", "170722.415000", "170723.205000", "170723.992500", "170724.780000", "170725.567500", "170726.357500", "170727.145000", "170727.932500", "170728.720000", "170729.510000", "170730.297500", "170731.085000", "170731.872500", "170732.662500", "170733.450000", "170734.237500", "170735.025000", "170735.815000", "170736.602500", "170737.390000", "170738.177500", "170738.967500", "170739.755000", "170740.542500", "170741.332500", "170742.120000", "170742.907500", "170743.695000", "170744.485000", "170745.272500", "170746.060000", "170746.847500", "170747.637500", "170748.425000", "170749.212500", "170750.000000", "170750.790000", "170751.577500", "170752.365000", "170753.152500", "170753.942500", "170754.730000", "170755.517500", "170756.305000", "170757.095000", "170757.882500", "170758.670000", "170759.460000", "170800.247500", "170801.035000", "170801.822500", "170802.612500", "170803.400000", "170804.187500", "170804.975000", "170805.765000", "170806.552500", "170807.340000", "170808.127500", "170808.917500", "170809.705000", "170810.492500", "170811.280000", "170812.070000", "170812.857500", "170813.645000", "170814.432500", "170815.222500", "170816.010000", "170816.797500", "170817.587500", "170818.375000", "170819.162500", "170819.950000", "170820.740000", "170821.527500", "170822.315000", "170823.102500", "170823.892500", "170824.680000", "170825.467500", "170826.255000", "170827.045000", "170827.832500", "170828.620000", "170829.407500", "170830.197500", "170830.985000", "170831.772500", "170832.562500", "170833.350000", "170834.137500", "170834.925000", "170835.715000", "170836.502500", "170837.290000", "170838.077500", "170838.867500", "170839.655000", "170840.442500", "170841.230000", "170842.020000", "170842.807500", "170843.595000", "170844.382500", "170845.172500", "170845.960000", "170846.747500", "170847.535000", "170848.325000", "170849.112500", "170849.900000", "170850.690000", "170851.477500", "170852.265000", "170853.052500", "170853.842500", "170854.630000", "170855.417500", "170856.205000", "170856.995000", "170857.782500", "170858.570000", "170859.357500", "170900.147500", "170900.935000", "170901.722500", "170902.510000", "170903.300000", "170904.087500", "170904.875000", "170905.662500", "170906.452500", "170907.240000", "170908.027500", "170908.817500", "170909.605000", "170910.392500", "170911.180000", "170911.970000", "170912.757500", "170913.545000", "170914.332500", "170915.122500", "170915.910000", "170916.697500", "170917.485000", "170918.275000", "170919.062500", "170919.850000", "170920.637500", "170921.427500", "170922.215000", "170923.002500", "170923.790000", "170924.580000", "170925.367500", "170926.155000", "170926.945000", "170927.732500", "170928.520000", "170929.307500", "170930.097500", "170930.885000", "170931.672500", "170932.460000", "170933.250000", "170934.037500", "170934.825000", "170935.612500", "170936.402500", "170937.190000", "170937.977500", "170938.765000", "170939.555000", "170940.342500", "170941.130000", "170941.917500", "170942.707500", "170943.495000", "170944.282500", "170945.072500", "170945.860000", "170946.647500", "170947.435000", "170948.225000", "170949.012500", "170949.800000", "170950.587500", "170951.377500", "170952.165000", "170952.952500", "170953.740000", "170954.530000", "170955.317500", "170956.105000", "170956.892500", "170957.682500", "170958.470000", "170959.257500", "171000.045000", "171000.835000", "171001.622500", "171002.410000", "171003.200000", "171003.987500", "171004.775000", "171005.562500", "171006.352500", "171007.140000", "171007.927500", "171008.715000", "171009.505000", "171010.292500", "171011.080000", "171011.867500", "171012.657500", "171013.445000", "171014.232500", "171015.020000", "171015.810000", "171016.597500", "171017.385000", "171018.172500", "171018.962500", "171019.750000", "171020.537500", "171021.327500", "171022.115000", "171022.902500", "171023.690000", "171024.480000", "171025.267500", "171026.055000", "171026.842500", "171027.632500", "171028.420000", "171029.207500", "171029.995000", "171030.785000", "171031.572500", "171032.360000", "171033.147500", "171033.937500", "171034.725000", "171035.512500", "171036.300000", "171037.090000", "171037.877500", "171038.665000", "171039.455000", "171040.242500", "171041.030000", "171041.817500", "171042.607500", "171043.395000", "171044.182500", "171044.970000", "171045.760000", "171046.547500", "171047.335000", "171048.122500", "171048.912500", "171049.700000", "171050.487500", "171051.275000", "171052.065000", "171052.852500", "171053.640000", "171054.427500", "171055.217500", "171056.005000", "171056.792500", "171057.582500", "171058.370000", "171059.157500", "171059.945000", "171100.735000", "171101.522500", "171102.310000", "171103.097500", "171103.887500", "171104.675000", "171105.462500", "171106.250000", "171107.040000", "171107.827500", "171108.615000", "171109.402500", "171110.192500", "171110.980000", "171111.767500", "171112.555000", "171113.345000", "171114.132500", "171114.920000", "171115.710000", "171116.497500", "171117.285000", "171118.072500", "171118.862500", "171119.650000", "171120.437500", "171121.225000", "171122.015000", "171122.802500", "171123.590000", "171124.377500", "171125.167500", "171125.955000", "171126.742500", "171127.530000", "171128.320000", "171129.107500", "171129.895000", "171130.682500", "171131.472500", "171132.260000", "171133.047500", "171133.837500", "171134.625000", "171135.412500", "171136.200000", "171136.990000", "171137.777500", "171138.565000", "171139.352500", "171140.142500", "171140.930000", "171141.717500", "171142.505000", "171143.295000", "171144.082500", "171144.870000"],
      "ContentTime": ["170438.062000", "170438.062000", "170438.062000", "170438.062000", "170438.062000", "170438.062000", "170438.062000", "170438.078000", "170438.078000", "170438.078000", "170438.078000", "170438.078000", "170438.078000", "170438.093000", "170438.093000", "170438.093000", "170438.093000", "170438.093000", "170438.093000", "170438.093000", "170438.109000", "170438.109000", "170438.109000", "170438.109000", "170438.125000", "170438.125000", "170438.125000", "170438.125000", "170438.125000", "170438.125000", "170438.125000", "170438.140000", "170438.140000", "170438.140000", "170438.140000", "170458.031000", "170458.031000", "170458.031000", "170458.046000", "170458.046000", "170458.046000", "170458.046000", "170458.046000", "170458.046000", "170458.062000", "170458.062000", "170458.062000", "170458.062000", "170458.062000", "170458.062000", "170458.062000", "170458.078000", "170458.078000", "170458.078000", "170458.078000", "170458.078000", "170458.078000", "170458.078000", "170458.093000", "170458.093000", "170458.093000", "170518.031000", "170518.031000", "170518.031000", "170518.046000", "170518.046000", "170518.046000", "170518.046000", "170518.046000", "170518.046000", "170518.062000", "170518.062000", "170518.062000", "170518.062000", "170518.062000", "170518.062000", "170518.078000", "170518.078000", "170518.078000", "170518.078000", "170518.078000", "170518.078000", "170518.078000", "170518.093000", "170518.093000", "170518.093000", "170538.031000", "170538.031000", "170538.031000", "170538.046000", "170538.046000", "170538.046000", "170538.046000", "170538.046000", "170538.046000", "170538.062000", "170538.062000", "170538.062000", "170538.062000", "170538.062000", "170538.062000", "170538.062000", "170538.078000", "170538.078000", "170538.078000", "170538.078000", "170538.078000", "170538.078000", "170538.078000", "170538.093000", "170538.093000", "170538.093000", "170558.031000", "170558.031000", "170558.031000", "170558.046000", "170558.046000", "170558.046000", "170558.046000", "170558.046000", "170558.046000", "170558.062000", "170558.062000", "170558.062000", "170558.062000", "170558.062000", "170558.062000", "170558.078000", "170558.078000", "170558.078000", "170558.078000", "170558.078000", "170558.078000", "170558.078000", "170558.093000", "170558.093000", "170558.093000", "170618.031000", "170618.031000", "170618.031000", "170618.046000", "170618.046000", "170618.046000", "170618.046000", "170618.046000", "170618.046000", "170618.062000", "170618.062000", "170618.062000", "170618.062000", "170618.062000", "170618.062000", "170618.062000", "170618.078000", "170618.078000", "170618.078000", "170618.078000", "170618.078000", "170618.078000", "170618.078000", "170618.093000", "170618.093000", "170618.093000", "170638.031000", "170638.031000", "170638.031000", "170638.046000", "170638.046000", "170638.046000", "170638.046000", "170638.046000", "170638.046000", "170638.062000", "170638.062000", "170638.062000", "170638.062000", "170638.062000", "170638.062000", "170638.062000", "170638.078000", "170638.078000", "170638.078000", "170638.078000", "170638.078000", "170638.078000", "170638.078000", "170638.093000", "170638.093000", "170658.031000", "170658.031000", "170658.046000", "170658.046000", "170658.046000", "170658.046000", "170658.046000", "170658.046000", "170658.046000", "170658.062000", "170658.062000", "170658.062000", "170658.062000", "170658.062000", "170658.062000", "170658.062000", "170658.078000", "170658.078000", "170658.078000", "170658.078000", "170658.078000", "170658.078000", "170658.078000", "170658.093000", "170658.093000", "170658.093000", "170718.031000", "170718.031000", "170718.031000", "170718.046000", "170718.046000", "170718.046000", "170718.046000", "170718.046000", "170718.046000", "170718.062000", "170718.062000", "170718.062000", "170718.062000", "170718.062000", "170718.062000", "170718.062000", "170718.078000", "170718.078000", "170718.078000", "170718.078000", "170718.078000", "170718.078000", "170718.078000", "170718.078000", "170718.093000", "170738.031000", "170738.031000", "170738.031000", "170738.046000", "170738.046000", "170738.046000", "170738.046000", "170738.046000", "170738.046000", "170738.062000", "170738.062000", "170738.062000", "170738.062000", "170738.062000", "170738.062000", "170738.062000", "170738.078000", "170738.078000", "170738.078000", "170738.078000", "170738.078000", "170738.078000", "170738.078000", "170738.093000", "170738.093000", "170738.093000", "170758.031000", "170758.031000", "170758.031000", "170758.046000", "170758.046000", "170758.046000", "170758.046000", "170758.046000", "170758.046000", "170758.046000", "170758.062000", "170758.062000", "170758.062000", "170758.062000", "170758.062000", "170758.062000", "170758.078000", "170758.078000", "170758.078000", "170758.078000", "170758.078000", "170758.078000", "170758.078000", "170758.093000", "170758.093000", "170818.031000", "170818.031000", "170818.031000", "170818.046000", "170818.046000", "170818.046000", "170818.046000", "170818.046000", "170818.062000", "170818.062000", "170818.062000", "170818.062000", "170818.062000", "170818.062000", "170818.062000", "170818.078000", "170818.078000", "170818.078000", "170818.078000", "170818.093000", "170818.093000", "170818.093000", "170818.093000", "170818.093000", "170818.093000", "170818.093000", "170838.031000", "170838.031000", "170838.031000", "170838.046000", "170838.046000", "170838.046000", "170838.046000", "170838.046000", "170838.062000", "170838.062000", "170838.062000", "170838.062000", "170838.062000", "170838.062000", "170838.062000", "170838.078000", "170838.078000", "170838.078000", "170838.078000", "170838.078000", "170838.078000", "170838.093000", "170838.093000", "170838.093000", "170838.093000", "170858.031000", "170858.031000", "170858.031000", "170858.046000", "170858.046000", "170858.046000", "170858.046000", "170858.046000", "170858.046000", "170858.062000", "170858.062000", "170858.062000", "170858.062000", "170858.062000", "170858.062000", "170858.062000", "170858.078000", "170858.078000", "170858.078000", "170858.078000", "170858.078000", "170858.093000", "170858.093000", "170858.093000", "170858.093000", "170858.093000", "170918.031000", "170918.031000", "170918.031000", "170918.046000", "170918.046000", "170918.046000", "170918.046000", "170918.046000", "170918.046000", "170918.062000", "170918.062000", "170918.062000", "170918.062000", "170918.062000", "170918.062000", "170918.062000", "170918.078000", "170918.078000", "170918.078000", "170918.078000", "170918.078000", "170918.078000", "170918.093000", "170918.093000", "170918.093000", "170938.031000", "170938.031000", "170938.031000", "170938.046000", "170938.046000", "170938.046000", "170938.046000", "170938.046000", "170938.046000", "170938.062000", "170938.062000", "170938.062000", "170938.062000", "170938.062000", "170938.062000", "170938.062000", "170938.078000", "170938.078000", "170938.078000", "170938.078000", "170938.078000", "170938.093000", "170938.093000", "170938.093000", "170938.093000", "170938.093000", "170958.031000", "170958.031000", "170958.031000", "170958.046000", "170958.046000", "170958.046000", "170958.046000", "170958.046000", "170958.046000", "170958.062000", "170958.062000", "170958.062000", "170958.062000", "170958.062000", "170958.062000", "170958.062000", "170958.078000", "170958.078000", "170958.078000", "170958.078000", "170958.078000", "170958.078000", "170958.078000", "170958.093000", "170958.093000", "171018.031000", "171018.031000", "171018.031000", "171018.046000", "171018.046000", "171018.046000", "171018.046000", "171018.062000", "171018.062000", "171018.062000", "171018.062000", "171018.062000", "171018.078000", "171018.078000", "171018.078000", "171018.078000", "171018.078000", "171018.093000", "171018.093000", "171018.093000", "171018.093000", "171018.093000", "171018.093000", "171018.093000", "171018.109000", "171018.109000", "171038.031000", "171038.031000", "171038.031000", "171038.046000", "171038.046000", "171038.046000", "171038.046000", "171038.046000", "171038.046000", "171038.062000", "171038.062000", "171038.062000", "171038.062000", "171038.062000", "171038.062000", "171038.062000", "171038.078000", "171038.078000", "171038.078000", "171038.078000", "171038.078000", "171038.078000", "171038.078000", "171038.093000", "171038.093000", "171058.031000", "171058.031000", "171058.031000", "171058.046000", "171058.046000", "171058.046000", "171058.046000", "171058.046000", "171058.046000", "171058.062000", "171058.062000", "171058.062000", "171058.062000", "171058.062000", "171058.062000", "171058.062000", "171058.078000", "171058.078000", "171058.078000", "171058.078000", "171058.078000", "171058.078000", "171058.078000", "171058.093000", "171058.093000", "171118.031000", "171118.031000", "171118.031000", "171118.046000", "171118.046000", "171118.046000", "171118.046000", "171118.046000", "171118.046000", "171118.062000", "171118.062000", "171118.062000", "171118.062000", "171118.062000", "171118.062000", "171118.062000", "171118.078000", "171118.078000", "171118.078000", "171118.078000", "171118.078000", "171118.078000", "171118.093000", "171118.093000", "171118.093000", "171118.093000", "171138.031000", "171138.031000", "171138.046000", "171138.046000", "171138.046000", "171138.046000", "171138.046000", "171138.046000", "171138.046000", "171138.062000", "171138.062000", "171138.062000", "171138.062000", "171138.078000", "171138.078000", "171138.078000", "171138.078000", "171138.078000", "171138.078000", "171138.078000", "171138.093000", "171138.093000", "171138.093000", "171138.093000", "171138.093000", "171145.953000", "171145.953000", "171145.953000", "171145.953000", "171145.968000", "171145.968000", "171145.968000", "171145.968000", "171145.968000", "171145.968000", "171145.968000"],
      "DataSetTrailingPadding": [
        "\u0000\u0000\u0000\u0000\u0000\u0000\u0000\u0000\u0000\u0000\u0000\u0000\u0000\u0000\u0000\u0000\u0000\u0000\u0000\u0000\u0000\u0000\u0000\u0000\u0000\u0000\u0000\u0000\u0000\u0000\u0000\u0000\u0000\u0000\u0000\u0000\u0000\u0000\u0000\u0000\u0000\u0000\u0000\u0000\u0000\u0000\u0000\u0000\u0000\u0000\u0000\u0000\u0000\u0000\u0000\u0000\u0000\u0000\u0000\u0000\u0000\u0000\u0000\u0000\u0000\u0000\u0000\u0000\u0000\u0000\u0000\u0000\u0000\u0000\u0000\u0000\u0000\u0000\u0000\u0000\u0000\u0000\u0000\u0000\u0000\u0000\u0000\u0000\u0000\u0000\u0000\u0000\u0000\u0000\u0000\u0000\u0000\u0000\u0000\u0000\u0000\u0000\u0000\u0000\u0000\u0000\u0000\u0000\u0000\u0000\u0000\u0000\u0000\u0000\u0000\u0000\u0000\u0000\u0000\u0000\u0000\u0000\u0000\u0000\u0000\u0000\u0000\u0000\u0000\u0000\u0000\u0000\u0000\u0000\u0000\u0000\u0000\u0000\u0000\u0000\u0000\u0000\u0000\u0000\u0000\u0000\u0000\u0000\u0000\u0000\u0000\u0000\u0000\u0000\u0000\u0000\u0000\u0000\u0000\u0000\u0000\u0000\u0000\u0000\u0000\u0000\u0000\u0000\u0000\u0000\u0000\u0000\u0000\u0000\u0000\u0000\u0000\u0000\u0000\u0000\u0000\u0000\u0000\u0000\u0000\u0000\u0000\u0000\u0000\u0000\u0000\u0000\u0000\u0000\u0000\u0000\u0000\u0000\u0000\u0000\u0000\u0000\u0000\u0000\u0000\u0000\u0000\u0000\u0000\u0000\u0000\u0000\u0000\u0000\u0000\u0000\u0000\u0000\u0000\u0000\u0000\u0000\u0000\u0000\u0000\u0000\u0000\u0000\u0000\u0000\u0000\u0000\u0000\u0000\u0000\u0000\u0000\u0000\u0000\u0000\u0000\u0000\u0000\u0000\u0000\u0000\u0000\u0000\u0000\u0000\u0000\u0000\u0000\u0000\u0000\u0000\u0000\u0000\u0000\u0000\u0000\u0000\u0000\u0000\u0000\u0000\u0000\u0000\u0000\u0000\u0000\u0000\u0000\u0000\u0000\u0000\u0000\u0000\u0000\u0000\u0000\u0000\u0000\u0000\u0000\u0000\u0000\u0000\u0000\u0000\u0000\u0000\u0000\u0000\u0000\u0000\u0000\u0000\u0000\u0000",
