{
  "AcquisitionMatrixPE": 104,
  "AcquisitionNumber": 1,
  "AcquisitionTime": "16:47:45.665000",
  "BandwidthPerPixelPhaseEncode": 13.935,
  "BaseResolution": 104,
  "CoilString": "C:HEA;HEP",
  "ConversionSoftware": "dcm2niix",
  "ConversionSoftwareVersion": "v1.0.20210317",
  "DerivedVendorReportedEchoSpacing": 0.000690017,
  "DeviceSerialNumber": "35450",
  "DwellTime": 2.5e-06,
  "EchoTime": 0.0348,
  "EffectiveEchoSpacing": 0.000690017,
  "FlipAngle": 55,
  "ImageComments": "Unaliased MB8/PE3 (remote)",
  "ImageOrientationPatientDICOM": [1, 0, 0, 0, 1, 0],
  "ImageType": [
    "ORIGINAL",
    "PRIMARY",
    "M",
    "MB",
    "ND",
    "MOSAIC"
],
  "ImagingFrequency": 123.234,
  "InPlanePhaseEncodingDirectionDICOM": "COL",
  "InstitutionAddress": "Univeristy Ave. 197,Newark,North East,US,07102-1814",
  "InstitutionName": "RUBIC",
  "InstitutionalDepartmentName": "Department",
  "MRAcquisitionType": "2D",
  "MagneticFieldStrength": 3,
  "Manufacturer": "Siemens",
  "ManufacturersModelName": "TrioTim",
  "Modality": "MR",
  "MultibandAccelerationFactor": 8,
  "PartialFourier": 0.875,
  "PatientPosition": "HFS",
  "PercentPhaseFOV": 100,
  "PercentSampling": 100,
  "PhaseEncodingDirection": "j-",
  "PhaseEncodingSteps": 91,
  "PhaseResolution": 1,
  "PixelBandwidth": 1923,
  "ProcedureStepDescription": "Cole^Michael",
  "ProtocolName": "cmrr_mbep2d_bold_2mm_MB8_Task_8x",
  "PulseSequenceDetails": "%CustomerSeq%\\cmrr_mbep2d_bold",
  "ReceiveCoilName": "32Ch_Head",
  "ReconMatrixPE": 104,
  "RepetitionTime": 0.785,
  "SAR": 0.122193,
  "ScanOptions": "PFP\\FS",
  "ScanningSequence": "EP",
  "SequenceName": "epfid2d1_104",
  "SequenceVariant": "SK\\SS",
  "SeriesDescription": "cmrr_mbep2d_bold_2mm_MB8_Task_8x",
  "SeriesNumber": 23,
  "ShimSetting": [2091, -483, -7219, 650, -117, -272, 261, 16],
  "SliceThickness": 2,
  "SliceTiming": [0, 0.4375, 0.0875, 0.525, 0.175, 0.6125, 0.2625, 0.7, 0.35, 0, 0.4375, 0.0875, 0.525, 0.175, 0.6125, 0.2625, 0.7, 0.35, 0, 0.4375, 0.0875, 0.525, 0.175, 0.6125, 0.2625, 0.7, 0.35, 0, 0.4375, 0.0875, 0.525, 0.175, 0.6125, 0.2625, 0.7, 0.35, 0, 0.4375, 0.0875, 0.525, 0.175, 0.6125, 0.2625, 0.7, 0.35, 0, 0.4375, 0.0875, 0.525, 0.175, 0.6125, 0.2625, 0.7, 0.35, 0, 0.4375, 0.0875, 0.525, 0.175, 0.6125, 0.2625, 0.7, 0.35, 0, 0.4375, 0.0875, 0.525, 0.175, 0.6125, 0.2625, 0.7, 0.35],
  "SoftwareVersions": "syngo MR B19",
  "SpacingBetweenSlices": 2,
  "StationName": "MRC35450",
  "TaskName": "cpro",
  "TotalReadoutTime": 0.0710717,
  "TxRefAmp": 321.099,
  "dcmmeta_affine": [
    [-2.0, 0.0, 0.0, 104.0],
    [0.0, 2.0, 0.0, -97.93220520019531],
    [0.0, 0.0, 2.0, -71.0],
    [0.0, 0.0, 0.0, 1.0]
],
  "dcmmeta_reorient_transform": [
    [0.0, -1.0, 0.0, 103.0],
    [1.0, 0.0, 0.0, 0.0],
    [0.0, 0.0, 1.0, 0.0],
    [0.0, 0.0, 0.0, 1.0]
],
  "dcmmeta_shape": [104, 104, 72, 581],
  "dcmmeta_slice_dim": 2,
  "dcmmeta_version": 0.6,
  "global": {
    "const": {
      "AcquisitionMatrix": [104, 0, 0, 104],
      "AngioFlag": "N",
      "BitsAllocated": 16,
      "BitsStored": 12,
      "Columns": 936,
      "EchoNumbers": 1,
      "EchoTime": 34.8,
      "EchoTrainLength": 1,
      "FlipAngle": 55.0,
      "HighBit": 11,
      "ImageOrientationPatient": [1.0, 0.0, 0.0, 0.0, 1.0, 0.0],
      "ImagePositionPatient": [-936.00000000083, -940.06779670715, -71.0],
      "ImageType": [
        "ORIGINAL",
        "PRIMARY",
        "M",
        "MB",
        "ND",
        "MOSAIC"
],
      "ImagedNucleus": "1H",
      "ImagingFrequency": 123.234352,
      "InPlanePhaseEncodingDirection": "COL",
      "MRAcquisitionType": "2D",
      "MagneticFieldStrength": 3.0,
      "Manufacturer": "SIEMENS",
      "ManufacturerModelName": "TrioTim",
      "Modality": "MR",
      "NumberOfAverages": 1.0,
      "NumberOfPhaseEncodingSteps": 91,
      "PercentPhaseFieldOfView": 100.0,
      "PercentSampling": 100.0,
      "PerformedProcedureStepStartTime": "145053.578000",
      "PhotometricInterpretation": "MONOCHROME2",
      "PixelBandwidth": 1923.0,
      "PixelRepresentation": 0,
      "PixelSpacing": [2.0, 2.0],
      "ProtocolName": "cmrr_mbep2d_bold_2mm_MB8_Task_8x",
      "RepetitionTime": 785.0,
      "Rows": 936,
      "SAR": 0.12219251189067,
      "SamplesPerPixel": 1,
      "ScanOptions": [
        "PFP",
        "FS"
],
      "ScanningSequence": "EP",
      "SequenceName": "epfid2d1_104",
      "SequenceVariant": [
        "SK",
        "SS"
],
      "SeriesDescription": "cmrr_mbep2d_bold_2mm_MB8_Task_8x",
      "SeriesNumber": 23,
      "SeriesTime": "164817.359000",
      "SliceLocation": -71.0,
      "SliceThickness": 2.0,
      "SmallestImagePixelValue": 0,
      "SoftwareVersions": "syngo MR B19",
      "SpacingBetweenSlices": 2.0,
      "SpecificCharacterSet": "ISO_IR 100",
      "StudyID": "1",
      "StudyTime": "145053.546000",
      "TransmitCoilName": "Body",
      "VariableFlipAngleFlag": "N",
      "WindowCenterWidthExplanation": "Algo1",
      "dBdt": 0.0},
    "slices": {}
  },
  "time": {
    "samples": {
      "AcquisitionNumber": [1, 2, 3, 4, 5, 6, 7, 8, 9, 10, 11, 12, 13, 14, 15, 16, 17, 18, 19, 20, 21, 22, 23, 24, 25, 26, 27, 28, 29, 30, 31, 32, 33, 34, 35, 36, 37, 38, 39, 40, 41, 42, 43, 44, 45, 46, 47, 48, 49, 50, 51, 52, 53, 54, 55, 56, 57, 58, 59, 60, 61, 62, 63, 64, 65, 66, 67, 68, 69, 70, 71, 72, 73, 74, 75, 76, 77, 78, 79, 80, 81, 82, 83, 84, 85, 86, 87, 88, 89, 90, 91, 92, 93, 94, 95, 96, 97, 98, 99, 100, 101, 102, 103, 104, 105, 106, 107, 108, 109, 110, 111, 112, 113, 114, 115, 116, 117, 118, 119, 120, 121, 122, 123, 124, 125, 126, 127, 128, 129, 130, 131, 132, 133, 134, 135, 136, 137, 138, 139, 140, 141, 142, 143, 144, 145, 146, 147, 148, 149, 150, 151, 152, 153, 154, 155, 156, 157, 158, 159, 160, 161, 162, 163, 164, 165, 166, 167, 168, 169, 170, 171, 172, 173, 174, 175, 176, 177, 178, 179, 180, 181, 182, 183, 184, 185, 186, 187, 188, 189, 190, 191, 192, 193, 194, 195, 196, 197, 198, 199, 200, 201, 202, 203, 204, 205, 206, 207, 208, 209, 210, 211, 212, 213, 214, 215, 216, 217, 218, 219, 220, 221, 222, 223, 224, 225, 226, 227, 228, 229, 230, 231, 232, 233, 234, 235, 236, 237, 238, 239, 240, 241, 242, 243, 244, 245, 246, 247, 248, 249, 250, 251, 252, 253, 254, 255, 256, 257, 258, 259, 260, 261, 262, 263, 264, 265, 266, 267, 268, 269, 270, 271, 272, 273, 274, 275, 276, 277, 278, 279, 280, 281, 282, 283, 284, 285, 286, 287, 288, 289, 290, 291, 292, 293, 294, 295, 296, 297, 298, 299, 300, 301, 302, 303, 304, 305, 306, 307, 308, 309, 310, 311, 312, 313, 314, 315, 316, 317, 318, 319, 320, 321, 322, 323, 324, 325, 326, 327, 328, 329, 330, 331, 332, 333, 334, 335, 336, 337, 338, 339, 340, 341, 342, 343, 344, 345, 346, 347, 348, 349, 350, 351, 352, 353, 354, 355, 356, 357, 358, 359, 360, 361, 362, 363, 364, 365, 366, 367, 368, 369, 370, 371, 372, 373, 374, 375, 376, 377, 378, 379, 380, 381, 382, 383, 384, 385, 386, 387, 388, 389, 390, 391, 392, 393, 394, 395, 396, 397, 398, 399, 400, 401, 402, 403, 404, 405, 406, 407, 408, 409, 410, 411, 412, 413, 414, 415, 416, 417, 418, 419, 420, 421, 422, 423, 424, 425, 426, 427, 428, 429, 430, 431, 432, 433, 434, 435, 436, 437, 438, 439, 440, 441, 442, 443, 444, 445, 446, 447, 448, 449, 450, 451, 452, 453, 454, 455, 456, 457, 458, 459, 460, 461, 462, 463, 464, 465, 466, 467, 468, 469, 470, 471, 472, 473, 474, 475, 476, 477, 478, 479, 480, 481, 482, 483, 484, 485, 486, 487, 488, 489, 490, 491, 492, 493, 494, 495, 496, 497, 498, 499, 500, 501, 502, 503, 504, 505, 506, 507, 508, 509, 510, 511, 512, 513, 514, 515, 516, 517, 518, 519, 520, 521, 522, 523, 524, 525, 526, 527, 528, 529, 530, 531, 532, 533, 534, 535, 536, 537, 538, 539, 540, 541, 542, 543, 544, 545, 546, 547, 548, 549, 550, 551, 552, 553, 554, 555, 556, 557, 558, 559, 560, 561, 562, 563, 564, 565, 566, 567, 568, 569, 570, 571, 572, 573, 574, 575, 576, 577, 578, 579, 580, 581],
      "AcquisitionTime": ["164745.665000", "164746.452500", "164747.240000", "164748.030000", "164748.817500", "164749.605000", "164750.392500", "164751.182500", "164751.970000", "164752.757500", "164753.545000", "164754.335000", "164755.122500", "164755.910000", "164756.697500", "164757.487500", "164758.275000", "164759.062500", "164759.850000", "164800.640000", "164801.427500", "164802.215000", "164803.005000", "164803.792500", "164804.580000", "164805.367500", "164806.157500", "164806.945000", "164807.732500", "164808.520000", "164809.310000", "164810.097500", "164810.885000", "164811.672500", "164812.462500", "164813.250000", "164814.037500", "164814.825000", "164815.615000", "164816.402500", "164817.190000", "164817.977500", "164818.767500", "164819.555000", "164820.342500", "164821.132500", "164821.920000", "164822.707500", "164823.495000", "164824.285000", "164825.072500", "164825.860000", "164826.647500", "164827.437500", "164828.225000", "164829.012500", "164829.800000", "164830.590000", "164831.377500", "164832.165000", "164832.952500", "164833.742500", "164834.530000", "164835.317500", "164836.105000", "164836.895000", "164837.682500", "164838.470000", "164839.260000", "164840.047500", "164840.835000", "164841.622500", "164842.412500", "164843.200000", "164843.987500", "164844.775000", "164845.565000", "164846.352500", "164847.140000", "164847.927500", "164848.717500", "164849.505000", "164850.292500", "164851.080000", "164851.870000", "164852.657500", "164853.445000", "164854.232500", "164855.022500", "164855.810000", "164856.597500", "164857.387500", "164858.175000", "164858.962500", "164859.750000", "164900.540000", "164901.327500", "164902.115000", "164902.902500", "164903.692500", "164904.480000", "164905.267500", "164906.055000", "164906.845000", "164907.632500", "164908.420000", "164909.207500", "164909.997500", "164910.785000", "164911.572500", "164912.360000", "164913.150000", "164913.937500", "164914.725000", "164915.515000", "164916.302500", "164917.090000", "164917.877500", "164918.667500", "164919.455000", "164920.242500", "164921.030000", "164921.820000", "164922.607500", "164923.395000", "164924.182500", "164924.972500", "164925.760000", "164926.547500", "164927.335000", "164928.125000", "164928.912500", "164929.700000", "164930.487500", "164931.277500", "164932.065000", "164932.852500", "164933.642500", "164934.430000", "164935.217500", "164936.005000", "164936.795000", "164937.582500", "164938.370000", "164939.157500", "164939.947500", "164940.735000", "164941.522500", "164942.310000", "164943.100000", "164943.887500", "164944.675000", "164945.462500", "164946.252500", "164947.040000", "164947.827500", "164948.615000", "164949.405000", "164950.192500", "164950.980000", "164951.770000", "164952.557500", "164953.345000", "164954.132500", "164954.922500", "164955.710000", "164956.497500", "164957.285000", "164958.075000", "164958.862500", "164959.650000", "165000.437500", "165001.227500", "165002.015000", "165002.802500", "165003.590000", "165004.380000", "165005.167500", "165005.955000", "165006.742500", "165007.532500", "165008.320000", "165009.107500", "165009.897500", "165010.685000", "165011.472500", "165012.260000", "165013.050000", "165013.837500", "165014.625000", "165015.412500", "165016.202500", "165016.990000", "165017.777500", "165018.565000", "165019.355000", "165020.142500", "165020.930000", "165021.717500", "165022.507500", "165023.295000", "165024.082500", "165024.872500", "165025.660000", "165026.447500", "165027.235000", "165028.025000", "165028.812500", "165029.600000", "165030.387500", "165031.177500", "165031.965000", "165032.752500", "165033.540000", "165034.330000", "165035.117500", "165035.905000", "165036.692500", "165037.482500", "165038.270000", "165039.057500", "165039.845000", "165040.635000", "165041.422500", "165042.210000", "165043.000000", "165043.787500", "165044.575000", "165045.362500", "165046.152500", "165046.940000", "165047.727500", "165048.515000", "165049.305000", "165050.092500", "165050.880000", "165051.667500", "165052.457500", "165053.245000", "165054.032500", "165054.820000", "165055.610000", "165056.397500", "165057.185000", "165057.972500", "165058.762500", "165059.550000", "165100.337500", "165101.127500", "165101.915000", "165102.702500", "165103.490000", "165104.280000", "165105.067500", "165105.855000", "165106.642500", "165107.432500", "165108.220000", "165109.007500", "165109.795000", "165110.585000", "165111.372500", "165112.160000", "165112.947500", "165113.737500", "165114.525000", "165115.312500", "165116.100000", "165116.890000", "165117.677500", "165118.465000", "165119.255000", "165120.042500", "165120.830000", "165121.617500", "165122.407500", "165123.195000", "165123.982500", "165124.770000", "165125.560000", "165126.347500", "165127.135000", "165127.922500", "165128.712500", "165129.500000", "165130.287500", "165131.075000", "165131.865000", "165132.652500", "165133.440000", "165134.227500", "165135.017500", "165135.805000", "165136.592500", "165137.382500", "165138.170000", "165138.957500", "165139.745000", "165140.535000", "165141.322500", "165142.110000", "165142.897500", "165143.687500", "165144.475000", "165145.262500", "165146.050000", "165146.840000", "165147.627500", "165148.415000", "165149.202500", "165149.992500", "165150.780000", "165151.567500", "165152.355000", "165153.145000", "165153.932500", "165154.720000", "165155.510000", "165156.297500", "165157.085000", "165157.872500", "165158.662500", "165159.450000", "165200.237500", "165201.025000", "165201.815000", "165202.602500", "165203.390000", "165204.177500", "165204.967500", "165205.755000", "165206.542500", "165207.330000", "165208.120000", "165208.907500", "165209.695000", "165210.482500", "165211.272500", "165212.060000", "165212.847500", "165213.637500", "165214.425000", "165215.212500", "165216.000000", "165216.790000", "165217.577500", "165218.365000", "165219.152500", "165219.942500", "165220.730000", "165221.517500", "165222.305000", "165223.095000", "165223.882500", "165224.670000", "165225.457500", "165226.247500", "165227.035000", "165227.822500", "165228.610000", "165229.400000", "165230.187500", "165230.975000", "165231.765000", "165232.552500", "165233.340000", "165234.127500", "165234.917500", "165235.705000", "165236.492500", "165237.280000", "165238.070000", "165238.857500", "165239.645000", "165240.432500", "165241.222500", "165242.010000", "165242.797500", "165243.585000", "165244.375000", "165245.162500", "165245.950000", "165246.737500", "165247.527500", "165248.315000", "165249.102500", "165249.892500", "165250.680000", "165251.467500", "165252.255000", "165253.045000", "165253.832500", "165254.620000", "165255.407500", "165256.197500", "165256.985000", "165257.772500", "165258.560000", "165259.350000", "165300.137500", "165300.925000", "165301.712500", "165302.502500", "165303.290000", "165304.077500", "165304.865000", "165305.655000", "165306.442500", "165307.230000", "165308.020000", "165308.807500", "165309.595000", "165310.382500", "165311.172500", "165311.960000", "165312.747500", "165313.535000", "165314.325000", "165315.112500", "165315.900000", "165316.687500", "165317.477500", "165318.265000", "165319.052500", "165319.840000", "165320.630000", "165321.417500", "165322.205000", "165322.992500", "165323.782500", "165324.570000", "165325.357500", "165326.147500", "165326.935000", "165327.722500", "165328.510000", "165329.300000", "165330.087500", "165330.875000", "165331.662500", "165332.452500", "165333.240000", "165334.027500", "165334.815000", "165335.605000", "165336.392500", "165337.180000", "165337.967500", "165338.757500", "165339.545000", "165340.332500", "165341.122500", "165341.910000", "165342.697500", "165343.485000", "165344.275000", "165345.062500", "165345.850000", "165346.637500", "165347.427500", "165348.215000", "165349.002500", "165349.790000", "165350.580000", "165351.367500", "165352.155000", "165352.942500", "165353.732500", "165354.520000", "165355.307500", "165356.095000", "165356.885000", "165357.672500", "165358.460000", "165359.250000", "165400.037500", "165400.825000", "165401.612500", "165402.402500", "165403.190000", "165403.977500", "165404.765000", "165405.555000", "165406.342500", "165407.130000", "165407.917500", "165408.707500", "165409.495000", "165410.282500", "165411.070000", "165411.860000", "165412.647500", "165413.435000", "165414.222500", "165415.012500", "165415.800000", "165416.587500", "165417.377500", "165418.165000", "165418.952500", "165419.740000", "165420.530000", "165421.317500", "165422.105000", "165422.892500", "165423.682500", "165424.470000", "165425.257500", "165426.045000", "165426.835000", "165427.622500", "165428.410000", "165429.197500", "165429.987500", "165430.775000", "165431.562500", "165432.350000", "165433.140000", "165433.927500", "165434.715000", "165435.505000", "165436.292500", "165437.080000", "165437.867500", "165438.657500", "165439.445000", "165440.232500", "165441.020000", "165441.810000", "165442.597500", "165443.385000", "165444.172500", "165444.962500", "165445.750000", "165446.537500", "165447.325000", "165448.115000", "165448.902500", "165449.690000", "165450.477500", "165451.267500", "165452.055000", "165452.842500", "165453.632500", "165454.420000", "165455.207500", "165455.995000", "165456.785000", "165457.572500", "165458.360000", "165459.147500", "165459.937500", "165500.725000", "165501.512500", "165502.300000", "165503.090000", "165503.877500", "165504.665000", "165505.452500", "165506.242500", "165507.030000", "165507.817500", "165508.605000", "165509.395000", "165510.182500", "165510.970000", "165511.760000", "165512.547500", "165513.335000", "165514.122500", "165514.912500", "165515.700000", "165516.487500", "165517.275000", "165518.065000", "165518.852500", "165519.640000", "165520.427500", "165521.217500", "165522.005000", "165522.792500"],
      "ContentTime": ["164817.359000", "164817.359000", "164817.359000", "164817.359000", "164817.375000", "164817.375000", "164817.375000", "164817.375000", "164817.375000", "164817.375000", "164817.390000", "164817.390000", "164817.390000", "164817.390000", "164817.390000", "164817.390000", "164817.390000", "164817.406000", "164817.406000", "164817.406000", "164817.406000", "164817.406000", "164817.406000", "164817.421000", "164817.421000", "164817.421000", "164817.421000", "164817.421000", "164817.421000", "164817.421000", "164817.437000", "164817.437000", "164817.437000", "164817.437000", "164817.453000", "164817.453000", "164817.453000", "164837.328000", "164837.328000", "164837.328000", "164837.343000", "164837.343000", "164837.343000", "164837.343000", "164837.343000", "164837.343000", "164837.343000", "164837.359000", "164837.359000", "164837.359000", "164837.359000", "164837.359000", "164837.359000", "164837.375000", "164837.375000", "164837.375000", "164837.375000", "164837.375000", "164837.375000", "164837.375000", "164837.390000", "164837.390000", "164837.390000", "164857.328000", "164857.328000", "164857.328000", "164857.343000", "164857.343000", "164857.343000", "164857.343000", "164857.343000", "164857.343000", "164857.343000", "164857.359000", "164857.359000", "164857.359000", "164857.359000", "164857.359000", "164857.359000", "164857.359000", "164857.375000", "164857.375000", "164857.375000", "164857.375000", "164857.375000", "164857.375000", "164857.390000", "164857.390000", "164917.328000", "164917.328000", "164917.328000", "164917.343000", "164917.343000", "164917.343000", "164917.343000", "164917.343000", "164917.343000", "164917.343000", "164917.359000", "164917.359000", "164917.359000", "164917.359000", "164917.359000", "164917.359000", "164917.375000", "164917.375000", "164917.375000", "164917.375000", "164917.375000", "164917.390000", "164917.390000", "164917.390000", "164917.390000", "164917.390000", "164937.328000", "164937.328000", "164937.328000", "164937.343000", "164937.343000", "164937.343000", "164937.343000", "164937.343000", "164937.343000", "164937.359000", "164937.359000", "164937.359000", "164937.359000", "164937.359000", "164937.359000", "164937.359000", "164937.375000", "164937.375000", "164937.375000", "164937.375000", "164937.375000", "164937.375000", "164937.390000", "164937.390000", "164937.390000", "164957.328000", "164957.328000", "164957.328000", "164957.343000", "164957.343000", "164957.343000", "164957.343000", "164957.343000", "164957.343000", "164957.343000", "164957.359000", "164957.359000", "164957.359000", "164957.359000", "164957.359000", "164957.359000", "164957.359000", "164957.375000", "164957.375000", "164957.375000", "164957.375000", "164957.375000", "164957.375000", "164957.390000", "164957.390000", "164957.390000", "165017.328000", "165017.328000", "165017.343000", "165017.343000", "165017.343000", "165017.343000", "165017.343000", "165017.343000", "165017.343000", "165017.359000", "165017.359000", "165017.359000", "165017.359000", "165017.359000", "165017.359000", "165017.359000", "165017.375000", "165017.375000", "165017.375000", "165017.375000", "165017.375000", "165017.375000", "165017.375000", "165017.390000", "165017.390000", "165037.328000", "165037.328000", "165037.328000", "165037.343000", "165037.343000", "165037.343000", "165037.343000", "165037.343000", "165037.359000", "165037.359000", "165037.359000", "165037.359000", "165037.359000", "165037.375000", "165037.375000", "165037.375000", "165037.375000", "165037.375000", "165037.375000", "165037.375000", "165037.390000", "165037.390000", "165037.390000", "165037.390000", "165037.390000", "165037.406000", "165057.328000", "165057.328000", "165057.328000", "165057.343000", "165057.343000", "165057.343000", "165057.343000", "165057.343000", "165057.343000", "165057.343000", "165057.359000", "165057.359000", "165057.359000", "165057.359000", "165057.359000", "165057.375000", "165057.375000", "165057.375000", "165057.375000", "165057.375000", "165057.375000", "165057.375000", "165057.390000", "165057.390000", "165057.390000", "165117.328000", "165117.328000", "165117.328000", "165117.343000", "165117.343000", "165117.343000", "165117.343000", "165117.343000", "165117.343000", "165117.359000", "165117.359000", "165117.359000", "165117.359000", "165117.359000", "165117.359000", "165117.359000", "165117.375000", "165117.375000", "165117.375000", "165117.375000", "165117.375000", "165117.375000", "165117.375000", "165117.390000", "165117.390000", "165117.390000", "165137.328000", "165137.328000", "165137.328000", "165137.343000", "165137.343000", "165137.343000", "165137.343000", "165137.343000", "165137.343000", "165137.359000", "165137.359000", "165137.359000", "165137.359000", "165137.359000", "165137.359000", "165137.359000", "165137.375000", "165137.375000", "165137.375000", "165137.375000", "165137.375000", "165137.375000", "165137.375000", "165137.390000", "165137.390000", "165157.328000", "165157.328000", "165157.328000", "165157.343000", "165157.343000", "165157.343000", "165157.343000", "165157.343000", "165157.343000", "165157.343000", "165157.359000", "165157.359000", "165157.359000", "165157.359000", "165157.359000", "165157.359000", "165157.359000", "165157.375000", "165157.375000", "165157.375000", "165157.375000", "165157.375000", "165157.375000", "165157.375000", "165157.390000", "165157.390000", "165217.328000", "165217.328000", "165217.328000", "165217.343000", "165217.343000", "165217.343000", "165217.343000", "165217.343000", "165217.343000", "165217.359000", "165217.359000", "165217.359000", "165217.359000", "165217.359000", "165217.359000", "165217.359000", "165217.375000", "165217.375000", "165217.375000", "165217.375000", "165217.375000", "165217.375000", "165217.375000", "165217.390000", "165217.390000", "165237.328000", "165237.328000", "165237.328000", "165237.343000", "165237.343000", "165237.343000", "165237.343000", "165237.343000", "165237.343000", "165237.359000", "165237.359000", "165237.359000", "165237.359000", "165237.359000", "165237.359000", "165237.359000", "165237.375000", "165237.375000", "165237.375000", "165237.375000", "165237.375000", "165237.375000", "165237.375000", "165237.390000", "165237.390000", "165237.390000", "165257.328000", "165257.328000", "165257.328000", "165257.343000", "165257.343000", "165257.343000", "165257.343000", "165257.343000", "165257.343000", "165257.359000", "165257.359000", "165257.359000", "165257.359000", "165257.359000", "165257.359000", "165257.359000", "165257.375000", "165257.375000", "165257.375000", "165257.375000", "165257.375000", "165257.375000", "165257.375000", "165257.390000", "165257.390000", "165317.328000", "165317.328000", "165317.328000", "165317.343000", "165317.343000", "165317.343000", "165317.343000", "165317.343000", "165317.343000", "165317.343000", "165317.359000", "165317.359000", "165317.359000", "165317.359000", "165317.359000", "165317.359000", "165317.359000", "165317.375000", "165317.375000", "165317.375000", "165317.375000", "165317.375000", "165317.375000", "165317.390000", "165317.390000", "165317.390000", "165337.328000", "165337.328000", "165337.328000", "165337.343000", "165337.343000", "165337.343000", "165337.343000", "165337.343000", "165337.343000", "165337.359000", "165337.359000", "165337.359000", "165337.359000", "165337.359000", "165337.359000", "165337.359000", "165337.375000", "165337.375000", "165337.375000", "165337.375000", "165337.375000", "165337.375000", "165337.375000", "165337.390000", "165337.390000", "165357.328000", "165357.328000", "165357.328000", "165357.343000", "165357.343000", "165357.343000", "165357.343000", "165357.343000", "165357.343000", "165357.343000", "165357.359000", "165357.359000", "165357.359000", "165357.359000", "165357.359000", "165357.359000", "165357.375000", "165357.375000", "165357.375000", "165357.375000", "165357.375000", "165357.375000", "165357.375000", "165357.390000", "165357.390000", "165357.390000", "165417.328000", "165417.328000", "165417.328000", "165417.343000", "165417.343000", "165417.343000", "165417.343000", "165417.343000", "165417.343000", "165417.343000", "165417.359000", "165417.359000", "165417.359000", "165417.359000", "165417.359000", "165417.359000", "165417.359000", "165417.375000", "165417.375000", "165417.375000", "165417.375000", "165417.375000", "165417.375000", "165417.375000", "165417.390000", "165437.328000", "165437.328000", "165437.328000", "165437.343000", "165437.343000", "165437.343000", "165437.343000", "165437.343000", "165437.343000", "165437.359000", "165437.359000", "165437.359000", "165437.359000", "165437.359000", "165437.375000", "165437.375000", "165437.375000", "165437.375000", "165437.375000", "165437.375000", "165437.375000", "165437.390000", "165437.390000", "165437.390000", "165437.390000", "165457.328000", "165457.328000", "165457.328000", "165457.343000", "165457.343000", "165457.343000", "165457.343000", "165457.343000", "165457.343000", "165457.359000", "165457.359000", "165457.359000", "165457.359000", "165457.359000", "165457.359000", "165457.359000", "165457.375000", "165457.375000", "165457.375000", "165457.375000", "165457.375000", "165457.375000", "165457.375000", "165457.390000", "165457.390000", "165457.390000", "165517.328000", "165517.328000", "165517.328000", "165517.343000", "165517.343000", "165517.343000", "165517.343000", "165517.343000", "165517.343000", "165517.343000", "165517.359000", "165517.359000", "165517.359000", "165517.359000", "165517.359000", "165517.359000", "165517.375000", "165517.375000", "165517.375000", "165517.375000", "165517.375000", "165517.390000", "165517.390000", "165517.390000", "165517.390000", "165523.734000", "165523.734000", "165523.734000", "165523.734000", "165523.750000", "165523.750000", "165523.750000", "165523.750000", "165523.750000"],
      "DataSetTrailingPadding": [
        "\u0000\u0000\u0000\u0000\u0000\u0000\u0000\u0000\u0000\u0000\u0000\u0000\u0000\u0000\u0000\u0000\u0000\u0000\u0000\u0000\u0000\u0000\u0000\u0000\u0000\u0000\u0000\u0000\u0000\u0000\u0000\u0000\u0000\u0000\u0000\u0000\u0000\u0000\u0000\u0000\u0000\u0000\u0000\u0000\u0000\u0000\u0000\u0000\u0000\u0000\u0000\u0000\u0000\u0000\u0000\u0000\u0000\u0000\u0000\u0000\u0000\u0000\u0000\u0000\u0000\u0000\u0000\u0000\u0000\u0000\u0000\u0000\u0000\u0000\u0000\u0000\u0000\u0000\u0000\u0000\u0000\u0000\u0000\u0000\u0000\u0000\u0000\u0000\u0000\u0000\u0000\u0000\u0000\u0000\u0000\u0000\u0000\u0000\u0000\u0000\u0000\u0000\u0000\u0000\u0000\u0000\u0000\u0000\u0000\u0000\u0000\u0000\u0000\u0000\u0000\u0000\u0000\u0000\u0000\u0000\u0000\u0000\u0000\u0000\u0000\u0000\u0000\u0000\u0000\u0000\u0000\u0000\u0000\u0000\u0000\u0000\u0000\u0000\u0000\u0000\u0000\u0000\u0000\u0000\u0000\u0000\u0000\u0000\u0000\u0000\u0000\u0000\u0000\u0000\u0000\u0000\u0000\u0000\u0000\u0000\u0000\u0000\u0000\u0000\u0000\u0000\u0000\u0000\u0000\u0000\u0000\u0000\u0000\u0000\u0000\u0000\u0000\u0000\u0000\u0000\u0000\u0000\u0000\u0000\u0000\u0000\u0000\u0000\u0000\u0000\u0000\u0000\u0000\u0000\u0000\u0000\u0000\u0000\u0000\u0000\u0000\u0000\u0000\u0000\u0000\u0000\u0000\u0000\u0000\u0000\u0000\u0000\u0000\u0000\u0000\u0000\u0000\u0000\u0000\u0000\u0000\u0000\u0000\u0000\u0000\u0000\u0000\u0000\u0000\u0000\u0000\u0000\u0000\u0000\u0000\u0000\u0000\u0000\u0000\u0000\u0000\u0000\u0000\u0000\u0000\u0000\u0000\u0000\u0000\u0000\u0000\u0000\u0000\u0000\u0000\u0000\u0000\u0000\u0000\u0000\u0000\u0000\u0000\u0000\u0000\u0000\u0000\u0000\u0000\u0000\u0000\u0000\u0000\u0000\u0000\u0000\u0000\u0000\u0000\u0000\u0000\u0000\u0000\u0000\u0000\u0000\u0000\u0000\u0000\u0000\u0000\u0000\u0000\u0000\u0000\u0000\u0000\u0000\u0000\u0000",
