{
  "AcquisitionMatrixPE": 104,
  "AcquisitionNumber": 1,
  "AcquisitionTime": "16:07:35.197500",
  "BandwidthPerPixelPhaseEncode": 13.935,
  "BaseResolution": 104,
  "CoilString": "C:HEA;HEP",
  "ConversionSoftware": "dcm2niix",
  "ConversionSoftwareVersion": "v1.0.20210317",
  "DerivedVendorReportedEchoSpacing": 0.000690017,
  "DeviceSerialNumber": "35450",
  "DwellTime": 2.5e-06,
  "EchoTime": 0.0348,
  "EffectiveEchoSpacing": 0.000690017,
  "FlipAngle": 55,
  "ImageComments": "Unaliased MB8/PE3 (remote)",
  "ImageOrientationPatientDICOM": [1, 0, 0, 0, 1, 0],
  "ImageType": [
    "ORIGINAL",
    "PRIMARY",
    "M",
    "MB",
    "ND",
    "MOSAIC"
],
  "ImagingFrequency": 123.234,
  "InPlanePhaseEncodingDirectionDICOM": "COL",
  "InstitutionAddress": "Univeristy Ave. 197,Newark,North East,US,07102-1814",
  "InstitutionName": "RUBIC",
  "InstitutionalDepartmentName": "Department",
  "MRAcquisitionType": "2D",
  "MagneticFieldStrength": 3,
  "Manufacturer": "Siemens",
  "ManufacturersModelName": "TrioTim",
  "Modality": "MR",
  "MultibandAccelerationFactor": 8,
  "PartialFourier": 0.875,
  "PatientPosition": "HFS",
  "PercentPhaseFOV": 100,
  "PercentSampling": 100,
  "PhaseEncodingDirection": "j-",
  "PhaseEncodingSteps": 91,
  "PhaseResolution": 1,
  "PixelBandwidth": 1923,
  "ProcedureStepDescription": "Cole^Michael",
  "ProtocolName": "cmrr_mbep2d_bold_2mm_MB8_Task_8x",
  "PulseSequenceDetails": "%CustomerSeq%\\cmrr_mbep2d_bold",
  "ReceiveCoilName": "32Ch_Head",
  "ReconMatrixPE": 104,
  "RepetitionTime": 0.785,
  "SAR": 0.142945,
  "ScanOptions": "PFP\\FS",
  "ScanningSequence": "EP",
  "SequenceName": "epfid2d1_104",
  "SequenceVariant": "SK\\SS",
  "SeriesDescription": "cmrr_mbep2d_bold_2mm_MB8_Task_8x",
  "SeriesNumber": 13,
  "ShimSetting": [2091, -483, -7219, 650, -117, -272, 261, 16],
  "SliceThickness": 2,
  "SliceTiming": [0, 0.4375, 0.0875, 0.525, 0.175, 0.6125, 0.2625, 0.7, 0.35, 0, 0.4375, 0.0875, 0.525, 0.175, 0.6125, 0.2625, 0.7, 0.35, 0, 0.4375, 0.0875, 0.525, 0.175, 0.6125, 0.2625, 0.7, 0.35, 0, 0.4375, 0.0875, 0.525, 0.175, 0.6125, 0.2625, 0.7, 0.35, 0, 0.4375, 0.0875, 0.525, 0.175, 0.6125, 0.2625, 0.7, 0.35, 0, 0.4375, 0.0875, 0.525, 0.175, 0.6125, 0.2625, 0.7, 0.35, 0, 0.4375, 0.0875, 0.525, 0.175, 0.6125, 0.2625, 0.7, 0.35, 0, 0.4375, 0.0875, 0.525, 0.175, 0.6125, 0.2625, 0.7, 0.35],
  "SoftwareVersions": "syngo MR B19",
  "SpacingBetweenSlices": 2,
  "StationName": "MRC35450",
  "TaskName": "cpro",
  "TotalReadoutTime": 0.0710717,
  "TxRefAmp": 321.099,
  "dcmmeta_affine": [
    [-2.0, 0.0, 0.0, 104.0],
    [0.0, 2.0, 0.0, -97.93220520019531],
    [0.0, 0.0, 2.0, -71.0],
    [0.0, 0.0, 0.0, 1.0]
],
  "dcmmeta_reorient_transform": [
    [0.0, -1.0, 0.0, 103.0],
    [1.0, 0.0, 0.0, 0.0],
    [0.0, 0.0, 1.0, 0.0],
    [0.0, 0.0, 0.0, 1.0]
],
  "dcmmeta_shape": [104, 104, 72, 581],
  "dcmmeta_slice_dim": 2,
  "dcmmeta_version": 0.6,
  "global": {
    "const": {
      "AcquisitionMatrix": [104, 0, 0, 104],
      "AngioFlag": "N",
      "BitsAllocated": 16,
      "BitsStored": 12,
      "Columns": 936,
      "EchoNumbers": 1,
      "EchoTime": 34.8,
      "EchoTrainLength": 1,
      "FlipAngle": 55.0,
      "HighBit": 11,
      "ImageOrientationPatient": [1.0, 0.0, 0.0, 0.0, 1.0, 0.0],
      "ImagePositionPatient": [-936.00000000083, -940.06779670715, -71.0],
      "ImageType": [
        "ORIGINAL",
        "PRIMARY",
        "M",
        "MB",
        "ND",
        "MOSAIC"
],
      "ImagedNucleus": "1H",
      "ImagingFrequency": 123.234352,
      "InPlanePhaseEncodingDirection": "COL",
      "MRAcquisitionType": "2D",
      "MagneticFieldStrength": 3.0,
      "Manufacturer": "SIEMENS",
      "ManufacturerModelName": "TrioTim",
      "Modality": "MR",
      "NumberOfAverages": 1.0,
      "NumberOfPhaseEncodingSteps": 91,
      "PercentPhaseFieldOfView": 100.0,
      "PercentSampling": 100.0,
      "PerformedProcedureStepStartTime": "145053.578000",
      "PhotometricInterpretation": "MONOCHROME2",
      "PixelBandwidth": 1923.0,
      "PixelRepresentation": 0,
      "PixelSpacing": [2.0, 2.0],
      "ProtocolName": "cmrr_mbep2d_bold_2mm_MB8_Task_8x",
      "RepetitionTime": 785.0,
      "Rows": 936,
      "SAR": 0.14294479907302,
      "SamplesPerPixel": 1,
      "ScanOptions": [
        "PFP",
        "FS"
],
      "ScanningSequence": "EP",
      "SequenceName": "epfid2d1_104",
      "SequenceVariant": [
        "SK",
        "SS"
],
      "SeriesDescription": "cmrr_mbep2d_bold_2mm_MB8_Task_8x",
      "SeriesNumber": 13,
      "SeriesTime": "160809.781000",
      "SliceLocation": -71.0,
      "SliceThickness": 2.0,
      "SmallestImagePixelValue": 0,
      "SoftwareVersions": "syngo MR B19",
      "SpacingBetweenSlices": 2.0,
      "SpecificCharacterSet": "ISO_IR 100",
      "StudyID": "1",
      "StudyTime": "145053.546000",
      "TransmitCoilName": "Body",
      "VariableFlipAngleFlag": "N",
      "WindowCenterWidthExplanation": "Algo1",
      "dBdt": 0.0},
    "slices": {}
  },
  "time": {
    "samples": {
      "AcquisitionNumber": [1, 2, 3, 4, 5, 6, 7, 8, 9, 10, 11, 12, 13, 14, 15, 16, 17, 18, 19, 20, 21, 22, 23, 24, 25, 26, 27, 28, 29, 30, 31, 32, 33, 34, 35, 36, 37, 38, 39, 40, 41, 42, 43, 44, 45, 46, 47, 48, 49, 50, 51, 52, 53, 54, 55, 56, 57, 58, 59, 60, 61, 62, 63, 64, 65, 66, 67, 68, 69, 70, 71, 72, 73, 74, 75, 76, 77, 78, 79, 80, 81, 82, 83, 84, 85, 86, 87, 88, 89, 90, 91, 92, 93, 94, 95, 96, 97, 98, 99, 100, 101, 102, 103, 104, 105, 106, 107, 108, 109, 110, 111, 112, 113, 114, 115, 116, 117, 118, 119, 120, 121, 122, 123, 124, 125, 126, 127, 128, 129, 130, 131, 132, 133, 134, 135, 136, 137, 138, 139, 140, 141, 142, 143, 144, 145, 146, 147, 148, 149, 150, 151, 152, 153, 154, 155, 156, 157, 158, 159, 160, 161, 162, 163, 164, 165, 166, 167, 168, 169, 170, 171, 172, 173, 174, 175, 176, 177, 178, 179, 180, 181, 182, 183, 184, 185, 186, 187, 188, 189, 190, 191, 192, 193, 194, 195, 196, 197, 198, 199, 200, 201, 202, 203, 204, 205, 206, 207, 208, 209, 210, 211, 212, 213, 214, 215, 216, 217, 218, 219, 220, 221, 222, 223, 224, 225, 226, 227, 228, 229, 230, 231, 232, 233, 234, 235, 236, 237, 238, 239, 240, 241, 242, 243, 244, 245, 246, 247, 248, 249, 250, 251, 252, 253, 254, 255, 256, 257, 258, 259, 260, 261, 262, 263, 264, 265, 266, 267, 268, 269, 270, 271, 272, 273, 274, 275, 276, 277, 278, 279, 280, 281, 282, 283, 284, 285, 286, 287, 288, 289, 290, 291, 292, 293, 294, 295, 296, 297, 298, 299, 300, 301, 302, 303, 304, 305, 306, 307, 308, 309, 310, 311, 312, 313, 314, 315, 316, 317, 318, 319, 320, 321, 322, 323, 324, 325, 326, 327, 328, 329, 330, 331, 332, 333, 334, 335, 336, 337, 338, 339, 340, 341, 342, 343, 344, 345, 346, 347, 348, 349, 350, 351, 352, 353, 354, 355, 356, 357, 358, 359, 360, 361, 362, 363, 364, 365, 366, 367, 368, 369, 370, 371, 372, 373, 374, 375, 376, 377, 378, 379, 380, 381, 382, 383, 384, 385, 386, 387, 388, 389, 390, 391, 392, 393, 394, 395, 396, 397, 398, 399, 400, 401, 402, 403, 404, 405, 406, 407, 408, 409, 410, 411, 412, 413, 414, 415, 416, 417, 418, 419, 420, 421, 422, 423, 424, 425, 426, 427, 428, 429, 430, 431, 432, 433, 434, 435, 436, 437, 438, 439, 440, 441, 442, 443, 444, 445, 446, 447, 448, 449, 450, 451, 452, 453, 454, 455, 456, 457, 458, 459, 460, 461, 462, 463, 464, 465, 466, 467, 468, 469, 470, 471, 472, 473, 474, 475, 476, 477, 478, 479, 480, 481, 482, 483, 484, 485, 486, 487, 488, 489, 490, 491, 492, 493, 494, 495, 496, 497, 498, 499, 500, 501, 502, 503, 504, 505, 506, 507, 508, 509, 510, 511, 512, 513, 514, 515, 516, 517, 518, 519, 520, 521, 522, 523, 524, 525, 526, 527, 528, 529, 530, 531, 532, 533, 534, 535, 536, 537, 538, 539, 540, 541, 542, 543, 544, 545, 546, 547, 548, 549, 550, 551, 552, 553, 554, 555, 556, 557, 558, 559, 560, 561, 562, 563, 564, 565, 566, 567, 568, 569, 570, 571, 572, 573, 574, 575, 576, 577, 578, 579, 580, 581],
      "AcquisitionTime": ["160735.197500", "160735.985000", "160736.772500", "160737.562500", "160738.350000", "160739.137500", "160739.925000", "160740.715000", "160741.502500", "160742.290000", "160743.077500", "160743.867500", "160744.655000", "160745.442500", "160746.230000", "160747.020000", "160747.807500", "160748.595000", "160749.382500", "160750.172500", "160750.960000", "160751.747500", "160752.535000", "160753.325000", "160754.112500", "160754.900000", "160755.690000", "160756.477500", "160757.265000", "160758.052500", "160758.842500", "160759.630000", "160800.417500", "160801.205000", "160801.995000", "160802.782500", "160803.570000", "160804.357500", "160805.147500", "160805.935000", "160806.722500", "160807.510000", "160808.300000", "160809.087500", "160809.875000", "160810.662500", "160811.452500", "160812.240000", "160813.027500", "160813.817500", "160814.605000", "160815.392500", "160816.180000", "160816.970000", "160817.757500", "160818.545000", "160819.332500", "160820.122500", "160820.910000", "160821.697500", "160822.485000", "160823.275000", "160824.062500", "160824.850000", "160825.637500", "160826.427500", "160827.215000", "160828.002500", "160828.790000", "160829.580000", "160830.367500", "160831.155000", "160831.945000", "160832.732500", "160833.520000", "160834.307500", "160835.097500", "160835.885000", "160836.672500", "160837.460000", "160838.250000", "160839.037500", "160839.825000", "160840.612500", "160841.402500", "160842.190000", "160842.977500", "160843.765000", "160844.555000", "160845.342500", "160846.130000", "160846.917500", "160847.707500", "160848.495000", "160849.282500", "160850.072500", "160850.860000", "160851.647500", "160852.435000", "160853.225000", "160854.012500", "160854.800000", "160855.587500", "160856.377500", "160857.165000", "160857.952500", "160858.740000", "160859.530000", "160900.317500", "160901.105000", "160901.892500", "160902.682500", "160903.470000", "160904.257500", "160905.045000", "160905.835000", "160906.622500", "160907.410000", "160908.200000", "160908.987500", "160909.775000", "160910.562500", "160911.352500", "160912.140000", "160912.927500", "160913.715000", "160914.505000", "160915.292500", "160916.080000", "160916.867500", "160917.657500", "160918.445000", "160919.232500", "160920.020000", "160920.810000", "160921.597500", "160922.385000", "160923.172500", "160923.962500", "160924.750000", "160925.537500", "160926.327500", "160927.115000", "160927.902500", "160928.690000", "160929.480000", "160930.267500", "160931.055000", "160931.842500", "160932.632500", "160933.420000", "160934.207500", "160934.995000", "160935.785000", "160936.572500", "160937.360000", "160938.147500", "160938.937500", "160939.725000", "160940.512500", "160941.300000", "160942.090000", "160942.877500", "160943.665000", "160944.455000", "160945.242500", "160946.030000", "160946.817500", "160947.607500", "160948.395000", "160949.182500", "160949.970000", "160950.760000", "160951.547500", "160952.335000", "160953.122500", "160953.912500", "160954.700000", "160955.487500", "160956.275000", "160957.065000", "160957.852500", "160958.640000", "160959.427500", "161000.217500", "161001.005000", "161001.792500", "161002.582500", "161003.370000", "161004.157500", "161004.945000", "161005.735000", "161006.522500", "161007.310000", "161008.097500", "161008.887500", "161009.675000", "161010.462500", "161011.250000", "161012.040000", "161012.827500", "161013.615000", "161014.402500", "161015.192500", "161015.980000", "161016.767500", "161017.555000", "161018.345000", "161019.132500", "161019.920000", "161020.710000", "161021.497500", "161022.285000", "161023.072500", "161023.862500", "161024.650000", "161025.437500", "161026.225000", "161027.015000", "161027.802500", "161028.590000", "161029.377500", "161030.167500", "161030.955000", "161031.742500", "161032.530000", "161033.320000", "161034.107500", "161034.895000", "161035.682500", "161036.472500", "161037.260000", "161038.047500", "161038.837500", "161039.625000", "161040.412500", "161041.200000", "161041.990000", "161042.777500", "161043.565000", "161044.352500", "161045.142500", "161045.930000", "161046.717500", "161047.505000", "161048.295000", "161049.082500", "161049.870000", "161050.657500", "161051.447500", "161052.235000", "161053.022500", "161053.812500", "161054.600000", "161055.387500", "161056.175000", "161056.965000", "161057.752500", "161058.540000", "161059.327500", "161100.117500", "161100.905000", "161101.692500", "161102.480000", "161103.270000", "161104.057500", "161104.845000", "161105.632500", "161106.422500", "161107.210000", "161107.997500", "161108.785000", "161109.575000", "161110.362500", "161111.150000", "161111.940000", "161112.727500", "161113.515000", "161114.302500", "161115.092500", "161115.880000", "161116.667500", "161117.455000", "161118.245000", "161119.032500", "161119.820000", "161120.607500", "161121.397500", "161122.185000", "161122.972500", "161123.760000", "161124.550000", "161125.337500", "161126.125000", "161126.912500", "161127.702500", "161128.490000", "161129.277500", "161130.067500", "161130.855000", "161131.642500", "161132.430000", "161133.220000", "161134.007500", "161134.795000", "161135.582500", "161136.372500", "161137.160000", "161137.947500", "161138.735000", "161139.525000", "161140.312500", "161141.100000", "161141.887500", "161142.677500", "161143.465000", "161144.252500", "161145.040000", "161145.830000", "161146.617500", "161147.405000", "161148.195000", "161148.982500", "161149.770000", "161150.557500", "161151.347500", "161152.135000", "161152.922500", "161153.710000", "161154.500000", "161155.287500", "161156.075000", "161156.862500", "161157.652500", "161158.440000", "161159.227500", "161200.015000", "161200.805000", "161201.592500", "161202.380000", "161203.167500", "161203.957500", "161204.745000", "161205.532500", "161206.322500", "161207.110000", "161207.897500", "161208.685000", "161209.475000", "161210.262500", "161211.050000", "161211.837500", "161212.627500", "161213.415000", "161214.202500", "161214.990000", "161215.780000", "161216.567500", "161217.355000", "161218.142500", "161218.932500", "161219.720000", "161220.507500", "161221.295000", "161222.085000", "161222.872500", "161223.660000", "161224.450000", "161225.237500", "161226.025000", "161226.812500", "161227.602500", "161228.390000", "161229.177500", "161229.965000", "161230.755000", "161231.542500", "161232.330000", "161233.117500", "161233.907500", "161234.695000", "161235.482500", "161236.270000", "161237.060000", "161237.847500", "161238.635000", "161239.422500", "161240.212500", "161241.000000", "161241.787500", "161242.577500", "161243.365000", "161244.152500", "161244.940000", "161245.730000", "161246.517500", "161247.305000", "161248.092500", "161248.882500", "161249.670000", "161250.457500", "161251.245000", "161252.035000", "161252.822500", "161253.610000", "161254.397500", "161255.187500", "161255.975000", "161256.762500", "161257.550000", "161258.340000", "161259.127500", "161259.915000", "161300.705000", "161301.492500", "161302.280000", "161303.067500", "161303.857500", "161304.645000", "161305.432500", "161306.220000", "161307.010000", "161307.797500", "161308.585000", "161309.372500", "161310.162500", "161310.950000", "161311.737500", "161312.525000", "161313.315000", "161314.102500", "161314.890000", "161315.677500", "161316.467500", "161317.255000", "161318.042500", "161318.832500", "161319.620000", "161320.407500", "161321.195000", "161321.985000", "161322.772500", "161323.560000", "161324.347500", "161325.137500", "161325.925000", "161326.712500", "161327.500000", "161328.290000", "161329.077500", "161329.865000", "161330.652500", "161331.442500", "161332.230000", "161333.017500", "161333.805000", "161334.595000", "161335.382500", "161336.170000", "161336.960000", "161337.747500", "161338.535000", "161339.322500", "161340.112500", "161340.900000", "161341.687500", "161342.475000", "161343.265000", "161344.052500", "161344.840000", "161345.627500", "161346.417500", "161347.205000", "161347.992500", "161348.780000", "161349.570000", "161350.357500", "161351.145000", "161351.932500", "161352.722500", "161353.510000", "161354.297500", "161355.087500", "161355.875000", "161356.662500", "161357.450000", "161358.240000", "161359.027500", "161359.815000", "161400.602500", "161401.392500", "161402.180000", "161402.967500", "161403.755000", "161404.545000", "161405.332500", "161406.120000", "161406.907500", "161407.697500", "161408.485000", "161409.272500", "161410.062500", "161410.850000", "161411.637500", "161412.425000", "161413.215000", "161414.002500", "161414.790000", "161415.577500", "161416.367500", "161417.155000", "161417.942500", "161418.730000", "161419.520000", "161420.307500", "161421.095000", "161421.882500", "161422.672500", "161423.460000", "161424.247500", "161425.035000", "161425.825000", "161426.612500", "161427.400000", "161428.190000", "161428.977500", "161429.765000", "161430.552500", "161431.342500", "161432.130000", "161432.917500", "161433.705000", "161434.495000", "161435.282500", "161436.070000", "161436.857500", "161437.647500", "161438.435000", "161439.222500", "161440.010000", "161440.800000", "161441.587500", "161442.375000", "161443.162500", "161443.952500", "161444.740000", "161445.527500", "161446.317500", "161447.105000", "161447.892500", "161448.680000", "161449.470000", "161450.257500", "161451.045000", "161451.832500", "161452.622500", "161453.410000", "161454.197500", "161454.985000", "161455.775000", "161456.562500", "161457.350000", "161458.137500", "161458.927500", "161459.715000", "161500.502500", "161501.290000", "161502.080000", "161502.867500", "161503.655000", "161504.445000", "161505.232500", "161506.020000", "161506.807500", "161507.597500", "161508.385000", "161509.172500", "161509.960000", "161510.750000", "161511.537500", "161512.325000"],
      "ContentTime": ["160809.781000", "160809.781000", "160809.781000", "160809.781000", "160809.781000", "160809.781000", "160809.796000", "160809.796000", "160809.796000", "160809.796000", "160809.796000", "160809.796000", "160809.796000", "160809.812000", "160809.812000", "160809.812000", "160809.812000", "160809.812000", "160809.812000", "160809.828000", "160809.828000", "160809.828000", "160809.828000", "160809.828000", "160809.828000", "160809.828000", "160809.843000", "160809.843000", "160809.843000", "160809.843000", "160809.843000", "160809.843000", "160809.843000", "160809.859000", "160809.859000", "160809.859000", "160809.859000", "160809.859000", "160809.859000", "160809.859000", "160809.875000", "160829.750000", "160829.750000", "160829.750000", "160829.765000", "160829.765000", "160829.765000", "160829.765000", "160829.765000", "160829.765000", "160829.765000", "160829.781000", "160829.781000", "160829.781000", "160829.781000", "160829.781000", "160829.781000", "160829.781000", "160829.796000", "160829.796000", "160829.796000", "160829.796000", "160829.796000", "160829.812000", "160829.812000", "160829.812000", "160829.812000", "160849.750000", "160849.750000", "160849.750000", "160849.765000", "160849.765000", "160849.765000", "160849.765000", "160849.765000", "160849.765000", "160849.765000", "160849.781000", "160849.781000", "160849.781000", "160849.781000", "160849.781000", "160849.781000", "160849.781000", "160849.796000", "160849.796000", "160849.796000", "160849.796000", "160849.796000", "160849.796000", "160849.796000", "160849.812000", "160909.750000", "160909.750000", "160909.750000", "160909.765000", "160909.765000", "160909.765000", "160909.765000", "160909.765000", "160909.765000", "160909.765000", "160909.781000", "160909.781000", "160909.781000", "160909.781000", "160909.781000", "160909.781000", "160909.781000", "160909.796000", "160909.796000", "160909.796000", "160909.796000", "160909.796000", "160909.796000", "160909.796000", "160909.812000", "160909.812000", "160929.750000", "160929.750000", "160929.750000", "160929.765000", "160929.765000", "160929.765000", "160929.765000", "160929.765000", "160929.765000", "160929.765000", "160929.781000", "160929.781000", "160929.781000", "160929.796000", "160929.796000", "160929.796000", "160929.796000", "160929.796000", "160929.812000", "160929.812000", "160929.812000", "160929.812000", "160929.812000", "160929.812000", "160929.812000", "160949.750000", "160949.750000", "160949.750000", "160949.765000", "160949.765000", "160949.765000", "160949.765000", "160949.765000", "160949.765000", "160949.765000", "160949.781000", "160949.781000", "160949.781000", "160949.781000", "160949.781000", "160949.781000", "160949.796000", "160949.796000", "160949.796000", "160949.796000", "160949.796000", "160949.796000", "160949.796000", "160949.796000", "160949.812000", "160949.812000", "161009.750000", "161009.750000", "161009.750000", "161009.765000", "161009.765000", "161009.765000", "161009.765000", "161009.765000", "161009.781000", "161009.781000", "161009.781000", "161009.781000", "161009.781000", "161009.781000", "161009.781000", "161009.796000", "161009.796000", "161009.796000", "161009.796000", "161009.796000", "161009.796000", "161009.796000", "161009.812000", "161009.812000", "161009.812000", "161029.750000", "161029.750000", "161029.750000", "161029.765000", "161029.765000", "161029.765000", "161029.765000", "161029.765000", "161029.765000", "161029.781000", "161029.781000", "161029.781000", "161029.781000", "161029.781000", "161029.796000", "161029.796000", "161029.796000", "161029.796000", "161029.796000", "161029.812000", "161029.812000", "161029.812000", "161029.812000", "161029.812000", "161029.812000", "161049.750000", "161049.750000", "161049.750000", "161049.765000", "161049.765000", "161049.765000", "161049.765000", "161049.765000", "161049.765000", "161049.781000", "161049.781000", "161049.781000", "161049.781000", "161049.781000", "161049.781000", "161049.781000", "161049.796000", "161049.796000", "161049.796000", "161049.796000", "161049.796000", "161049.796000", "161049.796000", "161049.812000", "161049.812000", "161049.812000", "161109.750000", "161109.750000", "161109.750000", "161109.765000", "161109.765000", "161109.765000", "161109.765000", "161109.765000", "161109.765000", "161109.765000", "161109.781000", "161109.781000", "161109.781000", "161109.781000", "161109.781000", "161109.796000", "161109.796000", "161109.796000", "161109.796000", "161109.796000", "161109.796000", "161109.812000", "161109.812000", "161109.812000", "161109.812000", "161129.750000", "161129.750000", "161129.750000", "161129.765000", "161129.765000", "161129.765000", "161129.765000", "161129.765000", "161129.765000", "161129.781000", "161129.781000", "161129.781000", "161129.781000", "161129.781000", "161129.796000", "161129.796000", "161129.796000", "161129.796000", "161129.796000", "161129.796000", "161129.796000", "161129.812000", "161129.812000", "161129.812000", "161129.812000", "161129.812000", "161149.750000", "161149.750000", "161149.750000", "161149.765000", "161149.765000", "161149.765000", "161149.765000", "161149.765000", "161149.765000", "161149.765000", "161149.781000", "161149.781000", "161149.781000", "161149.781000", "161149.781000", "161149.781000", "161149.781000", "161149.796000", "161149.796000", "161149.796000", "161149.796000", "161149.796000", "161149.812000", "161149.812000", "161149.812000", "161209.750000", "161209.750000", "161209.750000", "161209.765000", "161209.765000", "161209.765000", "161209.765000", "161209.765000", "161209.765000", "161209.765000", "161209.781000", "161209.781000", "161209.781000", "161209.781000", "161209.781000", "161209.781000", "161209.781000", "161209.796000", "161209.796000", "161209.796000", "161209.796000", "161209.796000", "161209.796000", "161209.796000", "161209.812000", "161209.812000", "161229.750000", "161229.750000", "161229.750000", "161229.765000", "161229.765000", "161229.765000", "161229.765000", "161229.765000", "161229.765000", "161229.765000", "161229.781000", "161229.781000", "161229.781000", "161229.781000", "161229.781000", "161229.781000", "161229.781000", "161229.796000", "161229.796000", "161229.796000", "161229.796000", "161229.796000", "161229.796000", "161229.812000", "161229.812000", "161249.750000", "161249.750000", "161249.750000", "161249.765000", "161249.765000", "161249.765000", "161249.765000", "161249.781000", "161249.781000", "161249.781000", "161249.781000", "161249.781000", "161249.781000", "161249.781000", "161249.796000", "161249.796000", "161249.796000", "161249.796000", "161249.796000", "161249.812000", "161249.812000", "161249.812000", "161249.812000", "161249.812000", "161249.812000", "161249.812000", "161309.750000", "161309.750000", "161309.750000", "161309.765000", "161309.765000", "161309.765000", "161309.765000", "161309.765000", "161309.765000", "161309.765000", "161309.781000", "161309.781000", "161309.781000", "161309.781000", "161309.781000", "161309.781000", "161309.796000", "161309.796000", "161309.796000", "161309.796000", "161309.796000", "161309.796000", "161309.796000", "161309.812000", "161309.812000", "161329.750000", "161329.750000", "161329.750000", "161329.765000", "161329.765000", "161329.765000", "161329.765000", "161329.765000", "161329.765000", "161329.765000", "161329.781000", "161329.781000", "161329.781000", "161329.781000", "161329.781000", "161329.796000", "161329.796000", "161329.796000", "161329.796000", "161329.796000", "161329.796000", "161329.796000", "161329.812000", "161329.812000", "161329.812000", "161329.812000", "161349.750000", "161349.750000", "161349.750000", "161349.765000", "161349.765000", "161349.765000", "161349.765000", "161349.765000", "161349.765000", "161349.781000", "161349.781000", "161349.781000", "161349.781000", "161349.781000", "161349.781000", "161349.781000", "161349.796000", "161349.796000", "161349.796000", "161349.796000", "161349.796000", "161349.796000", "161349.796000", "161349.812000", "161349.812000", "161409.750000", "161409.750000", "161409.750000", "161409.765000", "161409.765000", "161409.765000", "161409.765000", "161409.765000", "161409.765000", "161409.765000", "161409.781000", "161409.781000", "161409.781000", "161409.781000", "161409.781000", "161409.781000", "161409.796000", "161409.796000", "161409.796000", "161409.796000", "161409.796000", "161409.796000", "161409.796000", "161409.812000", "161409.812000", "161409.812000", "161429.750000", "161429.750000", "161429.750000", "161429.765000", "161429.765000", "161429.765000", "161429.765000", "161429.765000", "161429.765000", "161429.765000", "161429.781000", "161429.781000", "161429.781000", "161429.781000", "161429.781000", "161429.781000", "161429.796000", "161429.796000", "161429.796000", "161429.796000", "161429.796000", "161429.796000", "161429.796000", "161429.812000", "161429.812000", "161449.750000", "161449.750000", "161449.750000", "161449.765000", "161449.765000", "161449.765000", "161449.765000", "161449.765000", "161449.765000", "161449.781000", "161449.781000", "161449.781000", "161449.781000", "161449.781000", "161449.781000", "161449.796000", "161449.796000", "161449.796000", "161449.796000", "161449.796000", "161449.796000", "161449.796000", "161449.812000", "161449.812000", "161449.812000", "161449.812000", "161509.750000", "161509.750000", "161509.765000", "161509.765000", "161509.765000", "161509.765000", "161509.765000", "161509.765000", "161509.765000", "161509.781000", "161509.781000", "161509.781000", "161509.781000", "161509.781000", "161509.781000", "161509.781000", "161509.796000", "161509.796000", "161509.796000", "161509.796000", "161509.796000", "161509.796000", "161509.796000", "161509.812000", "161509.812000", "161513.296000", "161513.296000", "161513.296000", "161513.296000", "161513.296000"],
      "DataSetTrailingPadding": [
        "\u0000\u0000\u0000\u0000\u0000\u0000\u0000\u0000\u0000\u0000\u0000\u0000\u0000\u0000\u0000\u0000\u0000\u0000\u0000\u0000\u0000\u0000\u0000\u0000\u0000\u0000\u0000\u0000\u0000\u0000\u0000\u0000\u0000\u0000\u0000\u0000\u0000\u0000\u0000\u0000\u0000\u0000\u0000\u0000\u0000\u0000\u0000\u0000\u0000\u0000\u0000\u0000\u0000\u0000\u0000\u0000\u0000\u0000\u0000\u0000\u0000\u0000\u0000\u0000\u0000\u0000\u0000\u0000\u0000\u0000\u0000\u0000\u0000\u0000\u0000\u0000\u0000\u0000\u0000\u0000\u0000\u0000\u0000\u0000\u0000\u0000\u0000\u0000\u0000\u0000\u0000\u0000\u0000\u0000\u0000\u0000\u0000\u0000\u0000\u0000\u0000\u0000\u0000\u0000\u0000\u0000\u0000\u0000\u0000\u0000\u0000\u0000\u0000\u0000\u0000\u0000\u0000\u0000\u0000\u0000\u0000\u0000\u0000\u0000\u0000\u0000\u0000\u0000\u0000\u0000\u0000\u0000\u0000\u0000\u0000\u0000\u0000\u0000\u0000\u0000\u0000\u0000\u0000\u0000\u0000\u0000\u0000\u0000\u0000\u0000\u0000\u0000\u0000\u0000\u0000\u0000\u0000\u0000\u0000\u0000\u0000\u0000\u0000\u0000\u0000\u0000\u0000\u0000\u0000\u0000\u0000\u0000\u0000\u0000\u0000\u0000\u0000\u0000\u0000\u0000\u0000\u0000\u0000\u0000\u0000\u0000\u0000\u0000\u0000\u0000\u0000\u0000\u0000\u0000\u0000\u0000\u0000\u0000\u0000\u0000\u0000\u0000\u0000\u0000\u0000\u0000\u0000\u0000\u0000\u0000\u0000\u0000\u0000\u0000\u0000\u0000\u0000\u0000\u0000\u0000\u0000\u0000\u0000\u0000\u0000\u0000\u0000\u0000\u0000\u0000\u0000\u0000\u0000\u0000\u0000\u0000\u0000\u0000\u0000\u0000\u0000\u0000\u0000\u0000\u0000\u0000\u0000\u0000\u0000\u0000\u0000\u0000\u0000\u0000\u0000\u0000\u0000\u0000\u0000\u0000\u0000\u0000\u0000\u0000\u0000\u0000\u0000\u0000\u0000\u0000\u0000\u0000\u0000\u0000\u0000\u0000\u0000\u0000\u0000\u0000\u0000\u0000\u0000\u0000\u0000\u0000\u0000\u0000\u0000\u0000\u0000\u0000\u0000\u0000\u0000\u0000\u0000\u0000\u0000\u0000",
