{
  "AcquisitionMatrixPE": 104,
  "AcquisitionNumber": 1,
  "AcquisitionTime": "16:39:35.747500",
  "BandwidthPerPixelPhaseEncode": 13.935,
  "BaseResolution": 104,
  "CoilString": "C:HEA;HEP",
  "ConversionSoftware": "dcm2niix",
  "ConversionSoftwareVersion": "v1.0.20210317",
  "DerivedVendorReportedEchoSpacing": 0.000690017,
  "DeviceSerialNumber": "35450",
  "DwellTime": 2.5e-06,
  "EchoTime": 0.0348,
  "EffectiveEchoSpacing": 0.000690017,
  "FlipAngle": 55,
  "ImageComments": "Unaliased MB8/PE3 (remote)",
  "ImageOrientationPatientDICOM": [1, 0, 0, 0, 1, 0],
  "ImageType": [
    "ORIGINAL",
    "PRIMARY",
    "M",
    "MB",
    "ND",
    "MOSAIC"
],
  "ImagingFrequency": 123.234,
  "InPlanePhaseEncodingDirectionDICOM": "COL",
  "InstitutionAddress": "Univeristy Ave. 197,Newark,North East,US,07102-1814",
  "InstitutionName": "RUBIC",
  "InstitutionalDepartmentName": "Department",
  "MRAcquisitionType": "2D",
  "MagneticFieldStrength": 3,
  "Manufacturer": "Siemens",
  "ManufacturersModelName": "TrioTim",
  "Modality": "MR",
  "MultibandAccelerationFactor": 8,
  "PartialFourier": 0.875,
  "PatientPosition": "HFS",
  "PercentPhaseFOV": 100,
  "PercentSampling": 100,
  "PhaseEncodingDirection": "j-",
  "PhaseEncodingSteps": 91,
  "PhaseResolution": 1,
  "PixelBandwidth": 1923,
  "ProcedureStepDescription": "Cole^Michael",
  "ProtocolName": "cmrr_mbep2d_bold_2mm_MB8_Task_8x",
  "PulseSequenceDetails": "%CustomerSeq%\\cmrr_mbep2d_bold",
  "ReceiveCoilName": "32Ch_Head",
  "ReconMatrixPE": 104,
  "RepetitionTime": 0.785,
  "SAR": 0.122193,
  "ScanOptions": "PFP\\FS",
  "ScanningSequence": "EP",
  "SequenceName": "epfid2d1_104",
  "SequenceVariant": "SK\\SS",
  "SeriesDescription": "cmrr_mbep2d_bold_2mm_MB8_Task_8x",
  "SeriesNumber": 21,
  "ShimSetting": [2091, -483, -7219, 650, -117, -272, 261, 16],
  "SliceThickness": 2,
  "SliceTiming": [0, 0.4375, 0.0875, 0.525, 0.175, 0.6125, 0.2625, 0.7, 0.35, 0, 0.4375, 0.0875, 0.525, 0.175, 0.6125, 0.2625, 0.7, 0.35, 0, 0.4375, 0.0875, 0.525, 0.175, 0.6125, 0.2625, 0.7, 0.35, 0, 0.4375, 0.0875, 0.525, 0.175, 0.6125, 0.2625, 0.7, 0.35, 0, 0.4375, 0.0875, 0.525, 0.175, 0.6125, 0.2625, 0.7, 0.35, 0, 0.4375, 0.0875, 0.525, 0.175, 0.6125, 0.2625, 0.7, 0.35, 0, 0.4375, 0.0875, 0.525, 0.175, 0.6125, 0.2625, 0.7, 0.35, 0, 0.4375, 0.0875, 0.525, 0.175, 0.6125, 0.2625, 0.7, 0.35],
  "SoftwareVersions": "syngo MR B19",
  "SpacingBetweenSlices": 2,
  "StationName": "MRC35450",
  "TaskName": "cpro",
  "TotalReadoutTime": 0.0710717,
  "TxRefAmp": 321.099,
  "dcmmeta_affine": [
    [-2.0, 0.0, 0.0, 104.0],
    [0.0, 2.0, 0.0, -97.93220520019531],
    [0.0, 0.0, 2.0, -71.0],
    [0.0, 0.0, 0.0, 1.0]
],
  "dcmmeta_reorient_transform": [
    [0.0, -1.0, 0.0, 103.0],
    [1.0, 0.0, 0.0, 0.0],
    [0.0, 0.0, 1.0, 0.0],
    [0.0, 0.0, 0.0, 1.0]
],
  "dcmmeta_shape": [104, 104, 72, 581],
  "dcmmeta_slice_dim": 2,
  "dcmmeta_version": 0.6,
  "global": {
    "const": {
      "AcquisitionMatrix": [104, 0, 0, 104],
      "AngioFlag": "N",
      "BitsAllocated": 16,
      "BitsStored": 12,
      "Columns": 936,
      "EchoNumbers": 1,
      "EchoTime": 34.8,
      "EchoTrainLength": 1,
      "FlipAngle": 55.0,
      "HighBit": 11,
      "ImageOrientationPatient": [1.0, 0.0, 0.0, 0.0, 1.0, 0.0],
      "ImagePositionPatient": [-936.00000000083, -940.06779670715, -71.0],
      "ImageType": [
        "ORIGINAL",
        "PRIMARY",
        "M",
        "MB",
        "ND",
        "MOSAIC"
],
      "ImagedNucleus": "1H",
      "ImagingFrequency": 123.234352,
      "InPlanePhaseEncodingDirection": "COL",
      "MRAcquisitionType": "2D",
      "MagneticFieldStrength": 3.0,
      "Manufacturer": "SIEMENS",
      "ManufacturerModelName": "TrioTim",
      "Modality": "MR",
      "NumberOfAverages": 1.0,
      "NumberOfPhaseEncodingSteps": 91,
      "PercentPhaseFieldOfView": 100.0,
      "PercentSampling": 100.0,
      "PerformedProcedureStepStartTime": "145053.578000",
      "PhotometricInterpretation": "MONOCHROME2",
      "PixelBandwidth": 1923.0,
      "PixelRepresentation": 0,
      "PixelSpacing": [2.0, 2.0],
      "ProtocolName": "cmrr_mbep2d_bold_2mm_MB8_Task_8x",
      "RepetitionTime": 785.0,
      "Rows": 936,
      "SAR": 0.12219251189067,
      "SamplesPerPixel": 1,
      "ScanOptions": [
        "PFP",
        "FS"
],
      "ScanningSequence": "EP",
      "SequenceName": "epfid2d1_104",
      "SequenceVariant": [
        "SK",
        "SS"
],
      "SeriesDescription": "cmrr_mbep2d_bold_2mm_MB8_Task_8x",
      "SeriesNumber": 21,
      "SeriesTime": "163958.062000",
      "SliceLocation": -71.0,
      "SliceThickness": 2.0,
      "SmallestImagePixelValue": 0,
      "SoftwareVersions": "syngo MR B19",
      "SpacingBetweenSlices": 2.0,
      "SpecificCharacterSet": "ISO_IR 100",
      "StudyID": "1",
      "StudyTime": "145053.546000",
      "TransmitCoilName": "Body",
      "VariableFlipAngleFlag": "N",
      "WindowCenterWidthExplanation": "Algo1",
      "dBdt": 0.0},
    "slices": {}
  },
  "time": {
    "samples": {
      "AcquisitionNumber": [1, 2, 3, 4, 5, 6, 7, 8, 9, 10, 11, 12, 13, 14, 15, 16, 17, 18, 19, 20, 21, 22, 23, 24, 25, 26, 27, 28, 29, 30, 31, 32, 33, 34, 35, 36, 37, 38, 39, 40, 41, 42, 43, 44, 45, 46, 47, 48, 49, 50, 51, 52, 53, 54, 55, 56, 57, 58, 59, 60, 61, 62, 63, 64, 65, 66, 67, 68, 69, 70, 71, 72, 73, 74, 75, 76, 77, 78, 79, 80, 81, 82, 83, 84, 85, 86, 87, 88, 89, 90, 91, 92, 93, 94, 95, 96, 97, 98, 99, 100, 101, 102, 103, 104, 105, 106, 107, 108, 109, 110, 111, 112, 113, 114, 115, 116, 117, 118, 119, 120, 121, 122, 123, 124, 125, 126, 127, 128, 129, 130, 131, 132, 133, 134, 135, 136, 137, 138, 139, 140, 141, 142, 143, 144, 145, 146, 147, 148, 149, 150, 151, 152, 153, 154, 155, 156, 157, 158, 159, 160, 161, 162, 163, 164, 165, 166, 167, 168, 169, 170, 171, 172, 173, 174, 175, 176, 177, 178, 179, 180, 181, 182, 183, 184, 185, 186, 187, 188, 189, 190, 191, 192, 193, 194, 195, 196, 197, 198, 199, 200, 201, 202, 203, 204, 205, 206, 207, 208, 209, 210, 211, 212, 213, 214, 215, 216, 217, 218, 219, 220, 221, 222, 223, 224, 225, 226, 227, 228, 229, 230, 231, 232, 233, 234, 235, 236, 237, 238, 239, 240, 241, 242, 243, 244, 245, 246, 247, 248, 249, 250, 251, 252, 253, 254, 255, 256, 257, 258, 259, 260, 261, 262, 263, 264, 265, 266, 267, 268, 269, 270, 271, 272, 273, 274, 275, 276, 277, 278, 279, 280, 281, 282, 283, 284, 285, 286, 287, 288, 289, 290, 291, 292, 293, 294, 295, 296, 297, 298, 299, 300, 301, 302, 303, 304, 305, 306, 307, 308, 309, 310, 311, 312, 313, 314, 315, 316, 317, 318, 319, 320, 321, 322, 323, 324, 325, 326, 327, 328, 329, 330, 331, 332, 333, 334, 335, 336, 337, 338, 339, 340, 341, 342, 343, 344, 345, 346, 347, 348, 349, 350, 351, 352, 353, 354, 355, 356, 357, 358, 359, 360, 361, 362, 363, 364, 365, 366, 367, 368, 369, 370, 371, 372, 373, 374, 375, 376, 377, 378, 379, 380, 381, 382, 383, 384, 385, 386, 387, 388, 389, 390, 391, 392, 393, 394, 395, 396, 397, 398, 399, 400, 401, 402, 403, 404, 405, 406, 407, 408, 409, 410, 411, 412, 413, 414, 415, 416, 417, 418, 419, 420, 421, 422, 423, 424, 425, 426, 427, 428, 429, 430, 431, 432, 433, 434, 435, 436, 437, 438, 439, 440, 441, 442, 443, 444, 445, 446, 447, 448, 449, 450, 451, 452, 453, 454, 455, 456, 457, 458, 459, 460, 461, 462, 463, 464, 465, 466, 467, 468, 469, 470, 471, 472, 473, 474, 475, 476, 477, 478, 479, 480, 481, 482, 483, 484, 485, 486, 487, 488, 489, 490, 491, 492, 493, 494, 495, 496, 497, 498, 499, 500, 501, 502, 503, 504, 505, 506, 507, 508, 509, 510, 511, 512, 513, 514, 515, 516, 517, 518, 519, 520, 521, 522, 523, 524, 525, 526, 527, 528, 529, 530, 531, 532, 533, 534, 535, 536, 537, 538, 539, 540, 541, 542, 543, 544, 545, 546, 547, 548, 549, 550, 551, 552, 553, 554, 555, 556, 557, 558, 559, 560, 561, 562, 563, 564, 565, 566, 567, 568, 569, 570, 571, 572, 573, 574, 575, 576, 577, 578, 579, 580, 581],
      "AcquisitionTime": ["163935.747500", "163936.535000", "163937.322500", "163938.112500", "163938.900000", "163939.687500", "163940.475000", "163941.265000", "163942.052500", "163942.840000", "163943.630000", "163944.417500", "163945.205000", "163945.992500", "163946.782500", "163947.570000", "163948.357500", "163949.145000", "163949.935000", "163950.722500", "163951.510000", "163952.297500", "163953.087500", "163953.875000", "163954.662500", "163955.450000", "163956.240000", "163957.027500", "163957.815000", "163958.602500", "163959.392500", "164000.180000", "164000.967500", "164001.757500", "164002.545000", "164003.332500", "164004.120000", "164004.910000", "164005.697500", "164006.485000", "164007.272500", "164008.062500", "164008.850000", "164009.637500", "164010.425000", "164011.215000", "164012.002500", "164012.790000", "164013.577500", "164014.367500", "164015.155000", "164015.942500", "164016.730000", "164017.520000", "164018.307500", "164019.095000", "164019.885000", "164020.672500", "164021.460000", "164022.247500", "164023.037500", "164023.825000", "164024.612500", "164025.400000", "164026.190000", "164026.977500", "164027.765000", "164028.552500", "164029.342500", "164030.130000", "164030.917500", "164031.705000", "164032.495000", "164033.282500", "164034.070000", "164034.857500", "164035.647500", "164036.435000", "164037.222500", "164038.012500", "164038.800000", "164039.587500", "164040.375000", "164041.165000", "164041.952500", "164042.740000", "164043.527500", "164044.317500", "164045.105000", "164045.892500", "164046.680000", "164047.470000", "164048.257500", "164049.045000", "164049.832500", "164050.622500", "164051.410000", "164052.197500", "164052.985000", "164053.775000", "164054.562500", "164055.350000", "164056.140000", "164056.927500", "164057.715000", "164058.502500", "164059.292500", "164100.080000", "164100.867500", "164101.655000", "164102.445000", "164103.232500", "164104.020000", "164104.807500", "164105.597500", "164106.385000", "164107.172500", "164107.960000", "164108.750000", "164109.537500", "164110.325000", "164111.112500", "164111.902500", "164112.690000", "164113.477500", "164114.267500", "164115.055000", "164115.842500", "164116.630000", "164117.420000", "164118.207500", "164118.995000", "164119.782500", "164120.572500", "164121.360000", "164122.147500", "164122.935000", "164123.725000", "164124.512500", "164125.300000", "164126.087500", "164126.877500", "164127.665000", "164128.452500", "164129.240000", "164130.030000", "164130.817500", "164131.605000", "164132.395000", "164133.182500", "164133.970000", "164134.757500", "164135.547500", "164136.335000", "164137.122500", "164137.910000", "164138.700000", "164139.487500", "164140.275000", "164141.062500", "164141.852500", "164142.640000", "164143.427500", "164144.215000", "164145.005000", "164145.792500", "164146.580000", "164147.370000", "164148.157500", "164148.945000", "164149.732500", "164150.522500", "164151.310000", "164152.097500", "164152.885000", "164153.675000", "164154.462500", "164155.250000", "164156.037500", "164156.827500", "164157.615000", "164158.402500", "164159.190000", "164159.980000", "164200.767500", "164201.555000", "164202.342500", "164203.132500", "164203.920000", "164204.707500", "164205.497500", "164206.285000", "164207.072500", "164207.860000", "164208.650000", "164209.437500", "164210.225000", "164211.012500", "164211.802500", "164212.590000", "164213.377500", "164214.165000", "164214.955000", "164215.742500", "164216.530000", "164217.317500", "164218.107500", "164218.895000", "164219.682500", "164220.470000", "164221.260000", "164222.047500", "164222.835000", "164223.625000", "164224.412500", "164225.200000", "164225.987500", "164226.777500", "164227.565000", "164228.352500", "164229.140000", "164229.930000", "164230.717500", "164231.505000", "164232.292500", "164233.082500", "164233.870000", "164234.657500", "164235.445000", "164236.235000", "164237.022500", "164237.810000", "164238.597500", "164239.387500", "164240.175000", "164240.962500", "164241.752500", "164242.540000", "164243.327500", "164244.115000", "164244.905000", "164245.692500", "164246.480000", "164247.267500", "164248.057500", "164248.845000", "164249.632500", "164250.420000", "164251.210000", "164251.997500", "164252.785000", "164253.572500", "164254.362500", "164255.150000", "164255.937500", "164256.725000", "164257.515000", "164258.302500", "164259.090000", "164259.880000", "164300.667500", "164301.455000", "164302.242500", "164303.032500", "164303.820000", "164304.607500", "164305.395000", "164306.185000", "164306.972500", "164307.760000", "164308.547500", "164309.337500", "164310.125000", "164310.912500", "164311.700000", "164312.490000", "164313.277500", "164314.065000", "164314.852500", "164315.642500", "164316.430000", "164317.217500", "164318.007500", "164318.795000", "164319.582500", "164320.370000", "164321.160000", "164321.947500", "164322.735000", "164323.522500", "164324.312500", "164325.100000", "164325.887500", "164326.675000", "164327.465000", "164328.252500", "164329.040000", "164329.827500", "164330.617500", "164331.405000", "164332.192500", "164332.980000", "164333.770000", "164334.557500", "164335.345000", "164336.135000", "164336.922500", "164337.710000", "164338.497500", "164339.287500", "164340.075000", "164340.862500", "164341.650000", "164342.440000", "164343.227500", "164344.015000", "164344.802500", "164345.592500", "164346.380000", "164347.167500", "164347.955000", "164348.745000", "164349.532500", "164350.320000", "164351.107500", "164351.897500", "164352.685000", "164353.472500", "164354.262500", "164355.050000", "164355.837500", "164356.625000", "164357.415000", "164358.202500", "164358.990000", "164359.777500", "164400.567500", "164401.355000", "164402.142500", "164402.930000", "164403.720000", "164404.507500", "164405.295000", "164406.082500", "164406.872500", "164407.660000", "164408.447500", "164409.235000", "164410.025000", "164410.812500", "164411.600000", "164412.390000", "164413.177500", "164413.965000", "164414.752500", "164415.542500", "164416.330000", "164417.117500", "164417.905000", "164418.695000", "164419.482500", "164420.270000", "164421.057500", "164421.847500", "164422.635000", "164423.422500", "164424.210000", "164425.000000", "164425.787500", "164426.575000", "164427.362500", "164428.152500", "164428.940000", "164429.727500", "164430.517500", "164431.305000", "164432.092500", "164432.880000", "164433.670000", "164434.457500", "164435.245000", "164436.032500", "164436.822500", "164437.610000", "164438.397500", "164439.185000", "164439.975000", "164440.762500", "164441.550000", "164442.337500", "164443.127500", "164443.915000", "164444.702500", "164445.490000", "164446.280000", "164447.067500", "164447.855000", "164448.645000", "164449.432500", "164450.220000", "164451.007500", "164451.797500", "164452.585000", "164453.372500", "164454.160000", "164454.950000", "164455.737500", "164456.525000", "164457.312500", "164458.102500", "164458.890000", "164459.677500", "164500.465000", "164501.255000", "164502.042500", "164502.830000", "164503.620000", "164504.407500", "164505.195000", "164505.982500", "164506.772500", "164507.560000", "164508.347500", "164509.135000", "164509.925000", "164510.712500", "164511.500000", "164512.287500", "164513.077500", "164513.865000", "164514.652500", "164515.440000", "164516.230000", "164517.017500", "164517.805000", "164518.592500", "164519.382500", "164520.170000", "164520.957500", "164521.747500", "164522.535000", "164523.322500", "164524.110000", "164524.900000", "164525.687500", "164526.475000", "164527.262500", "164528.052500", "164528.840000", "164529.627500", "164530.415000", "164531.205000", "164531.992500", "164532.780000", "164533.567500", "164534.357500", "164535.145000", "164535.932500", "164536.720000", "164537.510000", "164538.297500", "164539.085000", "164539.875000", "164540.662500", "164541.450000", "164542.237500", "164543.027500", "164543.815000", "164544.602500", "164545.390000", "164546.180000", "164546.967500", "164547.755000", "164548.542500", "164549.332500", "164550.120000", "164550.907500", "164551.695000", "164552.485000", "164553.272500", "164554.060000", "164554.847500", "164555.637500", "164556.425000", "164557.212500", "164558.002500", "164558.790000", "164559.577500", "164600.365000", "164601.155000", "164601.942500", "164602.730000", "164603.517500", "164604.307500", "164605.095000", "164605.882500", "164606.670000", "164607.460000", "164608.247500", "164609.035000", "164609.822500", "164610.612500", "164611.400000", "164612.187500", "164612.975000", "164613.765000", "164614.552500", "164615.340000", "164616.130000", "164616.917500", "164617.705000", "164618.492500", "164619.282500", "164620.070000", "164620.857500", "164621.645000", "164622.435000", "164623.222500", "164624.010000", "164624.797500", "164625.587500", "164626.375000", "164627.162500", "164627.950000", "164628.740000", "164629.527500", "164630.315000", "164631.102500", "164631.892500", "164632.680000", "164633.467500", "164634.257500", "164635.045000", "164635.832500", "164636.620000", "164637.410000", "164638.197500", "164638.985000", "164639.772500", "164640.562500", "164641.350000", "164642.137500", "164642.925000", "164643.715000", "164644.502500", "164645.290000", "164646.077500", "164646.867500", "164647.655000", "164648.442500", "164649.230000", "164650.020000", "164650.807500", "164651.595000", "164652.385000", "164653.172500", "164653.960000", "164654.747500", "164655.537500", "164656.325000", "164657.112500", "164657.900000", "164658.690000", "164659.477500", "164700.265000", "164701.052500", "164701.842500", "164702.630000", "164703.417500", "164704.205000", "164704.995000", "164705.782500", "164706.570000", "164707.357500", "164708.147500", "164708.935000", "164709.722500", "164710.512500", "164711.300000", "164712.087500", "164712.875000"],
      "ContentTime": ["163958.062000", "163958.062000", "163958.062000", "163958.062000", "163958.062000", "163958.062000", "163958.078000", "163958.078000", "163958.078000", "163958.078000", "163958.078000", "163958.078000", "163958.093000", "163958.093000", "163958.093000", "163958.093000", "163958.093000", "163958.093000", "163958.093000", "163958.109000", "163958.109000", "163958.109000", "163958.109000", "163958.109000", "163958.109000", "163958.125000", "164018.031000", "164018.031000", "164018.031000", "164018.046000", "164018.046000", "164018.046000", "164018.046000", "164018.046000", "164018.046000", "164018.062000", "164018.062000", "164018.062000", "164018.062000", "164018.062000", "164018.062000", "164018.062000", "164018.078000", "164018.078000", "164018.078000", "164018.078000", "164018.078000", "164018.078000", "164018.078000", "164018.093000", "164018.093000", "164038.031000", "164038.031000", "164038.031000", "164038.046000", "164038.046000", "164038.046000", "164038.046000", "164038.046000", "164038.046000", "164038.046000", "164038.062000", "164038.062000", "164038.062000", "164038.062000", "164038.062000", "164038.062000", "164038.078000", "164038.078000", "164038.078000", "164038.078000", "164038.078000", "164038.078000", "164038.078000", "164038.093000", "164038.093000", "164038.093000", "164058.031000", "164058.031000", "164058.031000", "164058.046000", "164058.046000", "164058.046000", "164058.046000", "164058.046000", "164058.046000", "164058.046000", "164058.062000", "164058.062000", "164058.062000", "164058.062000", "164058.078000", "164058.078000", "164058.078000", "164058.078000", "164058.093000", "164058.093000", "164058.093000", "164058.093000", "164058.093000", "164058.093000", "164058.093000", "164118.031000", "164118.031000", "164118.031000", "164118.046000", "164118.046000", "164118.046000", "164118.046000", "164118.046000", "164118.046000", "164118.062000", "164118.062000", "164118.062000", "164118.062000", "164118.062000", "164118.062000", "164118.078000", "164118.078000", "164118.078000", "164118.078000", "164118.078000", "164118.078000", "164118.093000", "164118.093000", "164118.093000", "164118.093000", "164138.031000", "164138.031000", "164138.031000", "164138.046000", "164138.046000", "164138.046000", "164138.046000", "164138.046000", "164138.046000", "164138.062000", "164138.062000", "164138.062000", "164138.062000", "164138.078000", "164138.078000", "164138.078000", "164138.078000", "164138.078000", "164138.078000", "164138.078000", "164138.093000", "164138.093000", "164138.093000", "164138.093000", "164138.109000", "164138.109000", "164158.031000", "164158.031000", "164158.031000", "164158.046000", "164158.046000", "164158.046000", "164158.046000", "164158.046000", "164158.046000", "164158.062000", "164158.062000", "164158.062000", "164158.062000", "164158.062000", "164158.062000", "164158.062000", "164158.078000", "164158.078000", "164158.078000", "164158.078000", "164158.078000", "164158.078000", "164158.078000", "164158.093000", "164158.093000", "164218.031000", "164218.031000", "164218.031000", "164218.046000", "164218.046000", "164218.046000", "164218.046000", "164218.046000", "164218.046000", "164218.046000", "164218.062000", "164218.062000", "164218.062000", "164218.062000", "164218.062000", "164218.062000", "164218.062000", "164218.078000", "164218.078000", "164218.078000", "164218.078000", "164218.078000", "164218.093000", "164218.093000", "164218.093000", "164218.093000", "164238.031000", "164238.031000", "164238.031000", "164238.046000", "164238.046000", "164238.046000", "164238.046000", "164238.046000", "164238.046000", "164238.046000", "164238.062000", "164238.062000", "164238.062000", "164238.062000", "164238.062000", "164238.062000", "164238.062000", "164238.078000", "164238.078000", "164238.078000", "164238.078000", "164238.093000", "164238.093000", "164238.093000", "164238.093000", "164258.031000", "164258.031000", "164258.046000", "164258.046000", "164258.046000", "164258.046000", "164258.046000", "164258.046000", "164258.046000", "164258.062000", "164258.062000", "164258.062000", "164258.062000", "164258.062000", "164258.062000", "164258.078000", "164258.078000", "164258.078000", "164258.078000", "164258.078000", "164258.078000", "164258.078000", "164258.093000", "164258.093000", "164258.093000", "164258.093000", "164318.031000", "164318.031000", "164318.031000", "164318.046000", "164318.046000", "164318.046000", "164318.046000", "164318.046000", "164318.046000", "164318.062000", "164318.062000", "164318.062000", "164318.062000", "164318.062000", "164318.062000", "164318.078000", "164318.078000", "164318.078000", "164318.078000", "164318.078000", "164318.078000", "164318.093000", "164318.093000", "164318.093000", "164318.093000", "164338.031000", "164338.031000", "164338.031000", "164338.046000", "164338.046000", "164338.046000", "164338.046000", "164338.046000", "164338.046000", "164338.046000", "164338.062000", "164338.062000", "164338.062000", "164338.062000", "164338.062000", "164338.062000", "164338.062000", "164338.078000", "164338.078000", "164338.078000", "164338.078000", "164338.078000", "164338.078000", "164338.078000", "164338.093000", "164338.093000", "164358.031000", "164358.031000", "164358.031000", "164358.046000", "164358.046000", "164358.046000", "164358.046000", "164358.046000", "164358.046000", "164358.062000", "164358.062000", "164358.062000", "164358.062000", "164358.062000", "164358.062000", "164358.062000", "164358.078000", "164358.078000", "164358.078000", "164358.078000", "164358.078000", "164358.078000", "164358.078000", "164358.093000", "164358.093000", "164418.031000", "164418.031000", "164418.031000", "164418.046000", "164418.046000", "164418.046000", "164418.046000", "164418.046000", "164418.046000", "164418.046000", "164418.062000", "164418.062000", "164418.062000", "164418.062000", "164418.062000", "164418.062000", "164418.078000", "164418.078000", "164418.078000", "164418.078000", "164418.078000", "164418.093000", "164418.093000", "164418.093000", "164418.093000", "164418.093000", "164438.031000", "164438.031000", "164438.031000", "164438.046000", "164438.046000", "164438.046000", "164438.046000", "164438.046000", "164438.046000", "164438.062000", "164438.062000", "164438.062000", "164438.062000", "164438.062000", "164438.062000", "164438.062000", "164438.078000", "164438.078000", "164438.078000", "164438.078000", "164438.078000", "164438.078000", "164438.078000", "164438.093000", "164438.093000", "164458.031000", "164458.031000", "164458.031000", "164458.046000", "164458.046000", "164458.046000", "164458.046000", "164458.046000", "164458.046000", "164458.062000", "164458.062000", "164458.062000", "164458.062000", "164458.062000", "164458.062000", "164458.062000", "164458.078000", "164458.078000", "164458.078000", "164458.078000", "164458.078000", "164458.093000", "164458.093000", "164458.093000", "164458.093000", "164458.093000", "164518.031000", "164518.031000", "164518.031000", "164518.046000", "164518.046000", "164518.046000", "164518.046000", "164518.046000", "164518.046000", "164518.046000", "164518.062000", "164518.062000", "164518.062000", "164518.062000", "164518.062000", "164518.062000", "164518.078000", "164518.078000", "164518.078000", "164518.078000", "164518.078000", "164518.078000", "164518.078000", "164518.093000", "164518.093000", "164538.031000", "164538.031000", "164538.031000", "164538.046000", "164538.046000", "164538.046000", "164538.046000", "164538.046000", "164538.062000", "164538.062000", "164538.062000", "164538.062000", "164538.062000", "164538.062000", "164538.062000", "164538.078000", "164538.078000", "164538.078000", "164538.078000", "164538.078000", "164538.093000", "164538.093000", "164538.093000", "164538.093000", "164538.093000", "164538.093000", "164558.031000", "164558.031000", "164558.046000", "164558.046000", "164558.046000", "164558.046000", "164558.046000", "164558.046000", "164558.046000", "164558.062000", "164558.062000", "164558.062000", "164558.062000", "164558.062000", "164558.062000", "164558.062000", "164558.078000", "164558.078000", "164558.078000", "164558.078000", "164558.078000", "164558.078000", "164558.078000", "164558.093000", "164558.093000", "164618.031000", "164618.031000", "164618.031000", "164618.046000", "164618.046000", "164618.046000", "164618.046000", "164618.046000", "164618.046000", "164618.062000", "164618.062000", "164618.062000", "164618.062000", "164618.062000", "164618.062000", "164618.062000", "164618.078000", "164618.078000", "164618.078000", "164618.078000", "164618.078000", "164618.078000", "164618.093000", "164618.093000", "164618.109000", "164618.109000", "164638.031000", "164638.031000", "164638.031000", "164638.046000", "164638.046000", "164638.046000", "164638.046000", "164638.046000", "164638.046000", "164638.062000", "164638.062000", "164638.062000", "164638.062000", "164638.062000", "164638.062000", "164638.062000", "164638.078000", "164638.078000", "164638.078000", "164638.078000", "164638.078000", "164638.078000", "164638.078000", "164638.093000", "164638.093000", "164658.031000", "164658.031000", "164658.031000", "164658.046000", "164658.046000", "164658.046000", "164658.046000", "164658.046000", "164658.046000", "164658.062000", "164658.062000", "164658.062000", "164658.062000", "164658.062000", "164658.062000", "164658.078000", "164658.078000", "164658.078000", "164658.078000", "164658.078000", "164658.078000", "164658.093000", "164658.093000", "164658.093000", "164658.093000", "164658.093000", "164713.734000", "164713.734000", "164713.734000", "164713.734000", "164713.750000", "164713.750000", "164713.750000", "164713.750000", "164713.750000", "164713.750000", "164713.750000", "164713.765000", "164713.765000", "164713.765000", "164713.765000", "164713.765000", "164713.765000", "164713.781000", "164713.781000", "164713.781000"],
      "DataSetTrailingPadding": [
        "\u0000\u0000\u0000\u0000\u0000\u0000\u0000\u0000\u0000\u0000\u0000\u0000\u0000\u0000\u0000\u0000\u0000\u0000\u0000\u0000\u0000\u0000\u0000\u0000\u0000\u0000\u0000\u0000\u0000\u0000\u0000\u0000\u0000\u0000\u0000\u0000\u0000\u0000\u0000\u0000\u0000\u0000\u0000\u0000\u0000\u0000\u0000\u0000\u0000\u0000\u0000\u0000\u0000\u0000\u0000\u0000\u0000\u0000\u0000\u0000\u0000\u0000\u0000\u0000\u0000\u0000\u0000\u0000\u0000\u0000\u0000\u0000\u0000\u0000\u0000\u0000\u0000\u0000\u0000\u0000\u0000\u0000\u0000\u0000\u0000\u0000\u0000\u0000\u0000\u0000\u0000\u0000\u0000\u0000\u0000\u0000\u0000\u0000\u0000\u0000\u0000\u0000\u0000\u0000\u0000\u0000\u0000\u0000\u0000\u0000\u0000\u0000\u0000\u0000\u0000\u0000\u0000\u0000\u0000\u0000\u0000\u0000\u0000\u0000\u0000\u0000\u0000\u0000\u0000\u0000\u0000\u0000\u0000\u0000\u0000\u0000\u0000\u0000\u0000\u0000\u0000\u0000\u0000\u0000\u0000\u0000\u0000\u0000\u0000\u0000\u0000\u0000\u0000\u0000\u0000\u0000\u0000\u0000\u0000\u0000\u0000\u0000\u0000\u0000\u0000\u0000\u0000\u0000\u0000\u0000\u0000\u0000\u0000\u0000\u0000\u0000\u0000\u0000\u0000\u0000\u0000\u0000\u0000\u0000\u0000\u0000\u0000\u0000\u0000\u0000\u0000\u0000\u0000\u0000\u0000\u0000\u0000\u0000\u0000\u0000\u0000\u0000\u0000\u0000\u0000\u0000\u0000\u0000\u0000\u0000\u0000\u0000\u0000\u0000\u0000\u0000\u0000\u0000\u0000\u0000\u0000\u0000\u0000\u0000\u0000\u0000\u0000\u0000\u0000\u0000\u0000\u0000\u0000\u0000\u0000\u0000\u0000\u0000\u0000\u0000\u0000\u0000\u0000\u0000\u0000\u0000\u0000\u0000\u0000\u0000\u0000\u0000\u0000\u0000\u0000\u0000\u0000\u0000\u0000\u0000\u0000\u0000\u0000\u0000\u0000\u0000\u0000\u0000\u0000\u0000\u0000\u0000\u0000\u0000\u0000\u0000\u0000\u0000\u0000\u0000\u0000\u0000\u0000\u0000\u0000\u0000\u0000\u0000\u0000\u0000\u0000\u0000\u0000\u0000\u0000\u0000\u0000\u0000\u0000\u0000\u0000\u0000\u0000\u0000",
