{
  "AcquisitionMatrixPE": 104,
  "AcquisitionNumber": 1,
  "AcquisitionTime": "15:44:59.515000",
  "BandwidthPerPixelPhaseEncode": 13.935,
  "BaseResolution": 104,
  "CoilString": "C:HEA;HEP",
  "ConversionSoftware": "dcm2niix",
  "ConversionSoftwareVersion": "v1.0.20210317",
  "DerivedVendorReportedEchoSpacing": 0.000690017,
  "DeviceSerialNumber": "35450",
  "DwellTime": 2.5e-06,
  "EchoTime": 0.0348,
  "EffectiveEchoSpacing": 0.000690017,
  "FlipAngle": 55,
  "ImageComments": "Unaliased MB8/PE3 (remote)",
  "ImageOrientationPatientDICOM": [1, 0, 0, 0, 1, 0],
  "ImageType": [
    "ORIGINAL",
    "PRIMARY",
    "M",
    "MB",
    "ND",
    "MOSAIC"
],
  "ImagingFrequency": 123.234,
  "InPlanePhaseEncodingDirectionDICOM": "COL",
  "InstitutionAddress": "Univeristy Ave. 197,Newark,North East,US,07102-1814",
  "InstitutionName": "RUBIC",
  "InstitutionalDepartmentName": "Department",
  "MRAcquisitionType": "2D",
  "MagneticFieldStrength": 3,
  "Manufacturer": "Siemens",
  "ManufacturersModelName": "TrioTim",
  "Modality": "MR",
  "MultibandAccelerationFactor": 8,
  "PartialFourier": 0.875,
  "PatientPosition": "HFS",
  "PercentPhaseFOV": 100,
  "PercentSampling": 100,
  "PhaseEncodingDirection": "j-",
  "PhaseEncodingSteps": 91,
  "PhaseResolution": 1,
  "PixelBandwidth": 1923,
  "ProcedureStepDescription": "Cole^Michael",
  "ProtocolName": "cmrr_mbep2d_bold_2mm_MB8_Rest",
  "PulseSequenceDetails": "%CustomerSeq%\\cmrr_mbep2d_bold",
  "ReceiveCoilName": "32Ch_Head",
  "ReconMatrixPE": 104,
  "RepetitionTime": 0.785,
  "SAR": 0.138153,
  "ScanOptions": "PFP\\FS",
  "ScanningSequence": "EP",
  "SequenceName": "epfid2d1_104",
  "SequenceVariant": "SK\\SS",
  "SeriesDescription": "cmrr_mbep2d_bold_2mm_MB8_Rest",
  "SeriesNumber": 9,
  "ShimSetting": [2091, -483, -7219, 650, -117, -272, 261, 16],
  "SliceThickness": 2,
  "SliceTiming": [0, 0.4375, 0.0875, 0.525, 0.175, 0.6125, 0.2625, 0.7, 0.35, 0, 0.4375, 0.0875, 0.525, 0.175, 0.6125, 0.2625, 0.7, 0.35, 0, 0.4375, 0.0875, 0.525, 0.175, 0.6125, 0.2625, 0.7, 0.35, 0, 0.4375, 0.0875, 0.525, 0.175, 0.6125, 0.2625, 0.7, 0.35, 0, 0.4375, 0.0875, 0.525, 0.175, 0.6125, 0.2625, 0.7, 0.35, 0, 0.4375, 0.0875, 0.525, 0.175, 0.6125, 0.2625, 0.7, 0.35, 0, 0.4375, 0.0875, 0.525, 0.175, 0.6125, 0.2625, 0.7, 0.35, 0, 0.4375, 0.0875, 0.525, 0.175, 0.6125, 0.2625, 0.7, 0.35],
  "SoftwareVersions": "syngo MR B19",
  "SpacingBetweenSlices": 2,
  "StationName": "MRC35450",
  "TaskName": "rest",
  "TotalReadoutTime": 0.0710717,
  "TxRefAmp": 321.099,
  "dcmmeta_affine": [
    [-2.0, 0.0, 0.0, 104.0],
    [0.0, 2.0, 0.0, -97.93220520019531],
    [0.0, 0.0, 2.0, -71.0],
    [0.0, 0.0, 0.0, 1.0]
],
  "dcmmeta_reorient_transform": [
    [0.0, -1.0, 0.0, 103.0],
    [1.0, 0.0, 0.0, 0.0],
    [0.0, 0.0, 1.0, 0.0],
    [0.0, 0.0, 0.0, 1.0]
],
  "dcmmeta_shape": [104, 104, 72, 1070],
  "dcmmeta_slice_dim": 2,
  "dcmmeta_version": 0.6,
  "global": {
    "const": {
      "AcquisitionMatrix": [104, 0, 0, 104],
      "AngioFlag": "N",
      "BitsAllocated": 16,
      "BitsStored": 12,
      "Columns": 936,
      "EchoNumbers": 1,
      "EchoTime": 34.8,
      "EchoTrainLength": 1,
      "FlipAngle": 55.0,
      "HighBit": 11,
      "ImageOrientationPatient": [1.0, 0.0, 0.0, 0.0, 1.0, 0.0],
      "ImagePositionPatient": [-936.00000000083, -940.06779670715, -71.0],
      "ImageType": [
        "ORIGINAL",
        "PRIMARY",
        "M",
        "MB",
        "ND",
        "MOSAIC"
],
      "ImagedNucleus": "1H",
      "ImagingFrequency": 123.23428,
      "InPlanePhaseEncodingDirection": "COL",
      "MRAcquisitionType": "2D",
      "MagneticFieldStrength": 3.0,
      "Manufacturer": "SIEMENS",
      "ManufacturerModelName": "TrioTim",
      "Modality": "MR",
      "NumberOfAverages": 1.0,
      "NumberOfPhaseEncodingSteps": 91,
      "PercentPhaseFieldOfView": 100.0,
      "PercentSampling": 100.0,
      "PerformedProcedureStepStartTime": "145053.578000",
      "PhotometricInterpretation": "MONOCHROME2",
      "PixelBandwidth": 1923.0,
      "PixelRepresentation": 0,
      "PixelSpacing": [2.0, 2.0],
      "ProtocolName": "cmrr_mbep2d_bold_2mm_MB8_Rest",
      "RepetitionTime": 785.0,
      "Rows": 936,
      "SAR": 0.13815333236574,
      "SamplesPerPixel": 1,
      "ScanOptions": [
        "PFP",
        "FS"
],
      "ScanningSequence": "EP",
      "SequenceName": "epfid2d1_104",
      "SequenceVariant": [
        "SK",
        "SS"
],
      "SeriesDescription": "cmrr_mbep2d_bold_2mm_MB8_Rest",
      "SeriesNumber": 9,
      "SeriesTime": "154518.062000",
      "SliceLocation": -71.0,
      "SliceThickness": 2.0,
      "SmallestImagePixelValue": 0,
      "SoftwareVersions": "syngo MR B19",
      "SpacingBetweenSlices": 2.0,
      "SpecificCharacterSet": "ISO_IR 100",
      "StudyID": "1",
      "StudyTime": "145053.546000",
      "TransmitCoilName": "Body",
      "VariableFlipAngleFlag": "N",
      "WindowCenterWidthExplanation": "Algo1",
      "dBdt": 0.0},
    "slices": {}
  },
  "time": {
    "samples": {
      "AcquisitionNumber": [1, 2, 3, 4, 5, 6, 7, 8, 9, 10, 11, 12, 13, 14, 15, 16, 17, 18, 19, 20, 21, 22, 23, 24, 25, 26, 27, 28, 29, 30, 31, 32, 33, 34, 35, 36, 37, 38, 39, 40, 41, 42, 43, 44, 45, 46, 47, 48, 49, 50, 51, 52, 53, 54, 55, 56, 57, 58, 59, 60, 61, 62, 63, 64, 65, 66, 67, 68, 69, 70, 71, 72, 73, 74, 75, 76, 77, 78, 79, 80, 81, 82, 83, 84, 85, 86, 87, 88, 89, 90, 91, 92, 93, 94, 95, 96, 97, 98, 99, 100, 101, 102, 103, 104, 105, 106, 107, 108, 109, 110, 111, 112, 113, 114, 115, 116, 117, 118, 119, 120, 121, 122, 123, 124, 125, 126, 127, 128, 129, 130, 131, 132, 133, 134, 135, 136, 137, 138, 139, 140, 141, 142, 143, 144, 145, 146, 147, 148, 149, 150, 151, 152, 153, 154, 155, 156, 157, 158, 159, 160, 161, 162, 163, 164, 165, 166, 167, 168, 169, 170, 171, 172, 173, 174, 175, 176, 177, 178, 179, 180, 181, 182, 183, 184, 185, 186, 187, 188, 189, 190, 191, 192, 193, 194, 195, 196, 197, 198, 199, 200, 201, 202, 203, 204, 205, 206, 207, 208, 209, 210, 211, 212, 213, 214, 215, 216, 217, 218, 219, 220, 221, 222, 223, 224, 225, 226, 227, 228, 229, 230, 231, 232, 233, 234, 235, 236, 237, 238, 239, 240, 241, 242, 243, 244, 245, 246, 247, 248, 249, 250, 251, 252, 253, 254, 255, 256, 257, 258, 259, 260, 261, 262, 263, 264, 265, 266, 267, 268, 269, 270, 271, 272, 273, 274, 275, 276, 277, 278, 279, 280, 281, 282, 283, 284, 285, 286, 287, 288, 289, 290, 291, 292, 293, 294, 295, 296, 297, 298, 299, 300, 301, 302, 303, 304, 305, 306, 307, 308, 309, 310, 311, 312, 313, 314, 315, 316, 317, 318, 319, 320, 321, 322, 323, 324, 325, 326, 327, 328, 329, 330, 331, 332, 333, 334, 335, 336, 337, 338, 339, 340, 341, 342, 343, 344, 345, 346, 347, 348, 349, 350, 351, 352, 353, 354, 355, 356, 357, 358, 359, 360, 361, 362, 363, 364, 365, 366, 367, 368, 369, 370, 371, 372, 373, 374, 375, 376, 377, 378, 379, 380, 381, 382, 383, 384, 385, 386, 387, 388, 389, 390, 391, 392, 393, 394, 395, 396, 397, 398, 399, 400, 401, 402, 403, 404, 405, 406, 407, 408, 409, 410, 411, 412, 413, 414, 415, 416, 417, 418, 419, 420, 421, 422, 423, 424, 425, 426, 427, 428, 429, 430, 431, 432, 433, 434, 435, 436, 437, 438, 439, 440, 441, 442, 443, 444, 445, 446, 447, 448, 449, 450, 451, 452, 453, 454, 455, 456, 457, 458, 459, 460, 461, 462, 463, 464, 465, 466, 467, 468, 469, 470, 471, 472, 473, 474, 475, 476, 477, 478, 479, 480, 481, 482, 483, 484, 485, 486, 487, 488, 489, 490, 491, 492, 493, 494, 495, 496, 497, 498, 499, 500, 501, 502, 503, 504, 505, 506, 507, 508, 509, 510, 511, 512, 513, 514, 515, 516, 517, 518, 519, 520, 521, 522, 523, 524, 525, 526, 527, 528, 529, 530, 531, 532, 533, 534, 535, 536, 537, 538, 539, 540, 541, 542, 543, 544, 545, 546, 547, 548, 549, 550, 551, 552, 553, 554, 555, 556, 557, 558, 559, 560, 561, 562, 563, 564, 565, 566, 567, 568, 569, 570, 571, 572, 573, 574, 575, 576, 577, 578, 579, 580, 581, 582, 583, 584, 585, 586, 587, 588, 589, 590, 591, 592, 593, 594, 595, 596, 597, 598, 599, 600, 601, 602, 603, 604, 605, 606, 607, 608, 609, 610, 611, 612, 613, 614, 615, 616, 617, 618, 619, 620, 621, 622, 623, 624, 625, 626, 627, 628, 629, 630, 631, 632, 633, 634, 635, 636, 637, 638, 639, 640, 641, 642, 643, 644, 645, 646, 647, 648, 649, 650, 651, 652, 653, 654, 655, 656, 657, 658, 659, 660, 661, 662, 663, 664, 665, 666, 667, 668, 669, 670, 671, 672, 673, 674, 675, 676, 677, 678, 679, 680, 681, 682, 683, 684, 685, 686, 687, 688, 689, 690, 691, 692, 693, 694, 695, 696, 697, 698, 699, 700, 701, 702, 703, 704, 705, 706, 707, 708, 709, 710, 711, 712, 713, 714, 715, 716, 717, 718, 719, 720, 721, 722, 723, 724, 725, 726, 727, 728, 729, 730, 731, 732, 733, 734, 735, 736, 737, 738, 739, 740, 741, 742, 743, 744, 745, 746, 747, 748, 749, 750, 751, 752, 753, 754, 755, 756, 757, 758, 759, 760, 761, 762, 763, 764, 765, 766, 767, 768, 769, 770, 771, 772, 773, 774, 775, 776, 777, 778, 779, 780, 781, 782, 783, 784, 785, 786, 787, 788, 789, 790, 791, 792, 793, 794, 795, 796, 797, 798, 799, 800, 801, 802, 803, 804, 805, 806, 807, 808, 809, 810, 811, 812, 813, 814, 815, 816, 817, 818, 819, 820, 821, 822, 823, 824, 825, 826, 827, 828, 829, 830, 831, 832, 833, 834, 835, 836, 837, 838, 839, 840, 841, 842, 843, 844, 845, 846, 847, 848, 849, 850, 851, 852, 853, 854, 855, 856, 857, 858, 859, 860, 861, 862, 863, 864, 865, 866, 867, 868, 869, 870, 871, 872, 873, 874, 875, 876, 877, 878, 879, 880, 881, 882, 883, 884, 885, 886, 887, 888, 889, 890, 891, 892, 893, 894, 895, 896, 897, 898, 899, 900, 901, 902, 903, 904, 905, 906, 907, 908, 909, 910, 911, 912, 913, 914, 915, 916, 917, 918, 919, 920, 921, 922, 923, 924, 925, 926, 927, 928, 929, 930, 931, 932, 933, 934, 935, 936, 937, 938, 939, 940, 941, 942, 943, 944, 945, 946, 947, 948, 949, 950, 951, 952, 953, 954, 955, 956, 957, 958, 959, 960, 961, 962, 963, 964, 965, 966, 967, 968, 969, 970, 971, 972, 973, 974, 975, 976, 977, 978, 979, 980, 981, 982, 983, 984, 985, 986, 987, 988, 989, 990, 991, 992, 993, 994, 995, 996, 997, 998, 999, 1000, 1001, 1002, 1003, 1004, 1005, 1006, 1007, 1008, 1009, 1010, 1011, 1012, 1013, 1014, 1015, 1016, 1017, 1018, 1019, 1020, 1021, 1022, 1023, 1024, 1025, 1026, 1027, 1028, 1029, 1030, 1031, 1032, 1033, 1034, 1035, 1036, 1037, 1038, 1039, 1040, 1041, 1042, 1043, 1044, 1045, 1046, 1047, 1048, 1049, 1050, 1051, 1052, 1053, 1054, 1055, 1056, 1057, 1058, 1059, 1060, 1061, 1062, 1063, 1064, 1065, 1066, 1067, 1068, 1069, 1070],
      "AcquisitionTime": ["154459.515000", "154500.302500", "154501.090000", "154501.877500", "154502.667500", "154503.455000", "154504.242500", "154505.030000", "154505.820000", "154506.607500", "154507.395000", "154508.182500", "154508.972500", "154509.760000", "154510.547500", "154511.335000", "154512.125000", "154512.912500", "154513.700000", "154514.490000", "154515.277500", "154516.065000", "154516.852500", "154517.642500", "154518.430000", "154519.217500", "154520.005000", "154520.795000", "154521.582500", "154522.370000", "154523.157500", "154523.947500", "154524.735000", "154525.522500", "154526.310000", "154527.100000", "154527.887500", "154528.675000", "154529.462500", "154530.252500", "154531.040000", "154531.827500", "154532.617500", "154533.405000", "154534.192500", "154534.980000", "154535.770000", "154536.557500", "154537.345000", "154538.132500", "154538.922500", "154539.710000", "154540.497500", "154541.285000", "154542.075000", "154542.862500", "154543.650000", "154544.437500", "154545.227500", "154546.015000", "154546.802500", "154547.590000", "154548.380000", "154549.167500", "154549.955000", "154550.745000", "154551.532500", "154552.320000", "154553.107500", "154553.897500", "154554.685000", "154555.472500", "154556.260000", "154557.050000", "154557.837500", "154558.625000", "154559.412500", "154600.202500", "154600.990000", "154601.777500", "154602.565000", "154603.355000", "154604.142500", "154604.930000", "154605.717500", "154606.507500", "154607.295000", "154608.082500", "154608.872500", "154609.660000", "154610.447500", "154611.235000", "154612.025000", "154612.812500", "154613.600000", "154614.387500", "154615.177500", "154615.965000", "154616.752500", "154617.540000", "154618.330000", "154619.117500", "154619.905000", "154620.692500", "154621.482500", "154622.270000", "154623.057500", "154623.847500", "154624.635000", "154625.422500", "154626.210000", "154627.000000", "154627.787500", "154628.575000", "154629.362500", "154630.152500", "154630.940000", "154631.727500", "154632.515000", "154633.305000", "154634.092500", "154634.880000", "154635.667500", "154636.457500", "154637.245000", "154638.032500", "154638.820000", "154639.610000", "154640.397500", "154641.185000", "154641.975000", "154642.762500", "154643.550000", "154644.337500", "154645.127500", "154645.915000", "154646.702500", "154647.490000", "154648.280000", "154649.067500", "154649.855000", "154650.642500", "154651.432500", "154652.220000", "154653.007500", "154653.795000", "154654.585000", "154655.372500", "154656.160000", "154656.947500", "154657.737500", "154658.525000", "154659.312500", "154700.102500", "154700.890000", "154701.677500", "154702.465000", "154703.255000", "154704.042500", "154704.830000", "154705.617500", "154706.407500", "154707.195000", "154707.982500", "154708.770000", "154709.560000", "154710.347500", "154711.135000", "154711.922500", "154712.712500", "154713.500000", "154714.287500", "154715.075000", "154715.865000", "154716.652500", "154717.440000", "154718.230000", "154719.017500", "154719.805000", "154720.592500", "154721.382500", "154722.170000", "154722.957500", "154723.745000", "154724.535000", "154725.322500", "154726.110000", "154726.897500", "154727.687500", "154728.475000", "154729.262500", "154730.050000", "154730.840000", "154731.627500", "154732.415000", "154733.202500", "154733.992500", "154734.780000", "154735.567500", "154736.357500", "154737.145000", "154737.932500", "154738.720000", "154739.510000", "154740.297500", "154741.085000", "154741.872500", "154742.662500", "154743.450000", "154744.237500", "154745.025000", "154745.815000", "154746.602500", "154747.390000", "154748.177500", "154748.967500", "154749.755000", "154750.542500", "154751.330000", "154752.120000", "154752.907500", "154753.695000", "154754.485000", "154755.272500", "154756.060000", "154756.847500", "154757.637500", "154758.425000", "154759.212500", "154800.000000", "154800.790000", "154801.577500", "154802.365000", "154803.152500", "154803.942500", "154804.730000", "154805.517500", "154806.305000", "154807.095000", "154807.882500", "154808.670000", "154809.457500", "154810.247500", "154811.035000", "154811.822500", "154812.612500", "154813.400000", "154814.187500", "154814.975000", "154815.765000", "154816.552500", "154817.340000", "154818.127500", "154818.917500", "154819.705000", "154820.492500", "154821.280000", "154822.070000", "154822.857500", "154823.645000", "154824.432500", "154825.222500", "154826.010000", "154826.797500", "154827.585000", "154828.375000", "154829.162500", "154829.950000", "154830.740000", "154831.527500", "154832.315000", "154833.102500", "154833.892500", "154834.680000", "154835.467500", "154836.255000", "154837.045000", "154837.832500", "154838.620000", "154839.407500", "154840.197500", "154840.985000", "154841.772500", "154842.560000", "154843.350000", "154844.137500", "154844.925000", "154845.712500", "154846.502500", "154847.290000", "154848.077500", "154848.867500", "154849.655000", "154850.442500", "154851.230000", "154852.020000", "154852.807500", "154853.595000", "154854.382500", "154855.172500", "154855.960000", "154856.747500", "154857.535000", "154858.325000", "154859.112500", "154859.900000", "154900.687500", "154901.477500", "154902.265000", "154903.052500", "154903.840000", "154904.630000", "154905.417500", "154906.205000", "154906.995000", "154907.782500", "154908.570000", "154909.357500", "154910.147500", "154910.935000", "154911.722500", "154912.510000", "154913.300000", "154914.087500", "154914.875000", "154915.662500", "154916.452500", "154917.240000", "154918.027500", "154918.815000", "154919.605000", "154920.392500", "154921.180000", "154921.967500", "154922.757500", "154923.545000", "154924.332500", "154925.122500", "154925.910000", "154926.697500", "154927.485000", "154928.275000", "154929.062500", "154929.850000", "154930.637500", "154931.427500", "154932.215000", "154933.002500", "154933.790000", "154934.580000", "154935.367500", "154936.155000", "154936.942500", "154937.732500", "154938.520000", "154939.307500", "154940.097500", "154940.885000", "154941.672500", "154942.460000", "154943.250000", "154944.037500", "154944.825000", "154945.612500", "154946.402500", "154947.190000", "154947.977500", "154948.765000", "154949.555000", "154950.342500", "154951.130000", "154951.917500", "154952.707500", "154953.495000", "154954.282500", "154955.070000", "154955.860000", "154956.647500", "154957.435000", "154958.225000", "154959.012500", "154959.800000", "155000.587500", "155001.377500", "155002.165000", "155002.952500", "155003.740000", "155004.530000", "155005.317500", "155006.105000", "155006.892500", "155007.682500", "155008.470000", "155009.257500", "155010.045000", "155010.835000", "155011.622500", "155012.410000", "155013.197500", "155013.987500", "155014.775000", "155015.562500", "155016.352500", "155017.140000", "155017.927500", "155018.715000", "155019.505000", "155020.292500", "155021.080000", "155021.867500", "155022.657500", "155023.445000", "155024.232500", "155025.020000", "155025.810000", "155026.597500", "155027.385000", "155028.172500", "155028.962500", "155029.750000", "155030.537500", "155031.325000", "155032.115000", "155032.902500", "155033.690000", "155034.480000", "155035.267500", "155036.055000", "155036.842500", "155037.632500", "155038.420000", "155039.207500", "155039.995000", "155040.785000", "155041.572500", "155042.360000", "155043.147500", "155043.937500", "155044.725000", "155045.512500", "155046.300000", "155047.090000", "155047.877500", "155048.665000", "155049.452500", "155050.242500", "155051.030000", "155051.817500", "155052.607500", "155053.395000", "155054.182500", "155054.970000", "155055.760000", "155056.547500", "155057.335000", "155058.122500", "155058.912500", "155059.700000", "155100.487500", "155101.275000", "155102.065000", "155102.852500", "155103.640000", "155104.427500", "155105.217500", "155106.005000", "155106.792500", "155107.580000", "155108.370000", "155109.157500", "155109.945000", "155110.735000", "155111.522500", "155112.310000", "155113.097500", "155113.887500", "155114.675000", "155115.462500", "155116.250000", "155117.040000", "155117.827500", "155118.615000", "155119.402500", "155120.192500", "155120.980000", "155121.767500", "155122.555000", "155123.345000", "155124.132500", "155124.920000", "155125.707500", "155126.497500", "155127.285000", "155128.072500", "155128.862500", "155129.650000", "155130.437500", "155131.225000", "155132.015000", "155132.802500", "155133.590000", "155134.377500", "155135.167500", "155135.955000", "155136.742500", "155137.530000", "155138.320000", "155139.107500", "155139.895000", "155140.682500", "155141.472500", "155142.260000", "155143.047500", "155143.835000", "155144.625000", "155145.412500", "155146.200000", "155146.990000", "155147.777500", "155148.565000", "155149.352500", "155150.142500", "155150.930000", "155151.717500", "155152.505000", "155153.295000", "155154.082500", "155154.870000", "155155.657500", "155156.447500", "155157.235000", "155158.022500", "155158.810000", "155159.600000", "155200.387500", "155201.175000", "155201.962500", "155202.752500", "155203.540000", "155204.327500", "155205.117500", "155205.905000", "155206.692500", "155207.480000", "155208.270000", "155209.057500", "155209.845000", "155210.632500", "155211.422500", "155212.210000", "155212.997500", "155213.785000", "155214.575000", "155215.362500", "155216.150000", "155216.937500", "155217.727500", "155218.515000", "155219.302500", "155220.090000", "155220.880000", "155221.667500", "155222.455000", "155223.245000", "155224.032500", "155224.820000", "155225.607500", "155226.397500", "155227.185000", "155227.972500", "155228.760000", "155229.550000", "155230.337500", "155231.125000", "155231.912500", "155232.702500", "155233.490000", "155234.277500", "155235.065000", "155235.855000", "155236.642500", "155237.430000", "155238.217500", "155239.007500", "155239.795000", "155240.582500", "155241.372500", "155242.160000", "155242.947500", "155243.735000", "155244.525000", "155245.312500", "155246.100000", "155246.887500", "155247.677500", "155248.465000", "155249.252500", "155250.040000", "155250.830000", "155251.617500", "155252.405000", "155253.192500", "155253.982500", "155254.770000", "155255.557500", "155256.347500", "155257.135000", "155257.922500", "155258.710000", "155259.500000", "155300.287500", "155301.075000", "155301.862500", "155302.652500", "155303.440000", "155304.227500", "155305.015000", "155305.805000", "155306.592500", "155307.380000", "155308.167500", "155308.957500", "155309.745000", "155310.532500", "155311.320000", "155312.110000", "155312.897500", "155313.685000", "155314.475000", "155315.262500", "155316.050000", "155316.837500", "155317.627500", "155318.415000", "155319.202500", "155319.990000", "155320.780000", "155321.567500", "155322.355000", "155323.142500", "155323.932500", "155324.720000", "155325.507500", "155326.295000", "155327.085000", "155327.872500", "155328.660000", "155329.447500", "155330.237500", "155331.025000", "155331.812500", "155332.602500", "155333.390000", "155334.177500", "155334.965000", "155335.755000", "155336.542500", "155337.330000", "155338.117500", "155338.907500", "155339.695000", "155340.482500", "155341.270000", "155342.060000", "155342.847500", "155343.635000", "155344.422500", "155345.212500", "155346.000000", "155346.787500", "155347.575000", "155348.365000", "155349.152500", "155349.940000", "155350.730000", "155351.517500", "155352.305000", "155353.092500", "155353.882500", "155354.670000", "155355.457500", "155356.245000", "155357.035000", "155357.822500", "155358.610000", "155359.397500", "155400.187500", "155400.975000", "155401.762500", "155402.550000", "155403.340000", "155404.127500", "155404.915000", "155405.702500", "155406.492500", "155407.280000", "155408.067500", "155408.857500", "155409.645000", "155410.432500", "155411.220000", "155412.010000", "155412.797500", "155413.585000", "155414.372500", "155415.162500", "155415.950000", "155416.737500", "155417.525000", "155418.315000", "155419.102500", "155419.890000", "155420.677500", "155421.467500", "155422.255000", "155423.042500", "155423.830000", "155424.620000", "155425.407500", "155426.195000", "155426.985000", "155427.772500", "155428.560000", "155429.347500", "155430.137500", "155430.925000", "155431.712500", "155432.500000", "155433.290000", "155434.077500", "155434.865000", "155435.652500", "155436.442500", "155437.230000", "155438.017500", "155438.805000", "155439.595000", "155440.382500", "155441.170000", "155441.957500", "155442.747500", "155443.535000", "155444.322500", "155445.112500", "155445.900000", "155446.687500", "155447.475000", "155448.265000", "155449.052500", "155449.840000", "155450.627500", "155451.417500", "155452.205000", "155452.992500", "155453.780000", "155454.570000", "155455.357500", "155456.145000", "155456.932500", "155457.722500", "155458.510000", "155459.297500", "155500.085000", "155500.875000", "155501.662500", "155502.450000", "155503.240000", "155504.027500", "155504.815000", "155505.602500", "155506.392500", "155507.180000", "155507.967500", "155508.755000", "155509.545000", "155510.332500", "155511.120000", "155511.907500", "155512.697500", "155513.485000", "155514.272500", "155515.060000", "155515.850000", "155516.637500", "155517.425000", "155518.212500", "155519.002500", "155519.790000", "155520.577500", "155521.367500", "155522.155000", "155522.942500", "155523.730000", "155524.520000", "155525.307500", "155526.095000", "155526.882500", "155527.672500", "155528.460000", "155529.247500", "155530.035000", "155530.825000", "155531.612500", "155532.400000", "155533.187500", "155533.977500", "155534.765000", "155535.552500", "155536.340000", "155537.130000", "155537.917500", "155538.705000", "155539.495000", "155540.282500", "155541.070000", "155541.857500", "155542.647500", "155543.435000", "155544.222500", "155545.010000", "155545.800000", "155546.587500", "155547.375000", "155548.162500", "155548.952500", "155549.740000", "155550.527500", "155551.315000", "155552.105000", "155552.892500", "155553.680000", "155554.467500", "155555.257500", "155556.045000", "155556.832500", "155557.622500", "155558.410000", "155559.197500", "155559.985000", "155600.775000", "155601.562500", "155602.350000", "155603.137500", "155603.927500", "155604.715000", "155605.502500", "155606.290000", "155607.080000", "155607.867500", "155608.655000", "155609.442500", "155610.232500", "155611.020000", "155611.807500", "155612.597500", "155613.385000", "155614.172500", "155614.960000", "155615.750000", "155616.537500", "155617.325000", "155618.112500", "155618.902500", "155619.690000", "155620.477500", "155621.265000", "155622.055000", "155622.842500", "155623.630000", "155624.417500", "155625.207500", "155625.995000", "155626.782500", "155627.570000", "155628.360000", "155629.147500", "155629.935000", "155630.725000", "155631.512500", "155632.300000", "155633.087500", "155633.877500", "155634.665000", "155635.452500", "155636.240000", "155637.030000", "155637.817500", "155638.605000", "155639.392500", "155640.182500", "155640.970000", "155641.757500", "155642.545000", "155643.335000", "155644.122500", "155644.910000", "155645.697500", "155646.487500", "155647.275000", "155648.062500", "155648.852500", "155649.640000", "155650.427500", "155651.215000", "155652.005000", "155652.792500", "155653.580000", "155654.367500", "155655.157500", "155655.945000", "155656.732500", "155657.520000", "155658.310000", "155659.097500", "155659.885000", "155700.672500", "155701.462500", "155702.250000", "155703.037500", "155703.825000", "155704.615000", "155705.402500", "155706.190000", "155706.980000", "155707.767500", "155708.555000", "155709.342500", "155710.132500", "155710.920000", "155711.707500", "155712.495000", "155713.285000", "155714.072500", "155714.860000", "155715.647500", "155716.437500", "155717.225000", "155718.012500", "155718.800000", "155719.590000", "155720.377500", "155721.165000", "155721.952500", "155722.742500", "155723.530000", "155724.317500", "155725.107500", "155725.895000", "155726.682500", "155727.470000", "155728.260000", "155729.047500", "155729.835000", "155730.622500", "155731.412500", "155732.200000", "155732.987500", "155733.775000", "155734.565000", "155735.352500", "155736.140000", "155736.927500", "155737.717500", "155738.505000", "155739.292500", "155740.080000", "155740.870000", "155741.657500", "155742.445000", "155743.235000", "155744.022500", "155744.810000", "155745.597500", "155746.387500", "155747.175000", "155747.962500", "155748.750000", "155749.540000", "155750.327500", "155751.115000", "155751.902500", "155752.692500", "155753.480000", "155754.267500", "155755.055000", "155755.845000", "155756.632500", "155757.420000", "155758.207500", "155758.997500", "155759.785000", "155800.572500", "155801.362500", "155802.150000", "155802.937500", "155803.725000", "155804.515000", "155805.302500", "155806.090000", "155806.877500", "155807.667500", "155808.455000", "155809.242500", "155810.030000", "155810.820000", "155811.607500", "155812.395000", "155813.182500", "155813.972500", "155814.760000", "155815.547500", "155816.335000", "155817.125000", "155817.912500", "155818.700000", "155819.490000", "155820.277500", "155821.065000", "155821.852500", "155822.642500", "155823.430000", "155824.217500", "155825.005000", "155825.795000", "155826.582500", "155827.370000", "155828.157500", "155828.947500", "155829.735000", "155830.522500", "155831.310000", "155832.100000", "155832.887500", "155833.675000", "155834.462500", "155835.252500", "155836.040000", "155836.827500", "155837.617500", "155838.405000", "155839.192500", "155839.980000", "155840.770000", "155841.557500", "155842.345000", "155843.132500", "155843.922500", "155844.710000", "155845.497500", "155846.285000", "155847.075000", "155847.862500", "155848.650000", "155849.437500", "155850.227500", "155851.015000", "155851.802500", "155852.590000", "155853.380000", "155854.167500", "155854.955000", "155855.745000", "155856.532500", "155857.320000", "155858.107500", "155858.897500", "155859.685000", "155900.472500", "155901.260000", "155902.050000"],
