{
  "AcquisitionMatrixPE": 104,
  "AcquisitionNumber": 1,
  "AcquisitionTime": "16:31:35.715000",
  "BandwidthPerPixelPhaseEncode": 13.935,
  "BaseResolution": 104,
  "CoilString": "C:HEA;HEP",
  "ConversionSoftware": "dcm2niix",
  "ConversionSoftwareVersion": "v1.0.20210317",
  "DerivedVendorReportedEchoSpacing": 0.000690017,
  "DeviceSerialNumber": "35450",
  "DwellTime": 2.5e-06,
  "EchoTime": 0.0348,
  "EffectiveEchoSpacing": 0.000690017,
  "FlipAngle": 55,
  "ImageComments": "Unaliased MB8/PE3 (remote)",
  "ImageOrientationPatientDICOM": [1, 0, 0, 0, 1, 0],
  "ImageType": [
    "ORIGINAL",
    "PRIMARY",
    "M",
    "MB",
    "ND",
    "MOSAIC"
],
  "ImagingFrequency": 123.234,
  "InPlanePhaseEncodingDirectionDICOM": "COL",
  "InstitutionAddress": "Univeristy Ave. 197,Newark,North East,US,07102-1814",
  "InstitutionName": "RUBIC",
  "InstitutionalDepartmentName": "Department",
  "MRAcquisitionType": "2D",
  "MagneticFieldStrength": 3,
  "Manufacturer": "Siemens",
  "ManufacturersModelName": "TrioTim",
  "Modality": "MR",
  "MultibandAccelerationFactor": 8,
  "PartialFourier": 0.875,
  "PatientPosition": "HFS",
  "PercentPhaseFOV": 100,
  "PercentSampling": 100,
  "PhaseEncodingDirection": "j-",
  "PhaseEncodingSteps": 91,
  "PhaseResolution": 1,
  "PixelBandwidth": 1923,
  "ProcedureStepDescription": "Cole^Michael",
  "ProtocolName": "cmrr_mbep2d_bold_2mm_MB8_Task_8x",
  "PulseSequenceDetails": "%CustomerSeq%\\cmrr_mbep2d_bold",
  "ReceiveCoilName": "32Ch_Head",
  "ReconMatrixPE": 104,
  "RepetitionTime": 0.785,
  "SAR": 0.122193,
  "ScanOptions": "PFP\\FS",
  "ScanningSequence": "EP",
  "SequenceName": "epfid2d1_104",
  "SequenceVariant": "SK\\SS",
  "SeriesDescription": "cmrr_mbep2d_bold_2mm_MB8_Task_8x",
  "SeriesNumber": 19,
  "ShimSetting": [2091, -483, -7219, 650, -117, -272, 261, 16],
  "SliceThickness": 2,
  "SliceTiming": [0, 0.4375, 0.0875, 0.525, 0.175, 0.6125, 0.2625, 0.7, 0.35, 0, 0.4375, 0.0875, 0.525, 0.175, 0.6125, 0.2625, 0.7, 0.35, 0, 0.4375, 0.0875, 0.525, 0.175, 0.6125, 0.2625, 0.7, 0.35, 0, 0.4375, 0.0875, 0.525, 0.175, 0.6125, 0.2625, 0.7, 0.35, 0, 0.4375, 0.0875, 0.525, 0.175, 0.6125, 0.2625, 0.7, 0.35, 0, 0.4375, 0.0875, 0.525, 0.175, 0.6125, 0.2625, 0.7, 0.35, 0, 0.4375, 0.0875, 0.525, 0.175, 0.6125, 0.2625, 0.7, 0.35, 0, 0.4375, 0.0875, 0.525, 0.175, 0.6125, 0.2625, 0.7, 0.35],
  "SoftwareVersions": "syngo MR B19",
  "SpacingBetweenSlices": 2,
  "StationName": "MRC35450",
  "TaskName": "cpro",
  "TotalReadoutTime": 0.0710717,
  "TxRefAmp": 321.099,
  "dcmmeta_affine": [
    [-2.0, 0.0, 0.0, 104.0],
    [0.0, 2.0, 0.0, -97.93220520019531],
    [0.0, 0.0, 2.0, -71.0],
    [0.0, 0.0, 0.0, 1.0]
],
  "dcmmeta_reorient_transform": [
    [0.0, -1.0, 0.0, 103.0],
    [1.0, 0.0, 0.0, 0.0],
    [0.0, 0.0, 1.0, 0.0],
    [0.0, 0.0, 0.0, 1.0]
],
  "dcmmeta_shape": [104, 104, 72, 581],
  "dcmmeta_slice_dim": 2,
  "dcmmeta_version": 0.6,
  "global": {
    "const": {
      "AcquisitionMatrix": [104, 0, 0, 104],
      "AngioFlag": "N",
      "BitsAllocated": 16,
      "BitsStored": 12,
      "Columns": 936,
      "EchoNumbers": 1,
      "EchoTime": 34.8,
      "EchoTrainLength": 1,
      "FlipAngle": 55.0,
      "HighBit": 11,
      "ImageOrientationPatient": [1.0, 0.0, 0.0, 0.0, 1.0, 0.0],
      "ImagePositionPatient": [-936.00000000083, -940.06779670715, -71.0],
      "ImageType": [
        "ORIGINAL",
        "PRIMARY",
        "M",
        "MB",
        "ND",
        "MOSAIC"
],
      "ImagedNucleus": "1H",
      "ImagingFrequency": 123.234352,
      "InPlanePhaseEncodingDirection": "COL",
      "MRAcquisitionType": "2D",
      "MagneticFieldStrength": 3.0,
      "Manufacturer": "SIEMENS",
      "ManufacturerModelName": "TrioTim",
      "Modality": "MR",
      "NumberOfAverages": 1.0,
      "NumberOfPhaseEncodingSteps": 91,
      "PercentPhaseFieldOfView": 100.0,
      "PercentSampling": 100.0,
      "PerformedProcedureStepStartTime": "145053.578000",
      "PhotometricInterpretation": "MONOCHROME2",
      "PixelBandwidth": 1923.0,
      "PixelRepresentation": 0,
      "PixelSpacing": [2.0, 2.0],
      "ProtocolName": "cmrr_mbep2d_bold_2mm_MB8_Task_8x",
      "RepetitionTime": 785.0,
      "Rows": 936,
      "SAR": 0.12219251189067,
      "SamplesPerPixel": 1,
      "ScanOptions": [
        "PFP",
        "FS"
],
      "ScanningSequence": "EP",
      "SequenceName": "epfid2d1_104",
      "SequenceVariant": [
        "SK",
        "SS"
],
      "SeriesDescription": "cmrr_mbep2d_bold_2mm_MB8_Task_8x",
      "SeriesNumber": 19,
      "SeriesTime": "163209.781000",
      "SliceLocation": -71.0,
      "SliceThickness": 2.0,
      "SmallestImagePixelValue": 0,
      "SoftwareVersions": "syngo MR B19",
      "SpacingBetweenSlices": 2.0,
      "SpecificCharacterSet": "ISO_IR 100",
      "StudyID": "1",
      "StudyTime": "145053.546000",
      "TransmitCoilName": "Body",
      "VariableFlipAngleFlag": "N",
      "WindowCenterWidthExplanation": "Algo1",
      "dBdt": 0.0},
    "slices": {}
  },
  "time": {
    "samples": {
      "AcquisitionNumber": [1, 2, 3, 4, 5, 6, 7, 8, 9, 10, 11, 12, 13, 14, 15, 16, 17, 18, 19, 20, 21, 22, 23, 24, 25, 26, 27, 28, 29, 30, 31, 32, 33, 34, 35, 36, 37, 38, 39, 40, 41, 42, 43, 44, 45, 46, 47, 48, 49, 50, 51, 52, 53, 54, 55, 56, 57, 58, 59, 60, 61, 62, 63, 64, 65, 66, 67, 68, 69, 70, 71, 72, 73, 74, 75, 76, 77, 78, 79, 80, 81, 82, 83, 84, 85, 86, 87, 88, 89, 90, 91, 92, 93, 94, 95, 96, 97, 98, 99, 100, 101, 102, 103, 104, 105, 106, 107, 108, 109, 110, 111, 112, 113, 114, 115, 116, 117, 118, 119, 120, 121, 122, 123, 124, 125, 126, 127, 128, 129, 130, 131, 132, 133, 134, 135, 136, 137, 138, 139, 140, 141, 142, 143, 144, 145, 146, 147, 148, 149, 150, 151, 152, 153, 154, 155, 156, 157, 158, 159, 160, 161, 162, 163, 164, 165, 166, 167, 168, 169, 170, 171, 172, 173, 174, 175, 176, 177, 178, 179, 180, 181, 182, 183, 184, 185, 186, 187, 188, 189, 190, 191, 192, 193, 194, 195, 196, 197, 198, 199, 200, 201, 202, 203, 204, 205, 206, 207, 208, 209, 210, 211, 212, 213, 214, 215, 216, 217, 218, 219, 220, 221, 222, 223, 224, 225, 226, 227, 228, 229, 230, 231, 232, 233, 234, 235, 236, 237, 238, 239, 240, 241, 242, 243, 244, 245, 246, 247, 248, 249, 250, 251, 252, 253, 254, 255, 256, 257, 258, 259, 260, 261, 262, 263, 264, 265, 266, 267, 268, 269, 270, 271, 272, 273, 274, 275, 276, 277, 278, 279, 280, 281, 282, 283, 284, 285, 286, 287, 288, 289, 290, 291, 292, 293, 294, 295, 296, 297, 298, 299, 300, 301, 302, 303, 304, 305, 306, 307, 308, 309, 310, 311, 312, 313, 314, 315, 316, 317, 318, 319, 320, 321, 322, 323, 324, 325, 326, 327, 328, 329, 330, 331, 332, 333, 334, 335, 336, 337, 338, 339, 340, 341, 342, 343, 344, 345, 346, 347, 348, 349, 350, 351, 352, 353, 354, 355, 356, 357, 358, 359, 360, 361, 362, 363, 364, 365, 366, 367, 368, 369, 370, 371, 372, 373, 374, 375, 376, 377, 378, 379, 380, 381, 382, 383, 384, 385, 386, 387, 388, 389, 390, 391, 392, 393, 394, 395, 396, 397, 398, 399, 400, 401, 402, 403, 404, 405, 406, 407, 408, 409, 410, 411, 412, 413, 414, 415, 416, 417, 418, 419, 420, 421, 422, 423, 424, 425, 426, 427, 428, 429, 430, 431, 432, 433, 434, 435, 436, 437, 438, 439, 440, 441, 442, 443, 444, 445, 446, 447, 448, 449, 450, 451, 452, 453, 454, 455, 456, 457, 458, 459, 460, 461, 462, 463, 464, 465, 466, 467, 468, 469, 470, 471, 472, 473, 474, 475, 476, 477, 478, 479, 480, 481, 482, 483, 484, 485, 486, 487, 488, 489, 490, 491, 492, 493, 494, 495, 496, 497, 498, 499, 500, 501, 502, 503, 504, 505, 506, 507, 508, 509, 510, 511, 512, 513, 514, 515, 516, 517, 518, 519, 520, 521, 522, 523, 524, 525, 526, 527, 528, 529, 530, 531, 532, 533, 534, 535, 536, 537, 538, 539, 540, 541, 542, 543, 544, 545, 546, 547, 548, 549, 550, 551, 552, 553, 554, 555, 556, 557, 558, 559, 560, 561, 562, 563, 564, 565, 566, 567, 568, 569, 570, 571, 572, 573, 574, 575, 576, 577, 578, 579, 580, 581],
      "AcquisitionTime": ["163135.715000", "163136.502500", "163137.290000", "163138.077500", "163138.867500", "163139.655000", "163140.442500", "163141.230000", "163142.020000", "163142.807500", "163143.595000", "163144.382500", "163145.172500", "163145.960000", "163146.747500", "163147.537500", "163148.325000", "163149.112500", "163149.900000", "163150.690000", "163151.477500", "163152.265000", "163153.052500", "163153.842500", "163154.630000", "163155.417500", "163156.205000", "163156.995000", "163157.782500", "163158.570000", "163159.357500", "163200.147500", "163200.935000", "163201.722500", "163202.512500", "163203.300000", "163204.087500", "163204.875000", "163205.665000", "163206.452500", "163207.240000", "163208.027500", "163208.817500", "163209.605000", "163210.392500", "163211.180000", "163211.970000", "163212.757500", "163213.545000", "163214.332500", "163215.122500", "163215.910000", "163216.697500", "163217.485000", "163218.275000", "163219.062500", "163219.850000", "163220.640000", "163221.427500", "163222.215000", "163223.002500", "163223.792500", "163224.580000", "163225.367500", "163226.155000", "163226.945000", "163227.732500", "163228.520000", "163229.307500", "163230.097500", "163230.885000", "163231.672500", "163232.460000", "163233.250000", "163234.037500", "163234.825000", "163235.612500", "163236.402500", "163237.190000", "163237.977500", "163238.767500", "163239.555000", "163240.342500", "163241.130000", "163241.920000", "163242.707500", "163243.495000", "163244.282500", "163245.072500", "163245.860000", "163246.647500", "163247.435000", "163248.225000", "163249.012500", "163249.800000", "163250.587500", "163251.377500", "163252.165000", "163252.952500", "163253.740000", "163254.530000", "163255.317500", "163256.105000", "163256.895000", "163257.682500", "163258.470000", "163259.257500", "163300.047500", "163300.835000", "163301.622500", "163302.410000", "163303.200000", "163303.987500", "163304.775000", "163305.562500", "163306.352500", "163307.140000", "163307.927500", "163308.715000", "163309.505000", "163310.292500", "163311.080000", "163311.867500", "163312.657500", "163313.445000", "163314.232500", "163315.022500", "163315.810000", "163316.597500", "163317.385000", "163318.175000", "163318.962500", "163319.750000", "163320.537500", "163321.327500", "163322.115000", "163322.902500", "163323.690000", "163324.480000", "163325.267500", "163326.055000", "163326.842500", "163327.632500", "163328.420000", "163329.207500", "163329.995000", "163330.785000", "163331.572500", "163332.360000", "163333.150000", "163333.937500", "163334.725000", "163335.512500", "163336.302500", "163337.090000", "163337.877500", "163338.665000", "163339.455000", "163340.242500", "163341.030000", "163341.817500", "163342.607500", "163343.395000", "163344.182500", "163344.970000", "163345.760000", "163346.547500", "163347.335000", "163348.122500", "163348.912500", "163349.700000", "163350.487500", "163351.277500", "163352.065000", "163352.852500", "163353.640000", "163354.430000", "163355.217500", "163356.005000", "163356.792500", "163357.582500", "163358.370000", "163359.157500", "163359.945000", "163400.735000", "163401.522500", "163402.310000", "163403.097500", "163403.887500", "163404.675000", "163405.462500", "163406.250000", "163407.040000", "163407.827500", "163408.615000", "163409.405000", "163410.192500", "163410.980000", "163411.767500", "163412.557500", "163413.345000", "163414.132500", "163414.920000", "163415.710000", "163416.497500", "163417.285000", "163418.072500", "163418.862500", "163419.650000", "163420.437500", "163421.225000", "163422.015000", "163422.802500", "163423.590000", "163424.377500", "163425.167500", "163425.955000", "163426.742500", "163427.532500", "163428.320000", "163429.107500", "163429.895000", "163430.685000", "163431.472500", "163432.260000", "163433.047500", "163433.837500", "163434.625000", "163435.412500", "163436.200000", "163436.990000", "163437.777500", "163438.565000", "163439.352500", "163440.142500", "163440.930000", "163441.717500", "163442.505000", "163443.295000", "163444.082500", "163444.870000", "163445.660000", "163446.447500", "163447.235000", "163448.022500", "163448.812500", "163449.600000", "163450.387500", "163451.175000", "163451.965000", "163452.752500", "163453.540000", "163454.327500", "163455.117500", "163455.905000", "163456.692500", "163457.480000", "163458.270000", "163459.057500", "163459.845000", "163500.632500", "163501.422500", "163502.210000", "163502.997500", "163503.787500", "163504.575000", "163505.362500", "163506.150000", "163506.940000", "163507.727500", "163508.515000", "163509.302500", "163510.092500", "163510.880000", "163511.667500", "163512.455000", "163513.245000", "163514.032500", "163514.820000", "163515.607500", "163516.397500", "163517.185000", "163517.972500", "163518.762500", "163519.550000", "163520.337500", "163521.125000", "163521.915000", "163522.702500", "163523.490000", "163524.277500", "163525.067500", "163525.855000", "163526.642500", "163527.430000", "163528.220000", "163529.007500", "163529.795000", "163530.582500", "163531.372500", "163532.160000", "163532.947500", "163533.735000", "163534.525000", "163535.312500", "163536.100000", "163536.890000", "163537.677500", "163538.465000", "163539.252500", "163540.042500", "163540.830000", "163541.617500", "163542.405000", "163543.195000", "163543.982500", "163544.770000", "163545.557500", "163546.347500", "163547.135000", "163547.922500", "163548.710000", "163549.500000", "163550.287500", "163551.075000", "163551.862500", "163552.652500", "163553.440000", "163554.227500", "163555.017500", "163555.805000", "163556.592500", "163557.380000", "163558.170000", "163558.957500", "163559.745000", "163600.532500", "163601.322500", "163602.110000", "163602.897500", "163603.685000", "163604.475000", "163605.262500", "163606.050000", "163606.837500", "163607.627500", "163608.415000", "163609.202500", "163609.990000", "163610.780000", "163611.567500", "163612.355000", "163613.145000", "163613.932500", "163614.720000", "163615.507500", "163616.297500", "163617.085000", "163617.872500", "163618.660000", "163619.450000", "163620.237500", "163621.025000", "163621.812500", "163622.602500", "163623.390000", "163624.177500", "163624.965000", "163625.755000", "163626.542500", "163627.330000", "163628.117500", "163628.907500", "163629.695000", "163630.482500", "163631.272500", "163632.060000", "163632.847500", "163633.635000", "163634.425000", "163635.212500", "163636.000000", "163636.787500", "163637.577500", "163638.365000", "163639.152500", "163639.940000", "163640.730000", "163641.517500", "163642.305000", "163643.092500", "163643.882500", "163644.670000", "163645.457500", "163646.245000", "163647.035000", "163647.822500", "163648.610000", "163649.400000", "163650.187500", "163650.975000", "163651.762500", "163652.552500", "163653.340000", "163654.127500", "163654.915000", "163655.705000", "163656.492500", "163657.280000", "163658.067500", "163658.857500", "163659.645000", "163700.432500", "163701.220000", "163702.010000", "163702.797500", "163703.585000", "163704.372500", "163705.162500", "163705.950000", "163706.737500", "163707.527500", "163708.315000", "163709.102500", "163709.890000", "163710.680000", "163711.467500", "163712.255000", "163713.042500", "163713.832500", "163714.620000", "163715.407500", "163716.195000", "163716.985000", "163717.772500", "163718.560000", "163719.347500", "163720.137500", "163720.925000", "163721.712500", "163722.500000", "163723.290000", "163724.077500", "163724.865000", "163725.655000", "163726.442500", "163727.230000", "163728.017500", "163728.807500", "163729.595000", "163730.382500", "163731.170000", "163731.960000", "163732.747500", "163733.535000", "163734.322500", "163735.112500", "163735.900000", "163736.687500", "163737.475000", "163738.265000", "163739.052500", "163739.840000", "163740.627500", "163741.417500", "163742.205000", "163742.992500", "163743.782500", "163744.570000", "163745.357500", "163746.145000", "163746.935000", "163747.722500", "163748.510000", "163749.297500", "163750.087500", "163750.875000", "163751.662500", "163752.450000", "163753.240000", "163754.027500", "163754.815000", "163755.602500", "163756.392500", "163757.180000", "163757.967500", "163758.755000", "163759.545000", "163800.332500", "163801.120000", "163801.910000", "163802.697500", "163803.485000", "163804.272500", "163805.062500", "163805.850000", "163806.637500", "163807.425000", "163808.215000", "163809.002500", "163809.790000", "163810.577500", "163811.367500", "163812.155000", "163812.942500", "163813.730000", "163814.520000", "163815.307500", "163816.095000", "163816.882500", "163817.672500", "163818.460000", "163819.247500", "163820.037500", "163820.825000", "163821.612500", "163822.400000", "163823.190000", "163823.977500", "163824.765000", "163825.552500", "163826.342500", "163827.130000", "163827.917500", "163828.705000", "163829.495000", "163830.282500", "163831.070000", "163831.857500", "163832.647500", "163833.435000", "163834.222500", "163835.012500", "163835.800000", "163836.587500", "163837.375000", "163838.165000", "163838.952500", "163839.740000", "163840.527500", "163841.317500", "163842.105000", "163842.892500", "163843.680000", "163844.470000", "163845.257500", "163846.045000", "163846.832500", "163847.622500", "163848.410000", "163849.197500", "163849.985000", "163850.775000", "163851.562500", "163852.350000", "163853.140000", "163853.927500", "163854.715000", "163855.502500", "163856.292500", "163857.080000", "163857.867500", "163858.655000", "163859.445000", "163900.232500", "163901.020000", "163901.807500", "163902.597500", "163903.385000", "163904.172500", "163904.960000", "163905.750000", "163906.537500", "163907.325000", "163908.112500", "163908.902500", "163909.690000", "163910.477500", "163911.267500", "163912.055000", "163912.842500"],
      "ContentTime": ["163209.781000", "163209.781000", "163209.781000", "163209.781000", "163209.796000", "163209.796000", "163209.796000", "163209.796000", "163209.796000", "163209.796000", "163209.796000", "163209.812000", "163209.812000", "163209.812000", "163209.812000", "163209.812000", "163209.812000", "163209.812000", "163209.828000", "163209.828000", "163209.828000", "163209.828000", "163209.828000", "163209.843000", "163209.843000", "163209.843000", "163209.843000", "163209.859000", "163209.859000", "163209.859000", "163209.859000", "163209.859000", "163209.859000", "163209.859000", "163209.875000", "163209.875000", "163209.875000", "163209.875000", "163209.875000", "163209.875000", "163229.750000", "163229.750000", "163229.750000", "163229.765000", "163229.765000", "163229.765000", "163229.765000", "163229.765000", "163229.765000", "163229.781000", "163229.781000", "163229.781000", "163229.781000", "163229.781000", "163229.781000", "163229.781000", "163229.796000", "163229.796000", "163229.796000", "163229.796000", "163229.796000", "163229.796000", "163229.812000", "163229.812000", "163229.812000", "163249.750000", "163249.750000", "163249.750000", "163249.765000", "163249.765000", "163249.765000", "163249.765000", "163249.765000", "163249.765000", "163249.765000", "163249.781000", "163249.781000", "163249.781000", "163249.781000", "163249.781000", "163249.781000", "163249.781000", "163249.796000", "163249.796000", "163249.796000", "163249.796000", "163249.796000", "163249.796000", "163249.796000", "163249.812000", "163249.812000", "163309.750000", "163309.750000", "163309.750000", "163309.765000", "163309.765000", "163309.765000", "163309.765000", "163309.765000", "163309.765000", "163309.765000", "163309.781000", "163309.781000", "163309.781000", "163309.781000", "163309.781000", "163309.781000", "163309.781000", "163309.796000", "163309.796000", "163309.796000", "163309.796000", "163309.796000", "163309.796000", "163309.812000", "163309.812000", "163329.750000", "163329.765000", "163329.765000", "163329.765000", "163329.765000", "163329.765000", "163329.765000", "163329.765000", "163329.781000", "163329.781000", "163329.781000", "163329.781000", "163329.781000", "163329.796000", "163329.796000", "163329.796000", "163329.796000", "163329.796000", "163329.796000", "163329.796000", "163329.812000", "163329.812000", "163329.812000", "163329.812000", "163329.812000", "163349.750000", "163349.750000", "163349.750000", "163349.765000", "163349.765000", "163349.765000", "163349.765000", "163349.765000", "163349.765000", "163349.781000", "163349.781000", "163349.781000", "163349.781000", "163349.781000", "163349.781000", "163349.781000", "163349.796000", "163349.796000", "163349.796000", "163349.796000", "163349.796000", "163349.796000", "163349.796000", "163349.812000", "163349.812000", "163349.812000", "163409.750000", "163409.750000", "163409.750000", "163409.765000", "163409.765000", "163409.765000", "163409.765000", "163409.765000", "163409.781000", "163409.781000", "163409.781000", "163409.781000", "163409.781000", "163409.781000", "163409.796000", "163409.796000", "163409.796000", "163409.796000", "163409.796000", "163409.796000", "163409.812000", "163409.812000", "163409.812000", "163409.812000", "163409.812000", "163429.750000", "163429.750000", "163429.750000", "163429.765000", "163429.765000", "163429.765000", "163429.765000", "163429.765000", "163429.765000", "163429.765000", "163429.781000", "163429.781000", "163429.781000", "163429.781000", "163429.781000", "163429.781000", "163429.796000", "163429.796000", "163429.796000", "163429.796000", "163429.796000", "163429.796000", "163429.796000", "163429.812000", "163429.812000", "163429.812000", "163449.750000", "163449.750000", "163449.750000", "163449.765000", "163449.765000", "163449.765000", "163449.765000", "163449.781000", "163449.781000", "163449.781000", "163449.781000", "163449.781000", "163449.781000", "163449.796000", "163449.796000", "163449.796000", "163449.796000", "163449.796000", "163449.796000", "163449.796000", "163449.812000", "163449.812000", "163449.812000", "163449.812000", "163449.812000", "163509.750000", "163509.750000", "163509.750000", "163509.765000", "163509.765000", "163509.765000", "163509.765000", "163509.765000", "163509.781000", "163509.781000", "163509.781000", "163509.781000", "163509.781000", "163509.781000", "163509.781000", "163509.796000", "163509.796000", "163509.796000", "163509.796000", "163509.796000", "163509.796000", "163509.796000", "163509.812000", "163509.812000", "163509.812000", "163509.812000", "163529.750000", "163529.750000", "163529.750000", "163529.765000", "163529.765000", "163529.765000", "163529.765000", "163529.765000", "163529.765000", "163529.781000", "163529.781000", "163529.781000", "163529.781000", "163529.781000", "163529.781000", "163529.781000", "163529.796000", "163529.796000", "163529.796000", "163529.796000", "163529.796000", "163529.796000", "163529.812000", "163529.812000", "163529.812000", "163549.750000", "163549.750000", "163549.750000", "163549.765000", "163549.765000", "163549.765000", "163549.765000", "163549.765000", "163549.765000", "163549.781000", "163549.781000", "163549.781000", "163549.781000", "163549.781000", "163549.781000", "163549.781000", "163549.796000", "163549.796000", "163549.796000", "163549.796000", "163549.796000", "163549.796000", "163549.796000", "163549.812000", "163549.812000", "163549.812000", "163609.750000", "163609.750000", "163609.750000", "163609.765000", "163609.765000", "163609.765000", "163609.765000", "163609.765000", "163609.765000", "163609.765000", "163609.781000", "163609.781000", "163609.781000", "163609.781000", "163609.781000", "163609.781000", "163609.796000", "163609.796000", "163609.796000", "163609.796000", "163609.796000", "163609.796000", "163609.796000", "163609.812000", "163609.812000", "163629.750000", "163629.750000", "163629.750000", "163629.765000", "163629.765000", "163629.765000", "163629.765000", "163629.765000", "163629.765000", "163629.781000", "163629.781000", "163629.781000", "163629.781000", "163629.781000", "163629.781000", "163629.781000", "163629.796000", "163629.796000", "163629.796000", "163629.796000", "163629.796000", "163629.796000", "163629.796000", "163629.812000", "163629.812000", "163629.812000", "163649.750000", "163649.750000", "163649.750000", "163649.765000", "163649.765000", "163649.765000", "163649.765000", "163649.765000", "163649.765000", "163649.765000", "163649.781000", "163649.781000", "163649.781000", "163649.781000", "163649.781000", "163649.781000", "163649.796000", "163649.796000", "163649.796000", "163649.796000", "163649.796000", "163649.796000", "163649.796000", "163649.812000", "163649.812000", "163709.750000", "163709.750000", "163709.750000", "163709.765000", "163709.765000", "163709.765000", "163709.765000", "163709.765000", "163709.765000", "163709.781000", "163709.781000", "163709.781000", "163709.781000", "163709.781000", "163709.781000", "163709.781000", "163709.796000", "163709.796000", "163709.796000", "163709.796000", "163709.796000", "163709.796000", "163709.812000", "163709.812000", "163709.812000", "163709.812000", "163729.750000", "163729.750000", "163729.750000", "163729.765000", "163729.765000", "163729.765000", "163729.765000", "163729.765000", "163729.765000", "163729.781000", "163729.781000", "163729.781000", "163729.781000", "163729.781000", "163729.781000", "163729.796000", "163729.796000", "163729.796000", "163729.796000", "163729.796000", "163729.796000", "163729.796000", "163729.812000", "163729.812000", "163729.812000", "163749.750000", "163749.750000", "163749.750000", "163749.765000", "163749.765000", "163749.765000", "163749.765000", "163749.765000", "163749.765000", "163749.765000", "163749.781000", "163749.781000", "163749.781000", "163749.781000", "163749.781000", "163749.781000", "163749.781000", "163749.796000", "163749.796000", "163749.796000", "163749.796000", "163749.796000", "163749.796000", "163749.812000", "163749.812000", "163749.812000", "163809.750000", "163809.750000", "163809.750000", "163809.765000", "163809.765000", "163809.765000", "163809.765000", "163809.765000", "163809.765000", "163809.765000", "163809.781000", "163809.781000", "163809.781000", "163809.781000", "163809.781000", "163809.781000", "163809.781000", "163809.796000", "163809.796000", "163809.796000", "163809.796000", "163809.796000", "163809.796000", "163809.812000", "163809.812000", "163829.750000", "163829.750000", "163829.750000", "163829.765000", "163829.765000", "163829.765000", "163829.765000", "163829.765000", "163829.765000", "163829.781000", "163829.781000", "163829.781000", "163829.781000", "163829.781000", "163829.781000", "163829.796000", "163829.796000", "163829.796000", "163829.796000", "163829.796000", "163829.796000", "163829.812000", "163829.812000", "163829.812000", "163829.812000", "163829.812000", "163849.750000", "163849.750000", "163849.765000", "163849.765000", "163849.765000", "163849.765000", "163849.765000", "163849.765000", "163849.765000", "163849.781000", "163849.781000", "163849.781000", "163849.781000", "163849.781000", "163849.781000", "163849.781000", "163849.796000", "163849.796000", "163849.796000", "163849.796000", "163849.796000", "163849.812000", "163849.812000", "163849.812000", "163849.812000", "163909.750000", "163909.750000", "163909.765000", "163909.765000", "163909.765000", "163909.765000", "163909.765000", "163909.765000", "163909.781000", "163909.781000", "163909.781000", "163909.781000", "163909.781000", "163909.796000", "163909.796000", "163909.796000", "163909.796000", "163909.796000", "163909.796000", "163909.812000", "163909.812000", "163909.812000", "163909.812000", "163909.812000", "163909.828000", "163909.828000", "163914.437000", "163914.437000", "163914.437000", "163914.437000", "163914.437000", "163914.437000"],
      "DataSetTrailingPadding": [
        "\u0000\u0000\u0000\u0000\u0000\u0000\u0000\u0000\u0000\u0000\u0000\u0000\u0000\u0000\u0000\u0000\u0000\u0000\u0000\u0000\u0000\u0000\u0000\u0000\u0000\u0000\u0000\u0000\u0000\u0000\u0000\u0000\u0000\u0000\u0000\u0000\u0000\u0000\u0000\u0000\u0000\u0000\u0000\u0000\u0000\u0000\u0000\u0000\u0000\u0000\u0000\u0000\u0000\u0000\u0000\u0000\u0000\u0000\u0000\u0000\u0000\u0000\u0000\u0000\u0000\u0000\u0000\u0000\u0000\u0000\u0000\u0000\u0000\u0000\u0000\u0000\u0000\u0000\u0000\u0000\u0000\u0000\u0000\u0000\u0000\u0000\u0000\u0000\u0000\u0000\u0000\u0000\u0000\u0000\u0000\u0000\u0000\u0000\u0000\u0000\u0000\u0000\u0000\u0000\u0000\u0000\u0000\u0000\u0000\u0000\u0000\u0000\u0000\u0000\u0000\u0000\u0000\u0000\u0000\u0000\u0000\u0000\u0000\u0000\u0000\u0000\u0000\u0000\u0000\u0000\u0000\u0000\u0000\u0000\u0000\u0000\u0000\u0000\u0000\u0000\u0000\u0000\u0000\u0000\u0000\u0000\u0000\u0000\u0000\u0000\u0000\u0000\u0000\u0000\u0000\u0000\u0000\u0000\u0000\u0000\u0000\u0000\u0000\u0000\u0000\u0000\u0000\u0000\u0000\u0000\u0000\u0000\u0000\u0000\u0000\u0000\u0000\u0000\u0000\u0000\u0000\u0000\u0000\u0000\u0000\u0000\u0000\u0000\u0000\u0000\u0000\u0000\u0000\u0000\u0000\u0000\u0000\u0000\u0000\u0000\u0000\u0000\u0000\u0000\u0000\u0000\u0000\u0000\u0000\u0000\u0000\u0000\u0000\u0000\u0000\u0000\u0000\u0000\u0000\u0000\u0000\u0000\u0000\u0000\u0000\u0000\u0000\u0000\u0000\u0000\u0000\u0000\u0000\u0000\u0000\u0000\u0000\u0000\u0000\u0000\u0000\u0000\u0000\u0000\u0000\u0000\u0000\u0000\u0000\u0000\u0000\u0000\u0000\u0000\u0000\u0000\u0000\u0000\u0000\u0000\u0000\u0000\u0000\u0000\u0000\u0000\u0000\u0000\u0000\u0000\u0000\u0000\u0000\u0000\u0000\u0000\u0000\u0000\u0000\u0000\u0000\u0000\u0000\u0000\u0000\u0000\u0000\u0000\u0000\u0000\u0000\u0000\u0000\u0000\u0000\u0000\u0000\u0000\u0000\u0000\u0000\u0000",
