{
  "AcquisitionMatrixPE": 104,
  "AcquisitionNumber": 1,
  "AcquisitionTime": "16:15:32.712500",
  "BandwidthPerPixelPhaseEncode": 13.935,
  "BaseResolution": 104,
  "CoilString": "C:HEA;HEP",
  "ConversionSoftware": "dcm2niix",
  "ConversionSoftwareVersion": "v1.0.20210317",
  "DerivedVendorReportedEchoSpacing": 0.000690017,
  "DeviceSerialNumber": "35450",
  "DwellTime": 2.5e-06,
  "EchoTime": 0.0348,
  "EffectiveEchoSpacing": 0.000690017,
  "FlipAngle": 55,
  "ImageComments": "Unaliased MB8/PE3 (remote)",
  "ImageOrientationPatientDICOM": [1, 0, 0, 0, 1, 0],
  "ImageType": [
    "ORIGINAL",
    "PRIMARY",
    "M",
    "MB",
    "ND",
    "MOSAIC"
],
  "ImagingFrequency": 123.234,
  "InPlanePhaseEncodingDirectionDICOM": "COL",
  "InstitutionAddress": "Univeristy Ave. 197,Newark,North East,US,07102-1814",
  "InstitutionName": "RUBIC",
  "InstitutionalDepartmentName": "Department",
  "MRAcquisitionType": "2D",
  "MagneticFieldStrength": 3,
  "Manufacturer": "Siemens",
  "ManufacturersModelName": "TrioTim",
  "Modality": "MR",
  "MultibandAccelerationFactor": 8,
  "PartialFourier": 0.875,
  "PatientPosition": "HFS",
  "PercentPhaseFOV": 100,
  "PercentSampling": 100,
  "PhaseEncodingDirection": "j-",
  "PhaseEncodingSteps": 91,
  "PhaseResolution": 1,
  "PixelBandwidth": 1923,
  "ProcedureStepDescription": "Cole^Michael",
  "ProtocolName": "cmrr_mbep2d_bold_2mm_MB8_Task_8x",
  "PulseSequenceDetails": "%CustomerSeq%\\cmrr_mbep2d_bold",
  "ReceiveCoilName": "32Ch_Head",
  "ReconMatrixPE": 104,
  "RepetitionTime": 0.785,
  "SAR": 0.122193,
  "ScanOptions": "PFP\\FS",
  "ScanningSequence": "EP",
  "SequenceName": "epfid2d1_104",
  "SequenceVariant": "SK\\SS",
  "SeriesDescription": "cmrr_mbep2d_bold_2mm_MB8_Task_8x",
  "SeriesNumber": 15,
  "ShimSetting": [2091, -483, -7219, 650, -117, -272, 261, 16],
  "SliceThickness": 2,
  "SliceTiming": [0, 0.44, 0.09, 0.5275, 0.1775, 0.615, 0.265, 0.7025, 0.3525, 0, 0.44, 0.09, 0.5275, 0.1775, 0.615, 0.265, 0.7025, 0.3525, 0, 0.44, 0.09, 0.5275, 0.1775, 0.615, 0.265, 0.7025, 0.3525, 0, 0.44, 0.09, 0.5275, 0.1775, 0.615, 0.265, 0.7025, 0.3525, 0, 0.44, 0.09, 0.5275, 0.1775, 0.615, 0.265, 0.7025, 0.3525, 0, 0.44, 0.09, 0.5275, 0.1775, 0.615, 0.265, 0.7025, 0.3525, 0, 0.44, 0.09, 0.5275, 0.1775, 0.615, 0.265, 0.7025, 0.3525, 0, 0.44, 0.09, 0.5275, 0.1775, 0.615, 0.265, 0.7025, 0.3525],
  "SoftwareVersions": "syngo MR B19",
  "SpacingBetweenSlices": 2,
  "StationName": "MRC35450",
  "TaskName": "cpro",
  "TotalReadoutTime": 0.0710717,
  "TxRefAmp": 321.099,
  "dcmmeta_affine": [
    [-2.0, 0.0, 0.0, 104.0],
    [0.0, 2.0, 0.0, -97.93220520019531],
    [0.0, 0.0, 2.0, -71.0],
    [0.0, 0.0, 0.0, 1.0]
],
  "dcmmeta_reorient_transform": [
    [0.0, -1.0, 0.0, 103.0],
    [1.0, 0.0, 0.0, 0.0],
    [0.0, 0.0, 1.0, 0.0],
    [0.0, 0.0, 0.0, 1.0]
],
  "dcmmeta_shape": [104, 104, 72, 581],
  "dcmmeta_slice_dim": 2,
  "dcmmeta_version": 0.6,
  "global": {
    "const": {
      "AcquisitionMatrix": [104, 0, 0, 104],
      "AngioFlag": "N",
      "BitsAllocated": 16,
      "BitsStored": 12,
      "Columns": 936,
      "EchoNumbers": 1,
      "EchoTime": 34.8,
      "EchoTrainLength": 1,
      "FlipAngle": 55.0,
      "HighBit": 11,
      "ImageOrientationPatient": [1.0, 0.0, 0.0, 0.0, 1.0, 0.0],
      "ImagePositionPatient": [-936.00000000083, -940.06779670715, -71.0],
      "ImageType": [
        "ORIGINAL",
        "PRIMARY",
        "M",
        "MB",
        "ND",
        "MOSAIC"
],
      "ImagedNucleus": "1H",
      "ImagingFrequency": 123.234352,
      "InPlanePhaseEncodingDirection": "COL",
      "MRAcquisitionType": "2D",
      "MagneticFieldStrength": 3.0,
      "Manufacturer": "SIEMENS",
      "ManufacturerModelName": "TrioTim",
      "Modality": "MR",
      "NumberOfAverages": 1.0,
      "NumberOfPhaseEncodingSteps": 91,
      "PercentPhaseFieldOfView": 100.0,
      "PercentSampling": 100.0,
      "PerformedProcedureStepStartTime": "145053.578000",
      "PhotometricInterpretation": "MONOCHROME2",
      "PixelBandwidth": 1923.0,
      "PixelRepresentation": 0,
      "PixelSpacing": [2.0, 2.0],
      "ProtocolName": "cmrr_mbep2d_bold_2mm_MB8_Task_8x",
      "RepetitionTime": 785.0,
      "Rows": 936,
      "SAR": 0.12219251189067,
      "SamplesPerPixel": 1,
      "ScanOptions": [
        "PFP",
        "FS"
],
      "ScanningSequence": "EP",
      "SequenceName": "epfid2d1_104",
      "SequenceVariant": [
        "SK",
        "SS"
],
      "SeriesDescription": "cmrr_mbep2d_bold_2mm_MB8_Task_8x",
      "SeriesNumber": 15,
      "SeriesTime": "161558.046000",
      "SliceLocation": -71.0,
      "SliceThickness": 2.0,
      "SmallestImagePixelValue": 0,
      "SoftwareVersions": "syngo MR B19",
      "SpacingBetweenSlices": 2.0,
      "SpecificCharacterSet": "ISO_IR 100",
      "StudyID": "1",
      "StudyTime": "145053.546000",
      "TransmitCoilName": "Body",
      "VariableFlipAngleFlag": "N",
      "WindowCenterWidthExplanation": "Algo1",
      "dBdt": 0.0},
    "slices": {}
  },
  "time": {
    "samples": {
      "AcquisitionNumber": [1, 2, 3, 4, 5, 6, 7, 8, 9, 10, 11, 12, 13, 14, 15, 16, 17, 18, 19, 20, 21, 22, 23, 24, 25, 26, 27, 28, 29, 30, 31, 32, 33, 34, 35, 36, 37, 38, 39, 40, 41, 42, 43, 44, 45, 46, 47, 48, 49, 50, 51, 52, 53, 54, 55, 56, 57, 58, 59, 60, 61, 62, 63, 64, 65, 66, 67, 68, 69, 70, 71, 72, 73, 74, 75, 76, 77, 78, 79, 80, 81, 82, 83, 84, 85, 86, 87, 88, 89, 90, 91, 92, 93, 94, 95, 96, 97, 98, 99, 100, 101, 102, 103, 104, 105, 106, 107, 108, 109, 110, 111, 112, 113, 114, 115, 116, 117, 118, 119, 120, 121, 122, 123, 124, 125, 126, 127, 128, 129, 130, 131, 132, 133, 134, 135, 136, 137, 138, 139, 140, 141, 142, 143, 144, 145, 146, 147, 148, 149, 150, 151, 152, 153, 154, 155, 156, 157, 158, 159, 160, 161, 162, 163, 164, 165, 166, 167, 168, 169, 170, 171, 172, 173, 174, 175, 176, 177, 178, 179, 180, 181, 182, 183, 184, 185, 186, 187, 188, 189, 190, 191, 192, 193, 194, 195, 196, 197, 198, 199, 200, 201, 202, 203, 204, 205, 206, 207, 208, 209, 210, 211, 212, 213, 214, 215, 216, 217, 218, 219, 220, 221, 222, 223, 224, 225, 226, 227, 228, 229, 230, 231, 232, 233, 234, 235, 236, 237, 238, 239, 240, 241, 242, 243, 244, 245, 246, 247, 248, 249, 250, 251, 252, 253, 254, 255, 256, 257, 258, 259, 260, 261, 262, 263, 264, 265, 266, 267, 268, 269, 270, 271, 272, 273, 274, 275, 276, 277, 278, 279, 280, 281, 282, 283, 284, 285, 286, 287, 288, 289, 290, 291, 292, 293, 294, 295, 296, 297, 298, 299, 300, 301, 302, 303, 304, 305, 306, 307, 308, 309, 310, 311, 312, 313, 314, 315, 316, 317, 318, 319, 320, 321, 322, 323, 324, 325, 326, 327, 328, 329, 330, 331, 332, 333, 334, 335, 336, 337, 338, 339, 340, 341, 342, 343, 344, 345, 346, 347, 348, 349, 350, 351, 352, 353, 354, 355, 356, 357, 358, 359, 360, 361, 362, 363, 364, 365, 366, 367, 368, 369, 370, 371, 372, 373, 374, 375, 376, 377, 378, 379, 380, 381, 382, 383, 384, 385, 386, 387, 388, 389, 390, 391, 392, 393, 394, 395, 396, 397, 398, 399, 400, 401, 402, 403, 404, 405, 406, 407, 408, 409, 410, 411, 412, 413, 414, 415, 416, 417, 418, 419, 420, 421, 422, 423, 424, 425, 426, 427, 428, 429, 430, 431, 432, 433, 434, 435, 436, 437, 438, 439, 440, 441, 442, 443, 444, 445, 446, 447, 448, 449, 450, 451, 452, 453, 454, 455, 456, 457, 458, 459, 460, 461, 462, 463, 464, 465, 466, 467, 468, 469, 470, 471, 472, 473, 474, 475, 476, 477, 478, 479, 480, 481, 482, 483, 484, 485, 486, 487, 488, 489, 490, 491, 492, 493, 494, 495, 496, 497, 498, 499, 500, 501, 502, 503, 504, 505, 506, 507, 508, 509, 510, 511, 512, 513, 514, 515, 516, 517, 518, 519, 520, 521, 522, 523, 524, 525, 526, 527, 528, 529, 530, 531, 532, 533, 534, 535, 536, 537, 538, 539, 540, 541, 542, 543, 544, 545, 546, 547, 548, 549, 550, 551, 552, 553, 554, 555, 556, 557, 558, 559, 560, 561, 562, 563, 564, 565, 566, 567, 568, 569, 570, 571, 572, 573, 574, 575, 576, 577, 578, 579, 580, 581],
      "AcquisitionTime": ["161532.712500", "161533.502500", "161534.290000", "161535.077500", "161535.867500", "161536.655000", "161537.442500", "161538.230000", "161539.020000", "161539.807500", "161540.595000", "161541.382500", "161542.172500", "161542.960000", "161543.747500", "161544.535000", "161545.325000", "161546.112500", "161546.900000", "161547.687500", "161548.477500", "161549.265000", "161550.052500", "161550.842500", "161551.630000", "161552.417500", "161553.205000", "161553.995000", "161554.782500", "161555.570000", "161556.357500", "161557.147500", "161557.935000", "161558.722500", "161559.510000", "161600.300000", "161601.087500", "161601.875000", "161602.662500", "161603.452500", "161604.240000", "161605.027500", "161605.815000", "161606.605000", "161607.392500", "161608.180000", "161608.970000", "161609.757500", "161610.545000", "161611.332500", "161612.122500", "161612.910000", "161613.697500", "161614.485000", "161615.275000", "161616.062500", "161616.850000", "161617.637500", "161618.427500", "161619.215000", "161620.002500", "161620.790000", "161621.580000", "161622.367500", "161623.155000", "161623.942500", "161624.732500", "161625.520000", "161626.307500", "161627.097500", "161627.885000", "161628.672500", "161629.460000", "161630.250000", "161631.037500", "161631.825000", "161632.612500", "161633.402500", "161634.190000", "161634.977500", "161635.765000", "161636.555000", "161637.342500", "161638.130000", "161638.917500", "161639.707500", "161640.495000", "161641.282500", "161642.070000", "161642.860000", "161643.647500", "161644.435000", "161645.225000", "161646.012500", "161646.800000", "161647.587500", "161648.377500", "161649.165000", "161649.952500", "161650.740000", "161651.530000", "161652.317500", "161653.105000", "161653.892500", "161654.682500", "161655.470000", "161656.257500", "161657.045000", "161657.835000", "161658.622500", "161659.410000", "161700.197500", "161700.987500", "161701.775000", "161702.562500", "161703.352500", "161704.140000", "161704.927500", "161705.715000", "161706.505000", "161707.292500", "161708.080000", "161708.867500", "161709.657500", "161710.445000", "161711.232500", "161712.020000", "161712.810000", "161713.597500", "161714.385000", "161715.172500", "161715.962500", "161716.750000", "161717.537500", "161718.325000", "161719.115000", "161719.902500", "161720.690000", "161721.480000", "161722.267500", "161723.055000", "161723.842500", "161724.632500", "161725.420000", "161726.207500", "161726.995000", "161727.785000", "161728.572500", "161729.360000", "161730.147500", "161730.937500", "161731.725000", "161732.512500", "161733.300000", "161734.090000", "161734.877500", "161735.665000", "161736.452500", "161737.242500", "161738.030000", "161738.817500", "161739.607500", "161740.395000", "161741.182500", "161741.970000", "161742.760000", "161743.547500", "161744.335000", "161745.122500", "161745.912500", "161746.700000", "161747.487500", "161748.275000", "161749.065000", "161749.852500", "161750.640000", "161751.427500", "161752.217500", "161753.005000", "161753.792500", "161754.580000", "161755.370000", "161756.157500", "161756.945000", "161757.735000", "161758.522500", "161759.310000", "161800.097500", "161800.887500", "161801.675000", "161802.462500", "161803.250000", "161804.040000", "161804.827500", "161805.615000", "161806.402500", "161807.192500", "161807.980000", "161808.767500", "161809.555000", "161810.345000", "161811.132500", "161811.920000", "161812.707500", "161813.497500", "161814.285000", "161815.072500", "161815.862500", "161816.650000", "161817.437500", "161818.225000", "161819.015000", "161819.802500", "161820.590000", "161821.377500", "161822.167500", "161822.955000", "161823.742500", "161824.530000", "161825.320000", "161826.107500", "161826.895000", "161827.682500", "161828.472500", "161829.260000", "161830.047500", "161830.835000", "161831.625000", "161832.412500", "161833.200000", "161833.990000", "161834.777500", "161835.565000", "161836.352500", "161837.142500", "161837.930000", "161838.717500", "161839.505000", "161840.295000", "161841.082500", "161841.870000", "161842.657500", "161843.447500", "161844.235000", "161845.022500", "161845.810000", "161846.600000", "161847.387500", "161848.175000", "161848.962500", "161849.752500", "161850.540000", "161851.327500", "161852.117500", "161852.905000", "161853.692500", "161854.480000", "161855.270000", "161856.057500", "161856.845000", "161857.632500", "161858.422500", "161859.210000", "161859.997500", "161900.785000", "161901.575000", "161902.362500", "161903.150000", "161903.937500", "161904.727500", "161905.515000", "161906.302500", "161907.092500", "161907.880000", "161908.667500", "161909.455000", "161910.245000", "161911.032500", "161911.820000", "161912.607500", "161913.397500", "161914.185000", "161914.972500", "161915.760000", "161916.550000", "161917.337500", "161918.125000", "161918.912500", "161919.702500", "161920.490000", "161921.277500", "161922.065000", "161922.855000", "161923.642500", "161924.430000", "161925.220000", "161926.007500", "161926.795000", "161927.582500", "161928.372500", "161929.160000", "161929.947500", "161930.735000", "161931.525000", "161932.312500", "161933.100000", "161933.887500", "161934.677500", "161935.465000", "161936.252500", "161937.040000", "161937.830000", "161938.617500", "161939.405000", "161940.192500", "161940.982500", "161941.770000", "161942.557500", "161943.347500", "161944.135000", "161944.922500", "161945.710000", "161946.500000", "161947.287500", "161948.075000", "161948.862500", "161949.652500", "161950.440000", "161951.227500", "161952.015000", "161952.805000", "161953.592500", "161954.380000", "161955.167500", "161955.957500", "161956.745000", "161957.532500", "161958.320000", "161959.110000", "161959.897500", "162000.685000", "162001.475000", "162002.262500", "162003.050000", "162003.837500", "162004.627500", "162005.415000", "162006.202500", "162006.990000", "162007.780000", "162008.567500", "162009.355000", "162010.142500", "162010.932500", "162011.720000", "162012.507500", "162013.295000", "162014.085000", "162014.872500", "162015.660000", "162016.447500", "162017.237500", "162018.025000", "162018.812500", "162019.602500", "162020.390000", "162021.177500", "162021.965000", "162022.755000", "162023.542500", "162024.330000", "162025.117500", "162025.907500", "162026.695000", "162027.482500", "162028.270000", "162029.060000", "162029.847500", "162030.635000", "162031.422500", "162032.212500", "162033.000000", "162033.787500", "162034.575000", "162035.365000", "162036.152500", "162036.940000", "162037.730000", "162038.517500", "162039.305000", "162040.092500", "162040.882500", "162041.670000", "162042.457500", "162043.245000", "162044.035000", "162044.822500", "162045.610000", "162046.397500", "162047.187500", "162047.975000", "162048.762500", "162049.550000", "162050.340000", "162051.127500", "162051.915000", "162052.702500", "162053.492500", "162054.280000", "162055.067500", "162055.857500", "162056.645000", "162057.432500", "162058.220000", "162059.010000", "162059.797500", "162100.585000", "162101.372500", "162102.162500", "162102.950000", "162103.737500", "162104.525000", "162105.315000", "162106.102500", "162106.890000", "162107.677500", "162108.467500", "162109.255000", "162110.042500", "162110.830000", "162111.620000", "162112.407500", "162113.195000", "162113.985000", "162114.772500", "162115.560000", "162116.347500", "162117.137500", "162117.925000", "162118.712500", "162119.500000", "162120.290000", "162121.077500", "162121.865000", "162122.652500", "162123.442500", "162124.230000", "162125.017500", "162125.805000", "162126.595000", "162127.382500", "162128.170000", "162128.957500", "162129.747500", "162130.535000", "162131.322500", "162132.112500", "162132.900000", "162133.687500", "162134.475000", "162135.265000", "162136.052500", "162136.840000", "162137.627500", "162138.417500", "162139.205000", "162139.992500", "162140.780000", "162141.570000", "162142.357500", "162143.145000", "162143.932500", "162144.722500", "162145.510000", "162146.297500", "162147.085000", "162147.875000", "162148.662500", "162149.450000", "162150.240000", "162151.027500", "162151.815000", "162152.602500", "162153.392500", "162154.180000", "162154.967500", "162155.755000", "162156.545000", "162157.332500", "162158.120000", "162158.907500", "162159.697500", "162200.485000", "162201.272500", "162202.060000", "162202.850000", "162203.637500", "162204.425000", "162205.212500", "162206.002500", "162206.790000", "162207.577500", "162208.367500", "162209.155000", "162209.942500", "162210.730000", "162211.520000", "162212.307500", "162213.095000", "162213.882500", "162214.672500", "162215.460000", "162216.247500", "162217.035000", "162217.825000", "162218.612500", "162219.400000", "162220.187500", "162220.977500", "162221.765000", "162222.552500", "162223.342500", "162224.130000", "162224.917500", "162225.705000", "162226.495000", "162227.282500", "162228.070000", "162228.857500", "162229.647500", "162230.435000", "162231.222500", "162232.010000", "162232.800000", "162233.587500", "162234.375000", "162235.162500", "162235.952500", "162236.740000", "162237.527500", "162238.315000", "162239.105000", "162239.892500", "162240.680000", "162241.470000", "162242.257500", "162243.045000", "162243.832500", "162244.622500", "162245.410000", "162246.197500", "162246.985000", "162247.775000", "162248.562500", "162249.350000", "162250.137500", "162250.927500", "162251.715000", "162252.502500", "162253.290000", "162254.080000", "162254.867500", "162255.655000", "162256.442500", "162257.232500", "162258.020000", "162258.807500", "162259.597500", "162300.385000", "162301.172500", "162301.960000", "162302.750000", "162303.537500", "162304.325000", "162305.112500", "162305.902500", "162306.690000", "162307.477500", "162308.265000", "162309.055000", "162309.842500"],
      "ContentTime": ["161558.046000", "161558.062000", "161558.062000", "161558.062000", "161558.062000", "161558.062000", "161558.062000", "161558.062000", "161558.078000", "161558.078000", "161558.078000", "161558.078000", "161558.078000", "161558.078000", "161558.078000", "161558.093000", "161558.093000", "161558.093000", "161558.093000", "161558.093000", "161558.093000", "161558.093000", "161558.109000", "161558.109000", "161558.109000", "161558.109000", "161558.109000", "161558.109000", "161558.125000", "161618.031000", "161618.031000", "161618.031000", "161618.046000", "161618.046000", "161618.046000", "161618.046000", "161618.046000", "161618.046000", "161618.046000", "161618.062000", "161618.062000", "161618.062000", "161618.062000", "161618.078000", "161618.078000", "161618.078000", "161618.078000", "161618.078000", "161618.078000", "161618.093000", "161618.093000", "161618.093000", "161618.093000", "161618.093000", "161618.093000", "161638.031000", "161638.031000", "161638.031000", "161638.046000", "161638.046000", "161638.046000", "161638.046000", "161638.046000", "161638.046000", "161638.062000", "161638.062000", "161638.062000", "161638.062000", "161638.062000", "161638.062000", "161638.062000", "161638.078000", "161638.078000", "161638.078000", "161638.078000", "161638.078000", "161638.078000", "161638.078000", "161638.093000", "161638.093000", "161658.031000", "161658.031000", "161658.031000", "161658.046000", "161658.046000", "161658.046000", "161658.046000", "161658.046000", "161658.046000", "161658.046000", "161658.062000", "161658.062000", "161658.062000", "161658.062000", "161658.062000", "161658.062000", "161658.062000", "161658.078000", "161658.078000", "161658.078000", "161658.078000", "161658.078000", "161658.078000", "161658.093000", "161658.093000", "161658.093000", "161718.031000", "161718.031000", "161718.031000", "161718.046000", "161718.046000", "161718.046000", "161718.046000", "161718.046000", "161718.046000", "161718.062000", "161718.062000", "161718.062000", "161718.062000", "161718.062000", "161718.062000", "161718.062000", "161718.078000", "161718.078000", "161718.078000", "161718.078000", "161718.078000", "161718.078000", "161718.078000", "161718.093000", "161718.093000", "161738.031000", "161738.031000", "161738.031000", "161738.046000", "161738.046000", "161738.046000", "161738.046000", "161738.046000", "161738.046000", "161738.046000", "161738.062000", "161738.062000", "161738.062000", "161738.062000", "161738.062000", "161738.062000", "161738.062000", "161738.078000", "161738.078000", "161738.078000", "161738.078000", "161738.078000", "161738.078000", "161738.078000", "161738.093000", "161738.093000", "161758.031000", "161758.031000", "161758.031000", "161758.046000", "161758.046000", "161758.046000", "161758.046000", "161758.046000", "161758.046000", "161758.046000", "161758.062000", "161758.062000", "161758.062000", "161758.062000", "161758.062000", "161758.062000", "161758.078000", "161758.078000", "161758.078000", "161758.078000", "161758.078000", "161758.078000", "161758.093000", "161758.093000", "161758.093000", "161818.031000", "161818.031000", "161818.031000", "161818.046000", "161818.046000", "161818.046000", "161818.046000", "161818.046000", "161818.046000", "161818.062000", "161818.062000", "161818.062000", "161818.062000", "161818.062000", "161818.062000", "161818.062000", "161818.078000", "161818.078000", "161818.078000", "161818.078000", "161818.078000", "161818.078000", "161818.078000", "161818.093000", "161818.093000", "161818.093000", "161838.031000", "161838.031000", "161838.031000", "161838.046000", "161838.046000", "161838.046000", "161838.046000", "161838.046000", "161838.046000", "161838.046000", "161838.062000", "161838.062000", "161838.062000", "161838.062000", "161838.062000", "161838.062000", "161838.062000", "161838.078000", "161838.078000", "161838.078000", "161838.078000", "161838.078000", "161838.078000", "161838.078000", "161838.093000", "161858.031000", "161858.031000", "161858.031000", "161858.046000", "161858.046000", "161858.046000", "161858.046000", "161858.046000", "161858.046000", "161858.046000", "161858.062000", "161858.062000", "161858.062000", "161858.062000", "161858.062000", "161858.062000", "161858.062000", "161858.078000", "161858.078000", "161858.078000", "161858.078000", "161858.078000", "161858.078000", "161858.078000", "161858.093000", "161918.031000", "161918.031000", "161918.031000", "161918.046000", "161918.046000", "161918.046000", "161918.046000", "161918.046000", "161918.046000", "161918.046000", "161918.062000", "161918.062000", "161918.062000", "161918.062000", "161918.062000", "161918.062000", "161918.062000", "161918.078000", "161918.078000", "161918.078000", "161918.078000", "161918.078000", "161918.078000", "161918.078000", "161918.093000", "161918.093000", "161938.031000", "161938.031000", "161938.031000", "161938.046000", "161938.046000", "161938.046000", "161938.046000", "161938.062000", "161938.062000", "161938.062000", "161938.062000", "161938.062000", "161938.062000", "161938.062000", "161938.078000", "161938.078000", "161938.078000", "161938.078000", "161938.078000", "161938.093000", "161938.093000", "161938.093000", "161938.093000", "161938.093000", "161938.093000", "161958.031000", "161958.031000", "161958.031000", "161958.046000", "161958.046000", "161958.046000", "161958.046000", "161958.046000", "161958.046000", "161958.062000", "161958.062000", "161958.062000", "161958.062000", "161958.062000", "161958.062000", "161958.062000", "161958.078000", "161958.078000", "161958.078000", "161958.078000", "161958.078000", "161958.078000", "161958.078000", "161958.093000", "161958.093000", "161958.093000", "162018.031000", "162018.031000", "162018.046000", "162018.046000", "162018.046000", "162018.046000", "162018.046000", "162018.046000", "162018.046000", "162018.062000", "162018.062000", "162018.062000", "162018.062000", "162018.062000", "162018.078000", "162018.078000", "162018.078000", "162018.078000", "162018.078000", "162018.093000", "162018.093000", "162018.093000", "162018.093000", "162018.093000", "162018.093000", "162038.031000", "162038.031000", "162038.031000", "162038.046000", "162038.046000", "162038.046000", "162038.046000", "162038.046000", "162038.046000", "162038.046000", "162038.062000", "162038.062000", "162038.062000", "162038.062000", "162038.062000", "162038.062000", "162038.062000", "162038.078000", "162038.078000", "162038.078000", "162038.078000", "162038.078000", "162038.078000", "162038.093000", "162038.093000", "162038.093000", "162058.031000", "162058.031000", "162058.031000", "162058.046000", "162058.046000", "162058.046000", "162058.046000", "162058.046000", "162058.046000", "162058.046000", "162058.062000", "162058.062000", "162058.062000", "162058.062000", "162058.062000", "162058.062000", "162058.062000", "162058.078000", "162058.078000", "162058.078000", "162058.078000", "162058.078000", "162058.078000", "162058.093000", "162058.093000", "162118.031000", "162118.031000", "162118.031000", "162118.046000", "162118.046000", "162118.046000", "162118.046000", "162118.046000", "162118.046000", "162118.046000", "162118.062000", "162118.062000", "162118.062000", "162118.062000", "162118.062000", "162118.062000", "162118.078000", "162118.078000", "162118.078000", "162118.078000", "162118.078000", "162118.078000", "162118.078000", "162118.093000", "162118.093000", "162118.093000", "162138.031000", "162138.031000", "162138.031000", "162138.046000", "162138.046000", "162138.046000", "162138.046000", "162138.046000", "162138.046000", "162138.062000", "162138.062000", "162138.062000", "162138.062000", "162138.062000", "162138.062000", "162138.062000", "162138.078000", "162138.078000", "162138.078000", "162138.078000", "162138.078000", "162138.078000", "162138.078000", "162138.093000", "162138.093000", "162158.031000", "162158.031000", "162158.031000", "162158.046000", "162158.046000", "162158.046000", "162158.046000", "162158.046000", "162158.046000", "162158.062000", "162158.062000", "162158.062000", "162158.062000", "162158.062000", "162158.062000", "162158.062000", "162158.078000", "162158.078000", "162158.078000", "162158.078000", "162158.078000", "162158.078000", "162158.078000", "162158.093000", "162158.093000", "162158.093000", "162218.031000", "162218.031000", "162218.046000", "162218.046000", "162218.046000", "162218.046000", "162218.046000", "162218.046000", "162218.046000", "162218.062000", "162218.062000", "162218.062000", "162218.062000", "162218.062000", "162218.062000", "162218.062000", "162218.078000", "162218.078000", "162218.078000", "162218.078000", "162218.078000", "162218.078000", "162218.078000", "162218.093000", "162218.093000", "162238.031000", "162238.031000", "162238.031000", "162238.046000", "162238.046000", "162238.046000", "162238.046000", "162238.046000", "162238.046000", "162238.062000", "162238.062000", "162238.062000", "162238.062000", "162238.062000", "162238.062000", "162238.062000", "162238.078000", "162238.078000", "162238.078000", "162238.078000", "162238.078000", "162238.078000", "162238.093000", "162238.093000", "162238.093000", "162238.093000", "162258.031000", "162258.031000", "162258.031000", "162258.046000", "162258.046000", "162258.046000", "162258.046000", "162258.046000", "162258.046000", "162258.046000", "162258.062000", "162258.062000", "162258.062000", "162258.062000", "162258.062000", "162258.062000", "162258.062000", "162258.078000", "162258.078000", "162258.078000", "162258.078000", "162258.078000", "162258.093000", "162258.093000", "162258.109000", "162310.890000", "162310.890000", "162310.890000", "162310.890000", "162310.906000", "162310.906000", "162310.906000", "162310.906000", "162310.906000", "162310.921000", "162310.921000", "162310.921000", "162310.921000", "162310.937000", "162310.937000", "162310.937000", "162310.937000"],
      "DataSetTrailingPadding": [
        "\u0000\u0000\u0000\u0000\u0000\u0000\u0000\u0000\u0000\u0000\u0000\u0000\u0000\u0000\u0000\u0000\u0000\u0000\u0000\u0000\u0000\u0000\u0000\u0000\u0000\u0000\u0000\u0000\u0000\u0000\u0000\u0000\u0000\u0000\u0000\u0000\u0000\u0000\u0000\u0000\u0000\u0000\u0000\u0000\u0000\u0000\u0000\u0000\u0000\u0000\u0000\u0000\u0000\u0000\u0000\u0000\u0000\u0000\u0000\u0000\u0000\u0000\u0000\u0000\u0000\u0000\u0000\u0000\u0000\u0000\u0000\u0000\u0000\u0000\u0000\u0000\u0000\u0000\u0000\u0000\u0000\u0000\u0000\u0000\u0000\u0000\u0000\u0000\u0000\u0000\u0000\u0000\u0000\u0000\u0000\u0000\u0000\u0000\u0000\u0000\u0000\u0000\u0000\u0000\u0000\u0000\u0000\u0000\u0000\u0000\u0000\u0000\u0000\u0000\u0000\u0000\u0000\u0000\u0000\u0000\u0000\u0000\u0000\u0000\u0000\u0000\u0000\u0000\u0000\u0000\u0000\u0000\u0000\u0000\u0000\u0000\u0000\u0000\u0000\u0000\u0000\u0000\u0000\u0000\u0000\u0000\u0000\u0000\u0000\u0000\u0000\u0000\u0000\u0000\u0000\u0000\u0000\u0000\u0000\u0000\u0000\u0000\u0000\u0000\u0000\u0000\u0000\u0000\u0000\u0000\u0000\u0000\u0000\u0000\u0000\u0000\u0000\u0000\u0000\u0000\u0000\u0000\u0000\u0000\u0000\u0000\u0000\u0000\u0000\u0000\u0000\u0000\u0000\u0000\u0000\u0000\u0000\u0000\u0000\u0000\u0000\u0000\u0000\u0000\u0000\u0000\u0000\u0000\u0000\u0000\u0000\u0000\u0000\u0000\u0000\u0000\u0000\u0000\u0000\u0000\u0000\u0000\u0000\u0000\u0000\u0000\u0000\u0000\u0000\u0000\u0000\u0000\u0000\u0000\u0000\u0000\u0000\u0000\u0000\u0000\u0000\u0000\u0000\u0000\u0000\u0000\u0000\u0000\u0000\u0000\u0000\u0000\u0000\u0000\u0000\u0000\u0000\u0000\u0000\u0000\u0000\u0000\u0000\u0000\u0000\u0000\u0000\u0000\u0000\u0000\u0000\u0000\u0000\u0000\u0000\u0000\u0000\u0000\u0000\u0000\u0000\u0000\u0000\u0000\u0000\u0000\u0000\u0000\u0000\u0000\u0000\u0000\u0000\u0000\u0000\u0000\u0000\u0000\u0000\u0000",
