{
  "AcquisitionMatrixPE": 104,
  "AcquisitionNumber": 1,
  "AcquisitionTime": "16:55:53.762500",
  "BandwidthPerPixelPhaseEncode": 13.935,
  "BaseResolution": 104,
  "CoilString": "C:HEA;HEP",
  "ConversionSoftware": "dcm2niix",
  "ConversionSoftwareVersion": "v1.0.20210317",
  "DerivedVendorReportedEchoSpacing": 0.000690017,
  "DeviceSerialNumber": "35450",
  "DwellTime": 2.5e-06,
  "EchoTime": 0.0348,
  "EffectiveEchoSpacing": 0.000690017,
  "FlipAngle": 55,
  "ImageComments": "Unaliased MB8/PE3 (remote)",
  "ImageOrientationPatientDICOM": [1, 0, 0, 0, 1, 0],
  "ImageType": [
    "ORIGINAL",
    "PRIMARY",
    "M",
    "MB",
    "ND",
    "MOSAIC"
],
  "ImagingFrequency": 123.234,
  "InPlanePhaseEncodingDirectionDICOM": "COL",
  "InstitutionAddress": "Univeristy Ave. 197,Newark,North East,US,07102-1814",
  "InstitutionName": "RUBIC",
  "InstitutionalDepartmentName": "Department",
  "MRAcquisitionType": "2D",
  "MagneticFieldStrength": 3,
  "Manufacturer": "Siemens",
  "ManufacturersModelName": "TrioTim",
  "Modality": "MR",
  "MultibandAccelerationFactor": 8,
  "PartialFourier": 0.875,
  "PatientPosition": "HFS",
  "PercentPhaseFOV": 100,
  "PercentSampling": 100,
  "PhaseEncodingDirection": "j-",
  "PhaseEncodingSteps": 91,
  "PhaseResolution": 1,
  "PixelBandwidth": 1923,
  "ProcedureStepDescription": "Cole^Michael",
  "ProtocolName": "cmrr_mbep2d_bold_2mm_MB8_Task_8x",
  "PulseSequenceDetails": "%CustomerSeq%\\cmrr_mbep2d_bold",
  "ReceiveCoilName": "32Ch_Head",
  "ReconMatrixPE": 104,
  "RepetitionTime": 0.785,
  "SAR": 0.122193,
  "ScanOptions": "PFP\\FS",
  "ScanningSequence": "EP",
  "SequenceName": "epfid2d1_104",
  "SequenceVariant": "SK\\SS",
  "SeriesDescription": "cmrr_mbep2d_bold_2mm_MB8_Task_8x",
  "SeriesNumber": 25,
  "ShimSetting": [2091, -483, -7219, 650, -117, -272, 261, 16],
  "SliceThickness": 2,
  "SliceTiming": [0, 0.44, 0.0875, 0.5275, 0.175, 0.615, 0.2625, 0.7025, 0.3525, 0, 0.44, 0.0875, 0.5275, 0.175, 0.615, 0.2625, 0.7025, 0.3525, 0, 0.44, 0.0875, 0.5275, 0.175, 0.615, 0.2625, 0.7025, 0.3525, 0, 0.44, 0.0875, 0.5275, 0.175, 0.615, 0.2625, 0.7025, 0.3525, 0, 0.44, 0.0875, 0.5275, 0.175, 0.615, 0.2625, 0.7025, 0.3525, 0, 0.44, 0.0875, 0.5275, 0.175, 0.615, 0.2625, 0.7025, 0.3525, 0, 0.44, 0.0875, 0.5275, 0.175, 0.615, 0.2625, 0.7025, 0.3525, 0, 0.44, 0.0875, 0.5275, 0.175, 0.615, 0.2625, 0.7025, 0.3525],
  "SoftwareVersions": "syngo MR B19",
  "SpacingBetweenSlices": 2,
  "StationName": "MRC35450",
  "TaskName": "cpro",
  "TotalReadoutTime": 0.0710717,
  "TxRefAmp": 321.099,
  "dcmmeta_affine": [
    [-2.0, 0.0, 0.0, 104.0],
    [0.0, 2.0, 0.0, -97.93220520019531],
    [0.0, 0.0, 2.0, -71.0],
    [0.0, 0.0, 0.0, 1.0]
],
  "dcmmeta_reorient_transform": [
    [0.0, -1.0, 0.0, 103.0],
    [1.0, 0.0, 0.0, 0.0],
    [0.0, 0.0, 1.0, 0.0],
    [0.0, 0.0, 0.0, 1.0]
],
  "dcmmeta_shape": [104, 104, 72, 581],
  "dcmmeta_slice_dim": 2,
  "dcmmeta_version": 0.6,
  "global": {
    "const": {
      "AcquisitionMatrix": [104, 0, 0, 104],
      "AngioFlag": "N",
      "BitsAllocated": 16,
      "BitsStored": 12,
      "Columns": 936,
      "EchoNumbers": 1,
      "EchoTime": 34.8,
      "EchoTrainLength": 1,
      "FlipAngle": 55.0,
      "HighBit": 11,
      "ImageOrientationPatient": [1.0, 0.0, 0.0, 0.0, 1.0, 0.0],
      "ImagePositionPatient": [-936.00000000083, -940.06779670715, -71.0],
      "ImageType": [
        "ORIGINAL",
        "PRIMARY",
        "M",
        "MB",
        "ND",
        "MOSAIC"
],
      "ImagedNucleus": "1H",
      "ImagingFrequency": 123.234352,
      "InPlanePhaseEncodingDirection": "COL",
      "MRAcquisitionType": "2D",
      "MagneticFieldStrength": 3.0,
      "Manufacturer": "SIEMENS",
      "ManufacturerModelName": "TrioTim",
      "Modality": "MR",
      "NumberOfAverages": 1.0,
      "NumberOfPhaseEncodingSteps": 91,
      "PercentPhaseFieldOfView": 100.0,
      "PercentSampling": 100.0,
      "PerformedProcedureStepStartTime": "145053.578000",
      "PhotometricInterpretation": "MONOCHROME2",
      "PixelBandwidth": 1923.0,
      "PixelRepresentation": 0,
      "PixelSpacing": [2.0, 2.0],
      "ProtocolName": "cmrr_mbep2d_bold_2mm_MB8_Task_8x",
      "RepetitionTime": 785.0,
      "Rows": 936,
      "SAR": 0.12219251189067,
      "SamplesPerPixel": 1,
      "ScanOptions": [
        "PFP",
        "FS"
],
      "ScanningSequence": "EP",
      "SequenceName": "epfid2d1_104",
      "SequenceVariant": [
        "SK",
        "SS"
],
      "SeriesDescription": "cmrr_mbep2d_bold_2mm_MB8_Task_8x",
      "SeriesNumber": 25,
      "SeriesTime": "165629.781000",
      "SliceLocation": -71.0,
      "SliceThickness": 2.0,
      "SmallestImagePixelValue": 0,
      "SoftwareVersions": "syngo MR B19",
      "SpacingBetweenSlices": 2.0,
      "SpecificCharacterSet": "ISO_IR 100",
      "StudyID": "1",
      "StudyTime": "145053.546000",
      "TransmitCoilName": "Body",
      "VariableFlipAngleFlag": "N",
      "WindowCenterWidthExplanation": "Algo1",
      "dBdt": 0.0},
    "slices": {}
  },
  "time": {
    "samples": {
      "AcquisitionNumber": [1, 2, 3, 4, 5, 6, 7, 8, 9, 10, 11, 12, 13, 14, 15, 16, 17, 18, 19, 20, 21, 22, 23, 24, 25, 26, 27, 28, 29, 30, 31, 32, 33, 34, 35, 36, 37, 38, 39, 40, 41, 42, 43, 44, 45, 46, 47, 48, 49, 50, 51, 52, 53, 54, 55, 56, 57, 58, 59, 60, 61, 62, 63, 64, 65, 66, 67, 68, 69, 70, 71, 72, 73, 74, 75, 76, 77, 78, 79, 80, 81, 82, 83, 84, 85, 86, 87, 88, 89, 90, 91, 92, 93, 94, 95, 96, 97, 98, 99, 100, 101, 102, 103, 104, 105, 106, 107, 108, 109, 110, 111, 112, 113, 114, 115, 116, 117, 118, 119, 120, 121, 122, 123, 124, 125, 126, 127, 128, 129, 130, 131, 132, 133, 134, 135, 136, 137, 138, 139, 140, 141, 142, 143, 144, 145, 146, 147, 148, 149, 150, 151, 152, 153, 154, 155, 156, 157, 158, 159, 160, 161, 162, 163, 164, 165, 166, 167, 168, 169, 170, 171, 172, 173, 174, 175, 176, 177, 178, 179, 180, 181, 182, 183, 184, 185, 186, 187, 188, 189, 190, 191, 192, 193, 194, 195, 196, 197, 198, 199, 200, 201, 202, 203, 204, 205, 206, 207, 208, 209, 210, 211, 212, 213, 214, 215, 216, 217, 218, 219, 220, 221, 222, 223, 224, 225, 226, 227, 228, 229, 230, 231, 232, 233, 234, 235, 236, 237, 238, 239, 240, 241, 242, 243, 244, 245, 246, 247, 248, 249, 250, 251, 252, 253, 254, 255, 256, 257, 258, 259, 260, 261, 262, 263, 264, 265, 266, 267, 268, 269, 270, 271, 272, 273, 274, 275, 276, 277, 278, 279, 280, 281, 282, 283, 284, 285, 286, 287, 288, 289, 290, 291, 292, 293, 294, 295, 296, 297, 298, 299, 300, 301, 302, 303, 304, 305, 306, 307, 308, 309, 310, 311, 312, 313, 314, 315, 316, 317, 318, 319, 320, 321, 322, 323, 324, 325, 326, 327, 328, 329, 330, 331, 332, 333, 334, 335, 336, 337, 338, 339, 340, 341, 342, 343, 344, 345, 346, 347, 348, 349, 350, 351, 352, 353, 354, 355, 356, 357, 358, 359, 360, 361, 362, 363, 364, 365, 366, 367, 368, 369, 370, 371, 372, 373, 374, 375, 376, 377, 378, 379, 380, 381, 382, 383, 384, 385, 386, 387, 388, 389, 390, 391, 392, 393, 394, 395, 396, 397, 398, 399, 400, 401, 402, 403, 404, 405, 406, 407, 408, 409, 410, 411, 412, 413, 414, 415, 416, 417, 418, 419, 420, 421, 422, 423, 424, 425, 426, 427, 428, 429, 430, 431, 432, 433, 434, 435, 436, 437, 438, 439, 440, 441, 442, 443, 444, 445, 446, 447, 448, 449, 450, 451, 452, 453, 454, 455, 456, 457, 458, 459, 460, 461, 462, 463, 464, 465, 466, 467, 468, 469, 470, 471, 472, 473, 474, 475, 476, 477, 478, 479, 480, 481, 482, 483, 484, 485, 486, 487, 488, 489, 490, 491, 492, 493, 494, 495, 496, 497, 498, 499, 500, 501, 502, 503, 504, 505, 506, 507, 508, 509, 510, 511, 512, 513, 514, 515, 516, 517, 518, 519, 520, 521, 522, 523, 524, 525, 526, 527, 528, 529, 530, 531, 532, 533, 534, 535, 536, 537, 538, 539, 540, 541, 542, 543, 544, 545, 546, 547, 548, 549, 550, 551, 552, 553, 554, 555, 556, 557, 558, 559, 560, 561, 562, 563, 564, 565, 566, 567, 568, 569, 570, 571, 572, 573, 574, 575, 576, 577, 578, 579, 580, 581],
      "AcquisitionTime": ["165553.762500", "165554.552500", "165555.340000", "165556.127500", "165556.915000", "165557.705000", "165558.492500", "165559.280000", "165600.070000", "165600.857500", "165601.645000", "165602.432500", "165603.222500", "165604.010000", "165604.797500", "165605.585000", "165606.375000", "165607.162500", "165607.950000", "165608.737500", "165609.527500", "165610.315000", "165611.102500", "165611.890000", "165612.680000", "165613.467500", "165614.255000", "165615.045000", "165615.832500", "165616.620000", "165617.407500", "165618.197500", "165618.985000", "165619.772500", "165620.560000", "165621.350000", "165622.137500", "165622.925000", "165623.712500", "165624.502500", "165625.290000", "165626.077500", "165626.865000", "165627.655000", "165628.442500", "165629.230000", "165630.017500", "165630.807500", "165631.595000", "165632.382500", "165633.172500", "165633.960000", "165634.747500", "165635.535000", "165636.325000", "165637.112500", "165637.900000", "165638.687500", "165639.477500", "165640.265000", "165641.052500", "165641.840000", "165642.630000", "165643.417500", "165644.205000", "165644.992500", "165645.782500", "165646.570000", "165647.357500", "165648.145000", "165648.935000", "165649.722500", "165650.510000", "165651.300000", "165652.087500", "165652.875000", "165653.662500", "165654.452500", "165655.240000", "165656.027500", "165656.815000", "165657.605000", "165658.392500", "165659.180000", "165659.967500", "165700.757500", "165701.545000", "165702.332500", "165703.120000", "165703.910000", "165704.697500", "165705.485000", "165706.272500", "165707.062500", "165707.850000", "165708.637500", "165709.427500", "165710.215000", "165711.002500", "165711.790000", "165712.580000", "165713.367500", "165714.155000", "165714.942500", "165715.732500", "165716.520000", "165717.307500", "165718.095000", "165718.885000", "165719.672500", "165720.460000", "165721.247500", "165722.037500", "165722.825000", "165723.612500", "165724.400000", "165725.190000", "165725.977500", "165726.765000", "165727.555000", "165728.342500", "165729.130000", "165729.917500", "165730.707500", "165731.495000", "165732.282500", "165733.070000", "165733.860000", "165734.647500", "165735.435000", "165736.222500", "165737.012500", "165737.800000", "165738.587500", "165739.375000", "165740.165000", "165740.952500", "165741.740000", "165742.527500", "165743.317500", "165744.105000", "165744.892500", "165745.682500", "165746.470000", "165747.257500", "165748.045000", "165748.835000", "165749.622500", "165750.410000", "165751.197500", "165751.987500", "165752.775000", "165753.562500", "165754.350000", "165755.140000", "165755.927500", "165756.715000", "165757.502500", "165758.292500", "165759.080000", "165759.867500", "165800.655000", "165801.445000", "165802.232500", "165803.020000", "165803.810000", "165804.597500", "165805.385000", "165806.172500", "165806.962500", "165807.750000", "165808.537500", "165809.325000", "165810.115000", "165810.902500", "165811.690000", "165812.477500", "165813.267500", "165814.055000", "165814.842500", "165815.630000", "165816.420000", "165817.207500", "165817.995000", "165818.782500", "165819.572500", "165820.360000", "165821.147500", "165821.937500", "165822.725000", "165823.512500", "165824.300000", "165825.090000", "165825.877500", "165826.665000", "165827.452500", "165828.242500", "165829.030000", "165829.817500", "165830.605000", "165831.395000", "165832.182500", "165832.970000", "165833.757500", "165834.547500", "165835.335000", "165836.122500", "165836.910000", "165837.700000", "165838.487500", "165839.275000", "165840.065000", "165840.852500", "165841.640000", "165842.427500", "165843.217500", "165844.005000", "165844.792500", "165845.580000", "165846.370000", "165847.157500", "165847.945000", "165848.732500", "165849.522500", "165850.310000", "165851.097500", "165851.885000", "165852.675000", "165853.462500", "165854.250000", "165855.037500", "165855.827500", "165856.615000", "165857.402500", "165858.192500", "165858.980000", "165859.767500", "165900.555000", "165901.345000", "165902.132500", "165902.920000", "165903.707500", "165904.497500", "165905.285000", "165906.072500", "165906.860000", "165907.650000", "165908.437500", "165909.225000", "165910.012500", "165910.802500", "165911.590000", "165912.377500", "165913.165000", "165913.955000", "165914.742500", "165915.530000", "165916.320000", "165917.107500", "165917.895000", "165918.682500", "165919.472500", "165920.260000", "165921.047500", "165921.835000", "165922.625000", "165923.412500", "165924.200000", "165924.987500", "165925.777500", "165926.565000", "165927.352500", "165928.140000", "165928.930000", "165929.717500", "165930.505000", "165931.295000", "165932.082500", "165932.870000", "165933.657500", "165934.447500", "165935.235000", "165936.022500", "165936.810000", "165937.600000", "165938.387500", "165939.175000", "165939.962500", "165940.752500", "165941.540000", "165942.327500", "165943.115000", "165943.905000", "165944.692500", "165945.480000", "165946.267500", "165947.057500", "165947.845000", "165948.632500", "165949.422500", "165950.210000", "165950.997500", "165951.785000", "165952.575000", "165953.362500", "165954.150000", "165954.937500", "165955.727500", "165956.515000", "165957.302500", "165958.090000", "165958.880000", "165959.667500", "170000.455000", "170001.242500", "170002.032500", "170002.820000", "170003.607500", "170004.395000", "170005.185000", "170005.972500", "170006.760000", "170007.550000", "170008.337500", "170009.125000", "170009.912500", "170010.702500", "170011.490000", "170012.277500", "170013.065000", "170013.855000", "170014.642500", "170015.430000", "170016.217500", "170017.007500", "170017.795000", "170018.582500", "170019.370000", "170020.160000", "170020.947500", "170021.735000", "170022.522500", "170023.312500", "170024.100000", "170024.887500", "170025.677500", "170026.465000", "170027.252500", "170028.040000", "170028.830000", "170029.617500", "170030.405000", "170031.192500", "170031.982500", "170032.770000", "170033.557500", "170034.345000", "170035.135000", "170035.922500", "170036.710000", "170037.497500", "170038.287500", "170039.075000", "170039.862500", "170040.650000", "170041.440000", "170042.227500", "170043.015000", "170043.805000", "170044.592500", "170045.380000", "170046.167500", "170046.957500", "170047.745000", "170048.532500", "170049.320000", "170050.110000", "170050.897500", "170051.685000", "170052.472500", "170053.262500", "170054.050000", "170054.837500", "170055.625000", "170056.415000", "170057.202500", "170057.990000", "170058.777500", "170059.567500", "170100.355000", "170101.142500", "170101.932500", "170102.720000", "170103.507500", "170104.295000", "170105.085000", "170105.872500", "170106.660000", "170107.447500", "170108.237500", "170109.025000", "170109.812500", "170110.600000", "170111.390000", "170112.177500", "170112.965000", "170113.752500", "170114.542500", "170115.330000", "170116.117500", "170116.905000", "170117.695000", "170118.482500", "170119.270000", "170120.060000", "170120.847500", "170121.635000", "170122.422500", "170123.212500", "170124.000000", "170124.787500", "170125.575000", "170126.365000", "170127.152500", "170127.940000", "170128.727500", "170129.517500", "170130.305000", "170131.092500", "170131.880000", "170132.670000", "170133.457500", "170134.245000", "170135.032500", "170135.822500", "170136.610000", "170137.397500", "170138.187500", "170138.975000", "170139.762500", "170140.550000", "170141.340000", "170142.127500", "170142.915000", "170143.702500", "170144.492500", "170145.280000", "170146.067500", "170146.855000", "170147.645000", "170148.432500", "170149.220000", "170150.007500", "170150.797500", "170151.585000", "170152.372500", "170153.160000", "170153.950000", "170154.737500", "170155.525000", "170156.315000", "170157.102500", "170157.890000", "170158.677500", "170159.467500", "170200.255000", "170201.042500", "170201.830000", "170202.620000", "170203.407500", "170204.195000", "170204.982500", "170205.772500", "170206.560000", "170207.347500", "170208.135000", "170208.925000", "170209.712500", "170210.500000", "170211.287500", "170212.077500", "170212.865000", "170213.652500", "170214.442500", "170215.230000", "170216.017500", "170216.805000", "170217.595000", "170218.382500", "170219.170000", "170219.957500", "170220.747500", "170221.535000", "170222.322500", "170223.110000", "170223.900000", "170224.687500", "170225.475000", "170226.262500", "170227.052500", "170227.840000", "170228.627500", "170229.415000", "170230.205000", "170230.992500", "170231.780000", "170232.570000", "170233.357500", "170234.145000", "170234.932500", "170235.722500", "170236.510000", "170237.297500", "170238.085000", "170238.875000", "170239.662500", "170240.450000", "170241.237500", "170242.027500", "170242.815000", "170243.602500", "170244.390000", "170245.180000", "170245.967500", "170246.755000", "170247.545000", "170248.332500", "170249.120000", "170249.907500", "170250.697500", "170251.485000", "170252.272500", "170253.060000", "170253.850000", "170254.637500", "170255.425000", "170256.212500", "170257.002500", "170257.790000", "170258.577500", "170259.365000", "170300.155000", "170300.942500", "170301.730000", "170302.517500", "170303.307500", "170304.095000", "170304.882500", "170305.672500", "170306.460000", "170307.247500", "170308.035000", "170308.825000", "170309.612500", "170310.400000", "170311.187500", "170311.977500", "170312.765000", "170313.552500", "170314.340000", "170315.130000", "170315.917500", "170316.705000", "170317.492500", "170318.282500", "170319.070000", "170319.857500", "170320.645000", "170321.435000", "170322.222500", "170323.010000", "170323.800000", "170324.587500", "170325.375000", "170326.162500", "170326.952500", "170327.740000", "170328.527500", "170329.315000", "170330.105000", "170330.892500"],
      "ContentTime": ["165629.781000", "165629.781000", "165629.781000", "165629.781000", "165629.781000", "165629.796000", "165629.796000", "165629.796000", "165629.796000", "165629.796000", "165629.796000", "165629.812000", "165629.812000", "165629.812000", "165629.812000", "165629.828000", "165629.828000", "165629.828000", "165629.828000", "165629.828000", "165629.828000", "165629.828000", "165629.843000", "165629.843000", "165629.843000", "165629.843000", "165629.843000", "165629.843000", "165629.843000", "165629.859000", "165629.859000", "165629.859000", "165629.859000", "165629.859000", "165629.875000", "165629.875000", "165629.875000", "165629.875000", "165629.875000", "165629.875000", "165629.875000", "165629.890000", "165649.750000", "165649.750000", "165649.750000", "165649.765000", "165649.765000", "165649.765000", "165649.765000", "165649.765000", "165649.765000", "165649.781000", "165649.781000", "165649.781000", "165649.781000", "165649.781000", "165649.781000", "165649.781000", "165649.796000", "165649.796000", "165649.796000", "165649.796000", "165649.796000", "165649.796000", "165649.812000", "165649.812000", "165649.812000", "165709.750000", "165709.750000", "165709.750000", "165709.765000", "165709.765000", "165709.765000", "165709.765000", "165709.765000", "165709.765000", "165709.765000", "165709.781000", "165709.781000", "165709.781000", "165709.781000", "165709.781000", "165709.781000", "165709.781000", "165709.796000", "165709.796000", "165709.796000", "165709.796000", "165709.796000", "165709.812000", "165709.812000", "165709.812000", "165709.812000", "165729.750000", "165729.750000", "165729.750000", "165729.765000", "165729.765000", "165729.765000", "165729.765000", "165729.765000", "165729.765000", "165729.781000", "165729.781000", "165729.781000", "165729.781000", "165729.781000", "165729.796000", "165729.796000", "165729.796000", "165729.796000", "165729.796000", "165729.812000", "165729.812000", "165729.812000", "165729.812000", "165729.812000", "165729.812000", "165749.750000", "165749.750000", "165749.750000", "165749.765000", "165749.765000", "165749.765000", "165749.765000", "165749.765000", "165749.765000", "165749.765000", "165749.781000", "165749.781000", "165749.781000", "165749.781000", "165749.781000", "165749.781000", "165749.796000", "165749.796000", "165749.796000", "165749.796000", "165749.796000", "165749.796000", "165749.796000", "165749.812000", "165749.812000", "165749.812000", "165809.750000", "165809.750000", "165809.750000", "165809.765000", "165809.765000", "165809.765000", "165809.765000", "165809.765000", "165809.765000", "165809.765000", "165809.781000", "165809.781000", "165809.781000", "165809.781000", "165809.781000", "165809.781000", "165809.781000", "165809.796000", "165809.796000", "165809.796000", "165809.796000", "165809.796000", "165809.796000", "165809.812000", "165809.812000", "165829.750000", "165829.750000", "165829.750000", "165829.765000", "165829.765000", "165829.765000", "165829.765000", "165829.765000", "165829.765000", "165829.765000", "165829.781000", "165829.781000", "165829.781000", "165829.781000", "165829.781000", "165829.781000", "165829.781000", "165829.796000", "165829.796000", "165829.796000", "165829.796000", "165829.796000", "165829.796000", "165829.812000", "165829.812000", "165829.812000", "165849.750000", "165849.750000", "165849.750000", "165849.765000", "165849.765000", "165849.765000", "165849.765000", "165849.765000", "165849.765000", "165849.765000", "165849.781000", "165849.781000", "165849.781000", "165849.781000", "165849.781000", "165849.796000", "165849.796000", "165849.796000", "165849.796000", "165849.796000", "165849.796000", "165849.796000", "165849.812000", "165849.812000", "165849.812000", "165909.750000", "165909.750000", "165909.750000", "165909.765000", "165909.765000", "165909.765000", "165909.765000", "165909.765000", "165909.765000", "165909.765000", "165909.781000", "165909.781000", "165909.781000", "165909.781000", "165909.781000", "165909.781000", "165909.796000", "165909.796000", "165909.796000", "165909.796000", "165909.812000", "165909.812000", "165909.812000", "165909.812000", "165909.812000", "165909.812000", "165929.750000", "165929.750000", "165929.750000", "165929.765000", "165929.765000", "165929.765000", "165929.765000", "165929.765000", "165929.765000", "165929.765000", "165929.781000", "165929.781000", "165929.781000", "165929.781000", "165929.781000", "165929.781000", "165929.796000", "165929.796000", "165929.796000", "165929.796000", "165929.796000", "165929.796000", "165929.812000", "165929.812000", "165929.812000", "165949.750000", "165949.750000", "165949.750000", "165949.765000", "165949.765000", "165949.765000", "165949.765000", "165949.765000", "165949.765000", "165949.781000", "165949.781000", "165949.781000", "165949.781000", "165949.781000", "165949.781000", "165949.781000", "165949.796000", "165949.796000", "165949.796000", "165949.796000", "165949.796000", "165949.796000", "165949.812000", "165949.812000", "165949.812000", "165949.812000", "170009.750000", "170009.750000", "170009.750000", "170009.765000", "170009.765000", "170009.765000", "170009.765000", "170009.765000", "170009.781000", "170009.781000", "170009.781000", "170009.781000", "170009.781000", "170009.781000", "170009.781000", "170009.796000", "170009.796000", "170009.796000", "170009.796000", "170009.796000", "170009.812000", "170009.812000", "170009.812000", "170009.812000", "170009.812000", "170029.750000", "170029.750000", "170029.750000", "170029.765000", "170029.765000", "170029.765000", "170029.765000", "170029.765000", "170029.765000", "170029.781000", "170029.781000", "170029.781000", "170029.781000", "170029.781000", "170029.781000", "170029.781000", "170029.796000", "170029.796000", "170029.796000", "170029.796000", "170029.796000", "170029.796000", "170029.796000", "170029.812000", "170029.812000", "170029.812000", "170049.750000", "170049.750000", "170049.750000", "170049.765000", "170049.765000", "170049.765000", "170049.765000", "170049.765000", "170049.765000", "170049.781000", "170049.781000", "170049.781000", "170049.781000", "170049.781000", "170049.781000", "170049.781000", "170049.796000", "170049.796000", "170049.796000", "170049.796000", "170049.796000", "170049.796000", "170049.796000", "170049.812000", "170049.812000", "170109.750000", "170109.750000", "170109.750000", "170109.765000", "170109.765000", "170109.765000", "170109.765000", "170109.765000", "170109.781000", "170109.781000", "170109.781000", "170109.781000", "170109.781000", "170109.781000", "170109.781000", "170109.796000", "170109.796000", "170109.796000", "170109.796000", "170109.796000", "170109.796000", "170109.796000", "170109.812000", "170109.812000", "170109.812000", "170109.812000", "170129.750000", "170129.750000", "170129.750000", "170129.765000", "170129.765000", "170129.765000", "170129.765000", "170129.765000", "170129.765000", "170129.781000", "170129.781000", "170129.781000", "170129.781000", "170129.781000", "170129.781000", "170129.796000", "170129.796000", "170129.796000", "170129.796000", "170129.796000", "170129.796000", "170129.812000", "170129.812000", "170129.812000", "170129.812000", "170149.750000", "170149.750000", "170149.750000", "170149.765000", "170149.765000", "170149.765000", "170149.765000", "170149.765000", "170149.765000", "170149.765000", "170149.781000", "170149.781000", "170149.781000", "170149.781000", "170149.781000", "170149.781000", "170149.796000", "170149.796000", "170149.796000", "170149.796000", "170149.796000", "170149.796000", "170149.812000", "170149.812000", "170149.812000", "170149.812000", "170209.750000", "170209.750000", "170209.765000", "170209.765000", "170209.765000", "170209.765000", "170209.765000", "170209.765000", "170209.765000", "170209.781000", "170209.781000", "170209.781000", "170209.781000", "170209.781000", "170209.781000", "170209.781000", "170209.796000", "170209.796000", "170209.796000", "170209.796000", "170209.796000", "170209.796000", "170209.796000", "170209.812000", "170209.812000", "170229.750000", "170229.750000", "170229.750000", "170229.765000", "170229.765000", "170229.765000", "170229.765000", "170229.765000", "170229.781000", "170229.781000", "170229.781000", "170229.781000", "170229.781000", "170229.781000", "170229.781000", "170229.796000", "170229.796000", "170229.796000", "170229.796000", "170229.812000", "170229.812000", "170229.812000", "170229.812000", "170229.812000", "170229.812000", "170229.812000", "170249.750000", "170249.750000", "170249.765000", "170249.765000", "170249.765000", "170249.765000", "170249.765000", "170249.781000", "170249.781000", "170249.781000", "170249.781000", "170249.781000", "170249.781000", "170249.781000", "170249.796000", "170249.796000", "170249.796000", "170249.796000", "170249.796000", "170249.796000", "170249.796000", "170249.812000", "170249.812000", "170249.812000", "170249.812000", "170309.750000", "170309.750000", "170309.750000", "170309.765000", "170309.765000", "170309.765000", "170309.765000", "170309.765000", "170309.765000", "170309.781000", "170309.781000", "170309.781000", "170309.781000", "170309.781000", "170309.781000", "170309.781000", "170309.796000", "170309.796000", "170309.796000", "170309.796000", "170309.796000", "170309.796000", "170309.796000", "170309.812000", "170309.812000", "170309.812000", "170329.750000", "170329.750000", "170329.750000", "170329.765000", "170329.765000", "170329.765000", "170329.765000", "170329.765000", "170329.765000", "170329.781000", "170329.781000", "170329.781000", "170329.781000", "170329.781000", "170329.781000", "170329.781000", "170329.796000", "170329.796000", "170329.796000", "170329.796000", "170329.796000", "170329.796000", "170329.796000", "170329.812000", "170329.812000", "170332.609000", "170332.609000", "170332.609000", "170332.609000"],
      "DataSetTrailingPadding": [
        "\u0000\u0000\u0000\u0000\u0000\u0000\u0000\u0000\u0000\u0000\u0000\u0000\u0000\u0000\u0000\u0000\u0000\u0000\u0000\u0000\u0000\u0000\u0000\u0000\u0000\u0000\u0000\u0000\u0000\u0000\u0000\u0000\u0000\u0000\u0000\u0000\u0000\u0000\u0000\u0000\u0000\u0000\u0000\u0000\u0000\u0000\u0000\u0000\u0000\u0000\u0000\u0000\u0000\u0000\u0000\u0000\u0000\u0000\u0000\u0000\u0000\u0000\u0000\u0000\u0000\u0000\u0000\u0000\u0000\u0000\u0000\u0000\u0000\u0000\u0000\u0000\u0000\u0000\u0000\u0000\u0000\u0000\u0000\u0000\u0000\u0000\u0000\u0000\u0000\u0000\u0000\u0000\u0000\u0000\u0000\u0000\u0000\u0000\u0000\u0000\u0000\u0000\u0000\u0000\u0000\u0000\u0000\u0000\u0000\u0000\u0000\u0000\u0000\u0000\u0000\u0000\u0000\u0000\u0000\u0000\u0000\u0000\u0000\u0000\u0000\u0000\u0000\u0000\u0000\u0000\u0000\u0000\u0000\u0000\u0000\u0000\u0000\u0000\u0000\u0000\u0000\u0000\u0000\u0000\u0000\u0000\u0000\u0000\u0000\u0000\u0000\u0000\u0000\u0000\u0000\u0000\u0000\u0000\u0000\u0000\u0000\u0000\u0000\u0000\u0000\u0000\u0000\u0000\u0000\u0000\u0000\u0000\u0000\u0000\u0000\u0000\u0000\u0000\u0000\u0000\u0000\u0000\u0000\u0000\u0000\u0000\u0000\u0000\u0000\u0000\u0000\u0000\u0000\u0000\u0000\u0000\u0000\u0000\u0000\u0000\u0000\u0000\u0000\u0000\u0000\u0000\u0000\u0000\u0000\u0000\u0000\u0000\u0000\u0000\u0000\u0000\u0000\u0000\u0000\u0000\u0000\u0000\u0000\u0000\u0000\u0000\u0000\u0000\u0000\u0000\u0000\u0000\u0000\u0000\u0000\u0000\u0000\u0000\u0000\u0000\u0000\u0000\u0000\u0000\u0000\u0000\u0000\u0000\u0000\u0000\u0000\u0000\u0000\u0000\u0000\u0000\u0000\u0000\u0000\u0000\u0000\u0000\u0000\u0000\u0000\u0000\u0000\u0000\u0000\u0000\u0000\u0000\u0000\u0000\u0000\u0000\u0000\u0000\u0000\u0000\u0000\u0000\u0000\u0000\u0000\u0000\u0000\u0000\u0000\u0000\u0000\u0000\u0000\u0000\u0000\u0000\u0000\u0000\u0000\u0000",
