{
  "AcquisitionMatrixPE": 104,
  "AcquisitionNumber": 1,
  "AcquisitionTime": "14:59:46.705000",
  "BandwidthPerPixelPhaseEncode": 13.935,
  "BaseResolution": 104,
  "CoilString": "C:HEA;HEP",
  "ConversionSoftware": "dcm2niix",
  "ConversionSoftwareVersion": "v1.0.20210317",
  "DerivedVendorReportedEchoSpacing": 0.000690017,
  "DeviceSerialNumber": "35450",
  "DwellTime": 2.5e-06,
  "EchoTime": 0.0348,
  "EffectiveEchoSpacing": 0.000690017,
  "FlipAngle": 55,
  "ImageComments": "Unaliased MB8/PE3 (remote)",
  "ImageOrientationPatientDICOM": [1, 0, 0, 0, 0.99956, -0.0296662],
  "ImageType": [
    "ORIGINAL",
    "PRIMARY",
    "M",
    "MB",
    "ND",
    "MOSAIC"
],
  "ImagingFrequency": 123.234,
  "InPlanePhaseEncodingDirectionDICOM": "COL",
  "InstitutionAddress": "Univeristy Ave. 197,Newark,North East,US,07102-1814",
  "InstitutionName": "RUBIC",
  "InstitutionalDepartmentName": "Department",
  "MRAcquisitionType": "2D",
  "MagneticFieldStrength": 3,
  "Manufacturer": "Siemens",
  "ManufacturersModelName": "TrioTim",
  "Modality": "MR",
  "MultibandAccelerationFactor": 8,
  "PartialFourier": 0.875,
  "PatientPosition": "HFS",
  "PercentPhaseFOV": 100,
  "PercentSampling": 100,
  "PhaseEncodingDirection": "j-",
  "PhaseEncodingSteps": 91,
  "PhaseResolution": 1,
  "PixelBandwidth": 1923,
  "ProcedureStepDescription": "Cole^Michael",
  "ProtocolName": "cmrr_mbep2d_bold_2mm_MB8_Task_8x",
  "PulseSequenceDetails": "%CustomerSeq%\\cmrr_mbep2d_bold",
  "ReceiveCoilName": "32Ch_Head",
  "ReconMatrixPE": 104,
  "RepetitionTime": 0.785,
  "SAR": 0.126544,
  "ScanOptions": "PFP\\FS",
  "ScanningSequence": "EP",
  "SequenceName": "epfid2d1_104",
  "SequenceVariant": "SK\\SS",
  "SeriesDescription": "cmrr_mbep2d_bold_2mm_MB8_Task_8x",
  "SeriesNumber": 16,
  "ShimSetting": [2066, -459, -7244, 545, -68, -154, 113, 65],
  "SliceThickness": 2,
  "SliceTiming": [0, 0.4375, 0.0875, 0.525, 0.175, 0.6125, 0.2625, 0.7, 0.35, 0, 0.4375, 0.0875, 0.525, 0.175, 0.6125, 0.2625, 0.7, 0.35, 0, 0.4375, 0.0875, 0.525, 0.175, 0.6125, 0.2625, 0.7, 0.35, 0, 0.4375, 0.0875, 0.525, 0.175, 0.6125, 0.2625, 0.7, 0.35, 0, 0.4375, 0.0875, 0.525, 0.175, 0.6125, 0.2625, 0.7, 0.35, 0, 0.4375, 0.0875, 0.525, 0.175, 0.6125, 0.2625, 0.7, 0.35, 0, 0.4375, 0.0875, 0.525, 0.175, 0.6125, 0.2625, 0.7, 0.35, 0, 0.4375, 0.0875, 0.525, 0.175, 0.6125, 0.2625, 0.7, 0.35],
  "SoftwareVersions": "syngo MR B19",
  "SpacingBetweenSlices": 2,
  "StationName": "MRC35450",
  "TaskName": "cpro",
  "TotalReadoutTime": 0.0710717,
  "TxRefAmp": 302.372,
  "dcmmeta_affine": [
    [-2.0, 0.0, 0.0, 103.32203674316406],
    [0.0, 1.999119758605957, -0.05933248624205589, -81.2624740600586],
    [0.0, 0.05933248624205589, 1.999119758605957, -86.10166931152344],
    [0.0, 0.0, 0.0, 1.0]
],
  "dcmmeta_reorient_transform": [
    [0.0, -1.0, 0.0, 103.0],
    [1.0, 0.0, 0.0, 0.0],
    [0.0, 0.0, 1.0, 0.0],
    [0.0, 0.0, 0.0, 1.0]
],
  "dcmmeta_shape": [104, 104, 72, 581],
  "dcmmeta_slice_dim": 2,
  "dcmmeta_version": 0.6,
  "global": {
    "const": {
      "AcquisitionMatrix": [104, 0, 0, 104],
      "AngioFlag": "N",
      "BitsAllocated": 16,
      "BitsStored": 12,
      "Columns": 936,
      "EchoNumbers": 1,
      "EchoTime": 34.8,
      "EchoTrainLength": 1,
      "FlipAngle": 55.0,
      "HighBit": 11,
      "ImageOrientationPatient": [1.0, 0.0, 0.0, 0.0, 0.9995598601523, -0.0296662429762],
      "ImagePositionPatient": [-935.32203388214, -956.28066368507, -55.308110685594],
      "ImageType": [
        "ORIGINAL",
        "PRIMARY",
        "M",
        "MB",
        "ND",
        "MOSAIC"
],
      "ImagedNucleus": "1H",
      "ImagingFrequency": 123.23441,
      "InPlanePhaseEncodingDirection": "COL",
      "MRAcquisitionType": "2D",
      "MagneticFieldStrength": 3.0,
      "Manufacturer": "SIEMENS",
      "ManufacturerModelName": "TrioTim",
      "Modality": "MR",
      "NumberOfAverages": 1.0,
      "NumberOfPhaseEncodingSteps": 91,
      "PercentPhaseFieldOfView": 100.0,
      "PercentSampling": 100.0,
      "PerformedProcedureStepStartTime": "135737.171000",
      "PhotometricInterpretation": "MONOCHROME2",
      "PixelBandwidth": 1923.0,
      "PixelRepresentation": 0,
      "PixelSpacing": [2.0, 2.0],
      "ProtocolName": "cmrr_mbep2d_bold_2mm_MB8_Task_8x",
      "RepetitionTime": 785.0,
      "Rows": 936,
      "SAR": 0.12654421501112,
      "SamplesPerPixel": 1,
      "ScanOptions": [
        "PFP",
        "FS"
],
      "ScanningSequence": "EP",
      "SequenceName": "epfid2d1_104",
      "SequenceVariant": [
        "SK",
        "SS"
],
      "SeriesDescription": "cmrr_mbep2d_bold_2mm_MB8_Task_8x",
      "SeriesNumber": 16,
      "SeriesTime": "150013.359000",
      "SliceLocation": -83.653021904514,
      "SliceThickness": 2.0,
      "SmallestImagePixelValue": 0,
      "SoftwareVersions": "syngo MR B19",
      "SpacingBetweenSlices": 1.9999999979758,
      "SpecificCharacterSet": "ISO_IR 100",
      "StudyID": "1",
      "StudyTime": "135737.062000",
      "TransmitCoilName": "Body",
      "VariableFlipAngleFlag": "N",
      "WindowCenterWidthExplanation": "Algo1",
      "dBdt": 0.0},
    "slices": {}
  },
  "time": {
    "samples": {
      "AcquisitionNumber": [1, 2, 3, 4, 5, 6, 7, 8, 9, 10, 11, 12, 13, 14, 15, 16, 17, 18, 19, 20, 21, 22, 23, 24, 25, 26, 27, 28, 29, 30, 31, 32, 33, 34, 35, 36, 37, 38, 39, 40, 41, 42, 43, 44, 45, 46, 47, 48, 49, 50, 51, 52, 53, 54, 55, 56, 57, 58, 59, 60, 61, 62, 63, 64, 65, 66, 67, 68, 69, 70, 71, 72, 73, 74, 75, 76, 77, 78, 79, 80, 81, 82, 83, 84, 85, 86, 87, 88, 89, 90, 91, 92, 93, 94, 95, 96, 97, 98, 99, 100, 101, 102, 103, 104, 105, 106, 107, 108, 109, 110, 111, 112, 113, 114, 115, 116, 117, 118, 119, 120, 121, 122, 123, 124, 125, 126, 127, 128, 129, 130, 131, 132, 133, 134, 135, 136, 137, 138, 139, 140, 141, 142, 143, 144, 145, 146, 147, 148, 149, 150, 151, 152, 153, 154, 155, 156, 157, 158, 159, 160, 161, 162, 163, 164, 165, 166, 167, 168, 169, 170, 171, 172, 173, 174, 175, 176, 177, 178, 179, 180, 181, 182, 183, 184, 185, 186, 187, 188, 189, 190, 191, 192, 193, 194, 195, 196, 197, 198, 199, 200, 201, 202, 203, 204, 205, 206, 207, 208, 209, 210, 211, 212, 213, 214, 215, 216, 217, 218, 219, 220, 221, 222, 223, 224, 225, 226, 227, 228, 229, 230, 231, 232, 233, 234, 235, 236, 237, 238, 239, 240, 241, 242, 243, 244, 245, 246, 247, 248, 249, 250, 251, 252, 253, 254, 255, 256, 257, 258, 259, 260, 261, 262, 263, 264, 265, 266, 267, 268, 269, 270, 271, 272, 273, 274, 275, 276, 277, 278, 279, 280, 281, 282, 283, 284, 285, 286, 287, 288, 289, 290, 291, 292, 293, 294, 295, 296, 297, 298, 299, 300, 301, 302, 303, 304, 305, 306, 307, 308, 309, 310, 311, 312, 313, 314, 315, 316, 317, 318, 319, 320, 321, 322, 323, 324, 325, 326, 327, 328, 329, 330, 331, 332, 333, 334, 335, 336, 337, 338, 339, 340, 341, 342, 343, 344, 345, 346, 347, 348, 349, 350, 351, 352, 353, 354, 355, 356, 357, 358, 359, 360, 361, 362, 363, 364, 365, 366, 367, 368, 369, 370, 371, 372, 373, 374, 375, 376, 377, 378, 379, 380, 381, 382, 383, 384, 385, 386, 387, 388, 389, 390, 391, 392, 393, 394, 395, 396, 397, 398, 399, 400, 401, 402, 403, 404, 405, 406, 407, 408, 409, 410, 411, 412, 413, 414, 415, 416, 417, 418, 419, 420, 421, 422, 423, 424, 425, 426, 427, 428, 429, 430, 431, 432, 433, 434, 435, 436, 437, 438, 439, 440, 441, 442, 443, 444, 445, 446, 447, 448, 449, 450, 451, 452, 453, 454, 455, 456, 457, 458, 459, 460, 461, 462, 463, 464, 465, 466, 467, 468, 469, 470, 471, 472, 473, 474, 475, 476, 477, 478, 479, 480, 481, 482, 483, 484, 485, 486, 487, 488, 489, 490, 491, 492, 493, 494, 495, 496, 497, 498, 499, 500, 501, 502, 503, 504, 505, 506, 507, 508, 509, 510, 511, 512, 513, 514, 515, 516, 517, 518, 519, 520, 521, 522, 523, 524, 525, 526, 527, 528, 529, 530, 531, 532, 533, 534, 535, 536, 537, 538, 539, 540, 541, 542, 543, 544, 545, 546, 547, 548, 549, 550, 551, 552, 553, 554, 555, 556, 557, 558, 559, 560, 561, 562, 563, 564, 565, 566, 567, 568, 569, 570, 571, 572, 573, 574, 575, 576, 577, 578, 579, 580, 581],
      "AcquisitionTime": ["145946.705000", "145947.492500", "145948.280000", "145949.067500", "145949.857500", "145950.645000", "145951.432500", "145952.220000", "145953.010000", "145953.797500", "145954.585000", "145955.372500", "145956.162500", "145956.950000", "145957.737500", "145958.525000", "145959.315000", "150000.102500", "150000.890000", "150001.680000", "150002.467500", "150003.255000", "150004.042500", "150004.832500", "150005.620000", "150006.407500", "150007.195000", "150007.985000", "150008.772500", "150009.560000", "150010.347500", "150011.137500", "150011.925000", "150012.712500", "150013.500000", "150014.290000", "150015.077500", "150015.865000", "150016.652500", "150017.442500", "150018.230000", "150019.017500", "150019.807500", "150020.595000", "150021.382500", "150022.170000", "150022.960000", "150023.747500", "150024.535000", "150025.322500", "150026.112500", "150026.900000", "150027.687500", "150028.475000", "150029.265000", "150030.052500", "150030.840000", "150031.627500", "150032.417500", "150033.205000", "150033.992500", "150034.780000", "150035.570000", "150036.357500", "150037.145000", "150037.935000", "150038.722500", "150039.510000", "150040.297500", "150041.087500", "150041.875000", "150042.662500", "150043.450000", "150044.240000", "150045.027500", "150045.815000", "150046.602500", "150047.392500", "150048.180000", "150048.967500", "150049.755000", "150050.545000", "150051.332500", "150052.120000", "150052.907500", "150053.697500", "150054.485000", "150055.272500", "150056.062500", "150056.850000", "150057.637500", "150058.425000", "150059.215000", "150100.002500", "150100.790000", "150101.577500", "150102.367500", "150103.155000", "150103.942500", "150104.730000", "150105.520000", "150106.307500", "150107.095000", "150107.882500", "150108.672500", "150109.460000", "150110.247500", "150111.035000", "150111.825000", "150112.612500", "150113.400000", "150114.190000", "150114.977500", "150115.765000", "150116.552500", "150117.342500", "150118.130000", "150118.917500", "150119.705000", "150120.495000", "150121.282500", "150122.070000", "150122.857500", "150123.647500", "150124.435000", "150125.222500", "150126.010000", "150126.800000", "150127.587500", "150128.375000", "150129.162500", "150129.952500", "150130.740000", "150131.527500", "150132.317500", "150133.105000", "150133.892500", "150134.680000", "150135.470000", "150136.257500", "150137.045000", "150137.832500", "150138.622500", "150139.410000", "150140.197500", "150140.985000", "150141.775000", "150142.562500", "150143.350000", "150144.137500", "150144.927500", "150145.715000", "150146.502500", "150147.290000", "150148.080000", "150148.867500", "150149.655000", "150150.445000", "150151.232500", "150152.020000", "150152.807500", "150153.597500", "150154.385000", "150155.172500", "150155.960000", "150156.750000", "150157.537500", "150158.325000", "150159.112500", "150159.902500", "150200.690000", "150201.477500", "150202.265000", "150203.055000", "150203.842500", "150204.630000", "150205.417500", "150206.207500", "150206.995000", "150207.782500", "150208.572500", "150209.360000", "150210.147500", "150210.935000", "150211.725000", "150212.512500", "150213.300000", "150214.087500", "150214.877500", "150215.665000", "150216.452500", "150217.240000", "150218.030000", "150218.817500", "150219.605000", "150220.392500", "150221.182500", "150221.970000", "150222.757500", "150223.545000", "150224.335000", "150225.122500", "150225.910000", "150226.700000", "150227.487500", "150228.275000", "150229.062500", "150229.852500", "150230.640000", "150231.427500", "150232.215000", "150233.005000", "150233.792500", "150234.580000", "150235.367500", "150236.157500", "150236.945000", "150237.732500", "150238.520000", "150239.310000", "150240.097500", "150240.885000", "150241.672500", "150242.462500", "150243.250000", "150244.037500", "150244.827500", "150245.615000", "150246.402500", "150247.190000", "150247.980000", "150248.767500", "150249.555000", "150250.342500", "150251.132500", "150251.920000", "150252.707500", "150253.495000", "150254.285000", "150255.072500", "150255.860000", "150256.647500", "150257.437500", "150258.225000", "150259.012500", "150259.800000", "150300.590000", "150301.377500", "150302.165000", "150302.955000", "150303.742500", "150304.530000", "150305.317500", "150306.107500", "150306.895000", "150307.682500", "150308.470000", "150309.260000", "150310.047500", "150310.835000", "150311.622500", "150312.412500", "150313.200000", "150313.987500", "150314.775000", "150315.565000", "150316.352500", "150317.140000", "150317.930000", "150318.717500", "150319.505000", "150320.292500", "150321.082500", "150321.870000", "150322.657500", "150323.445000", "150324.235000", "150325.022500", "150325.810000", "150326.597500", "150327.387500", "150328.175000", "150328.962500", "150329.750000", "150330.540000", "150331.327500", "150332.115000", "150332.902500", "150333.692500", "150334.480000", "150335.267500", "150336.057500", "150336.845000", "150337.632500", "150338.420000", "150339.210000", "150339.997500", "150340.785000", "150341.572500", "150342.362500", "150343.150000", "150343.937500", "150344.725000", "150345.515000", "150346.302500", "150347.090000", "150347.877500", "150348.667500", "150349.455000", "150350.242500", "150351.030000", "150351.820000", "150352.607500", "150353.395000", "150354.185000", "150354.972500", "150355.760000", "150356.547500", "150357.337500", "150358.125000", "150358.912500", "150359.700000", "150400.490000", "150401.277500", "150402.065000", "150402.852500", "150403.642500", "150404.430000", "150405.217500", "150406.005000", "150406.795000", "150407.582500", "150408.370000", "150409.157500", "150409.947500", "150410.735000", "150411.522500", "150412.312500", "150413.100000", "150413.887500", "150414.675000", "150415.465000", "150416.252500", "150417.040000", "150417.827500", "150418.617500", "150419.405000", "150420.192500", "150420.980000", "150421.770000", "150422.557500", "150423.345000", "150424.132500", "150424.922500", "150425.710000", "150426.497500", "150427.285000", "150428.075000", "150428.862500", "150429.650000", "150430.440000", "150431.227500", "150432.015000", "150432.802500", "150433.592500", "150434.380000", "150435.167500", "150435.955000", "150436.745000", "150437.532500", "150438.320000", "150439.107500", "150439.897500", "150440.685000", "150441.472500", "150442.260000", "150443.050000", "150443.837500", "150444.625000", "150445.412500", "150446.202500", "150446.990000", "150447.777500", "150448.567500", "150449.355000", "150450.142500", "150450.930000", "150451.720000", "150452.507500", "150453.295000", "150454.082500", "150454.872500", "150455.660000", "150456.447500", "150457.235000", "150458.025000", "150458.812500", "150459.600000", "150500.387500", "150501.177500", "150501.965000", "150502.752500", "150503.540000", "150504.330000", "150505.117500", "150505.905000", "150506.695000", "150507.482500", "150508.270000", "150509.057500", "150509.847500", "150510.635000", "150511.422500", "150512.210000", "150513.000000", "150513.787500", "150514.575000", "150515.362500", "150516.152500", "150516.940000", "150517.727500", "150518.515000", "150519.305000", "150520.092500", "150520.880000", "150521.667500", "150522.457500", "150523.245000", "150524.032500", "150524.822500", "150525.610000", "150526.397500", "150527.185000", "150527.975000", "150528.762500", "150529.550000", "150530.337500", "150531.127500", "150531.915000", "150532.702500", "150533.490000", "150534.280000", "150535.067500", "150535.855000", "150536.642500", "150537.432500", "150538.220000", "150539.007500", "150539.795000", "150540.585000", "150541.372500", "150542.160000", "150542.950000", "150543.737500", "150544.525000", "150545.312500", "150546.102500", "150546.890000", "150547.677500", "150548.465000", "150549.255000", "150550.042500", "150550.830000", "150551.617500", "150552.407500", "150553.195000", "150553.982500", "150554.770000", "150555.560000", "150556.347500", "150557.135000", "150557.922500", "150558.712500", "150559.500000", "150600.287500", "150601.077500", "150601.865000", "150602.652500", "150603.440000", "150604.230000", "150605.017500", "150605.805000", "150606.592500", "150607.382500", "150608.170000", "150608.957500", "150609.745000", "150610.535000", "150611.322500", "150612.110000", "150612.897500", "150613.687500", "150614.475000", "150615.262500", "150616.050000", "150616.840000", "150617.627500", "150618.415000", "150619.205000", "150619.992500", "150620.780000", "150621.567500", "150622.357500", "150623.145000", "150623.932500", "150624.720000", "150625.510000", "150626.297500", "150627.085000", "150627.872500", "150628.662500", "150629.450000", "150630.237500", "150631.025000", "150631.815000", "150632.602500", "150633.390000", "150634.180000", "150634.967500", "150635.755000", "150636.542500", "150637.332500", "150638.120000", "150638.907500", "150639.695000", "150640.485000", "150641.272500", "150642.060000", "150642.847500", "150643.637500", "150644.425000", "150645.212500", "150646.000000", "150646.790000", "150647.577500", "150648.365000", "150649.152500", "150649.942500", "150650.730000", "150651.517500", "150652.307500", "150653.095000", "150653.882500", "150654.670000", "150655.460000", "150656.247500", "150657.035000", "150657.822500", "150658.612500", "150659.400000", "150700.187500", "150700.975000", "150701.765000", "150702.552500", "150703.340000", "150704.127500", "150704.917500", "150705.705000", "150706.492500", "150707.280000", "150708.070000", "150708.857500", "150709.645000", "150710.435000", "150711.222500", "150712.010000", "150712.797500", "150713.587500", "150714.375000", "150715.162500", "150715.950000", "150716.740000", "150717.527500", "150718.315000", "150719.102500", "150719.892500", "150720.680000", "150721.467500", "150722.255000", "150723.045000", "150723.832500"],
      "ContentTime": ["150013.359000", "150013.359000", "150013.375000", "150013.375000", "150013.375000", "150013.375000", "150013.375000", "150013.375000", "150013.375000", "150013.390000", "150013.390000", "150013.390000", "150013.390000", "150013.390000", "150013.390000", "150013.390000", "150013.406000", "150013.406000", "150013.406000", "150013.406000", "150013.406000", "150013.406000", "150013.406000", "150013.421000", "150013.421000", "150013.421000", "150013.421000", "150013.421000", "150013.437000", "150013.437000", "150013.437000", "150033.343000", "150033.343000", "150033.343000", "150033.343000", "150033.359000", "150033.359000", "150033.359000", "150033.359000", "150033.359000", "150033.359000", "150033.359000", "150033.375000", "150033.375000", "150033.375000", "150033.375000", "150033.375000", "150033.375000", "150033.375000", "150033.390000", "150033.390000", "150033.390000", "150033.390000", "150033.390000", "150033.390000", "150033.406000", "150053.343000", "150053.343000", "150053.343000", "150053.343000", "150053.359000", "150053.359000", "150053.359000", "150053.359000", "150053.359000", "150053.359000", "150053.359000", "150053.359000", "150053.375000", "150053.375000", "150053.375000", "150053.375000", "150053.375000", "150053.375000", "150053.390000", "150053.390000", "150053.390000", "150053.390000", "150053.390000", "150053.390000", "150053.406000", "150053.406000", "150113.343000", "150113.343000", "150113.343000", "150113.343000", "150113.359000", "150113.359000", "150113.359000", "150113.359000", "150113.359000", "150113.359000", "150113.359000", "150113.375000", "150113.375000", "150113.375000", "150113.375000", "150113.375000", "150113.375000", "150113.375000", "150113.390000", "150113.390000", "150113.390000", "150113.390000", "150113.390000", "150113.390000", "150113.406000", "150133.343000", "150133.343000", "150133.343000", "150133.343000", "150133.343000", "150133.359000", "150133.359000", "150133.359000", "150133.359000", "150133.359000", "150133.359000", "150133.359000", "150133.375000", "150133.375000", "150133.375000", "150133.375000", "150133.375000", "150133.375000", "150133.375000", "150133.390000", "150133.390000", "150133.390000", "150133.390000", "150133.390000", "150133.390000", "150133.390000", "150153.343000", "150153.343000", "150153.343000", "150153.343000", "150153.359000", "150153.359000", "150153.359000", "150153.359000", "150153.359000", "150153.359000", "150153.359000", "150153.375000", "150153.375000", "150153.375000", "150153.375000", "150153.375000", "150153.375000", "150153.375000", "150153.390000", "150153.390000", "150153.390000", "150153.390000", "150153.390000", "150153.390000", "150153.390000", "150213.343000", "150213.343000", "150213.343000", "150213.343000", "150213.359000", "150213.359000", "150213.359000", "150213.359000", "150213.359000", "150213.359000", "150213.359000", "150213.375000", "150213.375000", "150213.375000", "150213.375000", "150213.375000", "150213.375000", "150213.375000", "150213.390000", "150213.390000", "150213.390000", "150213.390000", "150213.390000", "150213.390000", "150213.390000", "150213.406000", "150233.343000", "150233.343000", "150233.343000", "150233.343000", "150233.359000", "150233.359000", "150233.359000", "150233.359000", "150233.359000", "150233.359000", "150233.375000", "150233.375000", "150233.375000", "150233.375000", "150233.375000", "150233.375000", "150233.375000", "150233.390000", "150233.390000", "150233.390000", "150233.390000", "150233.390000", "150233.390000", "150233.406000", "150233.406000", "150253.343000", "150253.343000", "150253.343000", "150253.343000", "150253.359000", "150253.359000", "150253.359000", "150253.359000", "150253.359000", "150253.359000", "150253.359000", "150253.375000", "150253.375000", "150253.375000", "150253.375000", "150253.375000", "150253.375000", "150253.375000", "150253.390000", "150253.390000", "150253.390000", "150253.390000", "150253.390000", "150253.390000", "150253.390000", "150253.406000", "150313.343000", "150313.343000", "150313.343000", "150313.343000", "150313.359000", "150313.359000", "150313.359000", "150313.359000", "150313.359000", "150313.359000", "150313.359000", "150313.375000", "150313.375000", "150313.375000", "150313.375000", "150313.375000", "150313.375000", "150313.375000", "150313.390000", "150313.390000", "150313.390000", "150313.390000", "150313.390000", "150313.390000", "150313.390000", "150333.343000", "150333.343000", "150333.343000", "150333.343000", "150333.359000", "150333.359000", "150333.359000", "150333.359000", "150333.359000", "150333.359000", "150333.359000", "150333.375000", "150333.375000", "150333.375000", "150333.375000", "150333.375000", "150333.390000", "150333.390000", "150333.390000", "150333.390000", "150333.390000", "150333.390000", "150333.390000", "150333.406000", "150333.406000", "150333.406000", "150353.343000", "150353.343000", "150353.343000", "150353.343000", "150353.359000", "150353.359000", "150353.359000", "150353.359000", "150353.359000", "150353.359000", "150353.359000", "150353.375000", "150353.375000", "150353.375000", "150353.375000", "150353.375000", "150353.375000", "150353.375000", "150353.390000", "150353.390000", "150353.390000", "150353.390000", "150353.390000", "150353.390000", "150353.390000", "150413.343000", "150413.343000", "150413.343000", "150413.343000", "150413.359000", "150413.359000", "150413.359000", "150413.359000", "150413.375000", "150413.375000", "150413.375000", "150413.375000", "150413.375000", "150413.375000", "150413.390000", "150413.390000", "150413.390000", "150413.390000", "150413.390000", "150413.390000", "150413.390000", "150413.406000", "150413.406000", "150413.406000", "150413.406000", "150433.343000", "150433.343000", "150433.343000", "150433.343000", "150433.359000", "150433.359000", "150433.359000", "150433.359000", "150433.359000", "150433.359000", "150433.359000", "150433.375000", "150433.375000", "150433.375000", "150433.375000", "150433.375000", "150433.375000", "150433.375000", "150433.390000", "150433.390000", "150433.390000", "150433.390000", "150433.390000", "150433.390000", "150433.390000", "150433.406000", "150453.343000", "150453.343000", "150453.343000", "150453.343000", "150453.359000", "150453.359000", "150453.359000", "150453.359000", "150453.359000", "150453.359000", "150453.359000", "150453.375000", "150453.375000", "150453.375000", "150453.375000", "150453.375000", "150453.375000", "150453.375000", "150453.390000", "150453.390000", "150453.390000", "150453.390000", "150453.390000", "150453.390000", "150453.390000", "150453.406000", "150513.343000", "150513.343000", "150513.343000", "150513.343000", "150513.359000", "150513.359000", "150513.359000", "150513.359000", "150513.359000", "150513.359000", "150513.359000", "150513.375000", "150513.375000", "150513.375000", "150513.375000", "150513.375000", "150513.375000", "150513.375000", "150513.390000", "150513.390000", "150513.390000", "150513.390000", "150513.390000", "150513.390000", "150513.390000", "150533.343000", "150533.343000", "150533.343000", "150533.343000", "150533.359000", "150533.359000", "150533.359000", "150533.359000", "150533.359000", "150533.359000", "150533.375000", "150533.375000", "150533.375000", "150533.375000", "150533.375000", "150533.375000", "150533.390000", "150533.390000", "150533.390000", "150533.390000", "150533.390000", "150533.390000", "150533.406000", "150533.406000", "150533.406000", "150533.406000", "150553.343000", "150553.343000", "150553.343000", "150553.343000", "150553.359000", "150553.359000", "150553.359000", "150553.359000", "150553.359000", "150553.359000", "150553.359000", "150553.375000", "150553.375000", "150553.375000", "150553.375000", "150553.375000", "150553.375000", "150553.375000", "150553.390000", "150553.390000", "150553.390000", "150553.390000", "150553.390000", "150553.390000", "150553.390000", "150613.343000", "150613.343000", "150613.343000", "150613.343000", "150613.359000", "150613.359000", "150613.359000", "150613.359000", "150613.359000", "150613.359000", "150613.359000", "150613.375000", "150613.375000", "150613.375000", "150613.375000", "150613.375000", "150613.375000", "150613.375000", "150613.390000", "150613.390000", "150613.390000", "150613.390000", "150613.390000", "150613.390000", "150613.390000", "150613.406000", "150633.343000", "150633.343000", "150633.343000", "150633.343000", "150633.359000", "150633.359000", "150633.359000", "150633.359000", "150633.359000", "150633.359000", "150633.359000", "150633.375000", "150633.375000", "150633.375000", "150633.375000", "150633.375000", "150633.375000", "150633.375000", "150633.390000", "150633.390000", "150633.390000", "150633.390000", "150633.390000", "150633.390000", "150633.390000", "150653.343000", "150653.375000", "150653.375000", "150653.375000", "150653.375000", "150653.390000", "150653.390000", "150653.390000", "150653.390000", "150653.390000", "150653.390000", "150653.390000", "150653.406000", "150653.406000", "150653.406000", "150653.406000", "150653.406000", "150653.406000", "150653.421000", "150653.421000", "150653.421000", "150653.421000", "150653.421000", "150653.421000", "150653.421000", "150713.343000", "150713.343000", "150713.343000", "150713.343000", "150713.359000", "150713.359000", "150713.359000", "150713.359000", "150713.359000", "150713.359000", "150713.375000", "150713.375000", "150713.375000", "150713.375000", "150713.375000", "150713.375000", "150713.390000", "150713.390000", "150713.390000", "150713.390000", "150713.390000", "150713.390000", "150713.390000", "150713.406000", "150713.406000", "150713.406000", "150724.843000", "150724.843000", "150724.843000", "150724.859000", "150724.859000", "150724.859000", "150724.859000", "150724.859000", "150724.875000", "150724.875000", "150724.875000", "150724.875000", "150724.875000", "150724.875000", "150724.875000"],
      "DataSetTrailingPadding": [
