{
  "AcquisitionMatrixPE": 104,
  "AcquisitionNumber": 1,
  "AcquisitionTime": "14:28:5.250000",
  "BandwidthPerPixelPhaseEncode": 13.935,
  "BaseResolution": 104,
  "CoilString": "C:HEA;HEP",
  "ConversionSoftware": "dcm2niix",
  "ConversionSoftwareVersion": "v1.0.20210317",
  "DerivedVendorReportedEchoSpacing": 0.000690017,
  "DeviceSerialNumber": "35450",
  "DwellTime": 2.5e-06,
  "EchoTime": 0.0348,
  "EffectiveEchoSpacing": 0.000690017,
  "FlipAngle": 55,
  "ImageComments": "Unaliased MB8/PE3 (remote)",
  "ImageOrientationPatientDICOM": [1, 0, 0, 0, 0.99956, -0.0296662],
  "ImageType": [
    "ORIGINAL",
    "PRIMARY",
    "M",
    "MB",
    "ND",
    "MOSAIC"
],
  "ImagingFrequency": 123.234,
  "InPlanePhaseEncodingDirectionDICOM": "COL",
  "InstitutionAddress": "Univeristy Ave. 197,Newark,North East,US,07102-1814",
  "InstitutionName": "RUBIC",
  "InstitutionalDepartmentName": "Department",
  "MRAcquisitionType": "2D",
  "MagneticFieldStrength": 3,
  "Manufacturer": "Siemens",
  "ManufacturersModelName": "TrioTim",
  "Modality": "MR",
  "MultibandAccelerationFactor": 8,
  "PartialFourier": 0.875,
  "PatientPosition": "HFS",
  "PercentPhaseFOV": 100,
  "PercentSampling": 100,
  "PhaseEncodingDirection": "j-",
  "PhaseEncodingSteps": 91,
  "PhaseResolution": 1,
  "PixelBandwidth": 1923,
  "ProcedureStepDescription": "Cole^Michael",
  "ProtocolName": "cmrr_mbep2d_bold_2mm_MB8_Rest",
  "PulseSequenceDetails": "%CustomerSeq%\\cmrr_mbep2d_bold",
  "ReceiveCoilName": "32Ch_Head",
  "ReconMatrixPE": 104,
  "RepetitionTime": 0.785,
  "SAR": 0.139692,
  "ScanOptions": "PFP\\FS",
  "ScanningSequence": "EP",
  "SequenceName": "epfid2d1_104",
  "SequenceVariant": "SK\\SS",
  "SeriesDescription": "cmrr_mbep2d_bold_2mm_MB8_Rest",
  "SeriesNumber": 10,
  "ShimSetting": [2066, -459, -7244, 545, -68, -154, 113, 65],
  "SliceThickness": 2,
  "SliceTiming": [0, 0.4375, 0.0875, 0.525, 0.175, 0.6125, 0.2625, 0.7, 0.35, 0, 0.4375, 0.0875, 0.525, 0.175, 0.6125, 0.2625, 0.7, 0.35, 0, 0.4375, 0.0875, 0.525, 0.175, 0.6125, 0.2625, 0.7, 0.35, 0, 0.4375, 0.0875, 0.525, 0.175, 0.6125, 0.2625, 0.7, 0.35, 0, 0.4375, 0.0875, 0.525, 0.175, 0.6125, 0.2625, 0.7, 0.35, 0, 0.4375, 0.0875, 0.525, 0.175, 0.6125, 0.2625, 0.7, 0.35, 0, 0.4375, 0.0875, 0.525, 0.175, 0.6125, 0.2625, 0.7, 0.35, 0, 0.4375, 0.0875, 0.525, 0.175, 0.6125, 0.2625, 0.7, 0.35],
  "SoftwareVersions": "syngo MR B19",
  "SpacingBetweenSlices": 2,
  "StationName": "MRC35450",
  "TaskName": "rest",
  "TotalReadoutTime": 0.0710717,
  "TxRefAmp": 302.372,
  "dcmmeta_affine": [
    [-2.0, 0.0, 0.0, 103.32203674316406],
    [0.0, 1.999119758605957, -0.05933248624205589, -81.2624740600586],
    [0.0, 0.05933248624205589, 1.999119758605957, -86.10166931152344],
    [0.0, 0.0, 0.0, 1.0]
],
  "dcmmeta_reorient_transform": [
    [0.0, -1.0, 0.0, 103.0],
    [1.0, 0.0, 0.0, 0.0],
    [0.0, 0.0, 1.0, 0.0],
    [0.0, 0.0, 0.0, 1.0]
],
  "dcmmeta_shape": [104, 104, 72, 1070],
  "dcmmeta_slice_dim": 2,
  "dcmmeta_version": 0.6,
  "global": {
    "const": {
      "AcquisitionMatrix": [104, 0, 0, 104],
      "AngioFlag": "N",
      "BitsAllocated": 16,
      "BitsStored": 12,
      "Columns": 936,
      "EchoNumbers": 1,
      "EchoTime": 34.8,
      "EchoTrainLength": 1,
      "FlipAngle": 55.0,
      "HighBit": 11,
      "ImageOrientationPatient": [1.0, 0.0, 0.0, 0.0, 0.9995598601523, -0.0296662429762],
      "ImagePositionPatient": [-935.32203388214, -956.28066368507, -55.308110685594],
      "ImageType": [
        "ORIGINAL",
        "PRIMARY",
        "M",
        "MB",
        "ND",
        "MOSAIC"
],
      "ImagedNucleus": "1H",
      "ImagingFrequency": 123.234345,
      "InPlanePhaseEncodingDirection": "COL",
      "MRAcquisitionType": "2D",
      "MagneticFieldStrength": 3.0,
      "Manufacturer": "SIEMENS",
      "ManufacturerModelName": "TrioTim",
      "Modality": "MR",
      "NumberOfAverages": 1.0,
      "NumberOfPhaseEncodingSteps": 91,
      "PercentPhaseFieldOfView": 100.0,
      "PercentSampling": 100.0,
      "PerformedProcedureStepStartTime": "135737.171000",
      "PhotometricInterpretation": "MONOCHROME2",
      "PixelBandwidth": 1923.0,
      "PixelRepresentation": 0,
      "PixelSpacing": [2.0, 2.0],
      "ProtocolName": "cmrr_mbep2d_bold_2mm_MB8_Rest",
      "RepetitionTime": 785.0,
      "Rows": 936,
      "SAR": 0.13969152574476,
      "SamplesPerPixel": 1,
      "ScanOptions": [
        "PFP",
        "FS"
],
      "ScanningSequence": "EP",
      "SequenceName": "epfid2d1_104",
      "SequenceVariant": [
        "SK",
        "SS"
],
      "SeriesDescription": "cmrr_mbep2d_bold_2mm_MB8_Rest",
      "SeriesNumber": 10,
      "SeriesTime": "142833.375000",
      "SliceLocation": -83.653021904514,
      "SliceThickness": 2.0,
      "SmallestImagePixelValue": 0,
      "SoftwareVersions": "syngo MR B19",
      "SpacingBetweenSlices": 1.9999999979758,
      "SpecificCharacterSet": "ISO_IR 100",
      "StudyID": "1",
      "StudyTime": "135737.062000",
      "TransmitCoilName": "Body",
      "VariableFlipAngleFlag": "N",
      "WindowCenterWidthExplanation": "Algo1",
      "dBdt": 0.0},
    "slices": {}
  },
  "time": {
    "samples": {
      "AcquisitionNumber": [1, 2, 3, 4, 5, 6, 7, 8, 9, 10, 11, 12, 13, 14, 15, 16, 17, 18, 19, 20, 21, 22, 23, 24, 25, 26, 27, 28, 29, 30, 31, 32, 33, 34, 35, 36, 37, 38, 39, 40, 41, 42, 43, 44, 45, 46, 47, 48, 49, 50, 51, 52, 53, 54, 55, 56, 57, 58, 59, 60, 61, 62, 63, 64, 65, 66, 67, 68, 69, 70, 71, 72, 73, 74, 75, 76, 77, 78, 79, 80, 81, 82, 83, 84, 85, 86, 87, 88, 89, 90, 91, 92, 93, 94, 95, 96, 97, 98, 99, 100, 101, 102, 103, 104, 105, 106, 107, 108, 109, 110, 111, 112, 113, 114, 115, 116, 117, 118, 119, 120, 121, 122, 123, 124, 125, 126, 127, 128, 129, 130, 131, 132, 133, 134, 135, 136, 137, 138, 139, 140, 141, 142, 143, 144, 145, 146, 147, 148, 149, 150, 151, 152, 153, 154, 155, 156, 157, 158, 159, 160, 161, 162, 163, 164, 165, 166, 167, 168, 169, 170, 171, 172, 173, 174, 175, 176, 177, 178, 179, 180, 181, 182, 183, 184, 185, 186, 187, 188, 189, 190, 191, 192, 193, 194, 195, 196, 197, 198, 199, 200, 201, 202, 203, 204, 205, 206, 207, 208, 209, 210, 211, 212, 213, 214, 215, 216, 217, 218, 219, 220, 221, 222, 223, 224, 225, 226, 227, 228, 229, 230, 231, 232, 233, 234, 235, 236, 237, 238, 239, 240, 241, 242, 243, 244, 245, 246, 247, 248, 249, 250, 251, 252, 253, 254, 255, 256, 257, 258, 259, 260, 261, 262, 263, 264, 265, 266, 267, 268, 269, 270, 271, 272, 273, 274, 275, 276, 277, 278, 279, 280, 281, 282, 283, 284, 285, 286, 287, 288, 289, 290, 291, 292, 293, 294, 295, 296, 297, 298, 299, 300, 301, 302, 303, 304, 305, 306, 307, 308, 309, 310, 311, 312, 313, 314, 315, 316, 317, 318, 319, 320, 321, 322, 323, 324, 325, 326, 327, 328, 329, 330, 331, 332, 333, 334, 335, 336, 337, 338, 339, 340, 341, 342, 343, 344, 345, 346, 347, 348, 349, 350, 351, 352, 353, 354, 355, 356, 357, 358, 359, 360, 361, 362, 363, 364, 365, 366, 367, 368, 369, 370, 371, 372, 373, 374, 375, 376, 377, 378, 379, 380, 381, 382, 383, 384, 385, 386, 387, 388, 389, 390, 391, 392, 393, 394, 395, 396, 397, 398, 399, 400, 401, 402, 403, 404, 405, 406, 407, 408, 409, 410, 411, 412, 413, 414, 415, 416, 417, 418, 419, 420, 421, 422, 423, 424, 425, 426, 427, 428, 429, 430, 431, 432, 433, 434, 435, 436, 437, 438, 439, 440, 441, 442, 443, 444, 445, 446, 447, 448, 449, 450, 451, 452, 453, 454, 455, 456, 457, 458, 459, 460, 461, 462, 463, 464, 465, 466, 467, 468, 469, 470, 471, 472, 473, 474, 475, 476, 477, 478, 479, 480, 481, 482, 483, 484, 485, 486, 487, 488, 489, 490, 491, 492, 493, 494, 495, 496, 497, 498, 499, 500, 501, 502, 503, 504, 505, 506, 507, 508, 509, 510, 511, 512, 513, 514, 515, 516, 517, 518, 519, 520, 521, 522, 523, 524, 525, 526, 527, 528, 529, 530, 531, 532, 533, 534, 535, 536, 537, 538, 539, 540, 541, 542, 543, 544, 545, 546, 547, 548, 549, 550, 551, 552, 553, 554, 555, 556, 557, 558, 559, 560, 561, 562, 563, 564, 565, 566, 567, 568, 569, 570, 571, 572, 573, 574, 575, 576, 577, 578, 579, 580, 581, 582, 583, 584, 585, 586, 587, 588, 589, 590, 591, 592, 593, 594, 595, 596, 597, 598, 599, 600, 601, 602, 603, 604, 605, 606, 607, 608, 609, 610, 611, 612, 613, 614, 615, 616, 617, 618, 619, 620, 621, 622, 623, 624, 625, 626, 627, 628, 629, 630, 631, 632, 633, 634, 635, 636, 637, 638, 639, 640, 641, 642, 643, 644, 645, 646, 647, 648, 649, 650, 651, 652, 653, 654, 655, 656, 657, 658, 659, 660, 661, 662, 663, 664, 665, 666, 667, 668, 669, 670, 671, 672, 673, 674, 675, 676, 677, 678, 679, 680, 681, 682, 683, 684, 685, 686, 687, 688, 689, 690, 691, 692, 693, 694, 695, 696, 697, 698, 699, 700, 701, 702, 703, 704, 705, 706, 707, 708, 709, 710, 711, 712, 713, 714, 715, 716, 717, 718, 719, 720, 721, 722, 723, 724, 725, 726, 727, 728, 729, 730, 731, 732, 733, 734, 735, 736, 737, 738, 739, 740, 741, 742, 743, 744, 745, 746, 747, 748, 749, 750, 751, 752, 753, 754, 755, 756, 757, 758, 759, 760, 761, 762, 763, 764, 765, 766, 767, 768, 769, 770, 771, 772, 773, 774, 775, 776, 777, 778, 779, 780, 781, 782, 783, 784, 785, 786, 787, 788, 789, 790, 791, 792, 793, 794, 795, 796, 797, 798, 799, 800, 801, 802, 803, 804, 805, 806, 807, 808, 809, 810, 811, 812, 813, 814, 815, 816, 817, 818, 819, 820, 821, 822, 823, 824, 825, 826, 827, 828, 829, 830, 831, 832, 833, 834, 835, 836, 837, 838, 839, 840, 841, 842, 843, 844, 845, 846, 847, 848, 849, 850, 851, 852, 853, 854, 855, 856, 857, 858, 859, 860, 861, 862, 863, 864, 865, 866, 867, 868, 869, 870, 871, 872, 873, 874, 875, 876, 877, 878, 879, 880, 881, 882, 883, 884, 885, 886, 887, 888, 889, 890, 891, 892, 893, 894, 895, 896, 897, 898, 899, 900, 901, 902, 903, 904, 905, 906, 907, 908, 909, 910, 911, 912, 913, 914, 915, 916, 917, 918, 919, 920, 921, 922, 923, 924, 925, 926, 927, 928, 929, 930, 931, 932, 933, 934, 935, 936, 937, 938, 939, 940, 941, 942, 943, 944, 945, 946, 947, 948, 949, 950, 951, 952, 953, 954, 955, 956, 957, 958, 959, 960, 961, 962, 963, 964, 965, 966, 967, 968, 969, 970, 971, 972, 973, 974, 975, 976, 977, 978, 979, 980, 981, 982, 983, 984, 985, 986, 987, 988, 989, 990, 991, 992, 993, 994, 995, 996, 997, 998, 999, 1000, 1001, 1002, 1003, 1004, 1005, 1006, 1007, 1008, 1009, 1010, 1011, 1012, 1013, 1014, 1015, 1016, 1017, 1018, 1019, 1020, 1021, 1022, 1023, 1024, 1025, 1026, 1027, 1028, 1029, 1030, 1031, 1032, 1033, 1034, 1035, 1036, 1037, 1038, 1039, 1040, 1041, 1042, 1043, 1044, 1045, 1046, 1047, 1048, 1049, 1050, 1051, 1052, 1053, 1054, 1055, 1056, 1057, 1058, 1059, 1060, 1061, 1062, 1063, 1064, 1065, 1066, 1067, 1068, 1069, 1070],
      "AcquisitionTime": ["142805.250000", "142806.040000", "142806.827500", "142807.615000", "142808.402500", "142809.192500", "142809.980000", "142810.767500", "142811.555000", "142812.345000", "142813.132500", "142813.920000", "142814.707500", "142815.497500", "142816.285000", "142817.072500", "142817.860000", "142818.650000", "142819.437500", "142820.225000", "142821.015000", "142821.802500", "142822.590000", "142823.377500", "142824.167500", "142824.955000", "142825.742500", "142826.530000", "142827.320000", "142828.107500", "142828.895000", "142829.682500", "142830.472500", "142831.260000", "142832.047500", "142832.835000", "142833.625000", "142834.412500", "142835.200000", "142835.990000", "142836.777500", "142837.565000", "142838.352500", "142839.142500", "142839.930000", "142840.717500", "142841.505000", "142842.295000", "142843.082500", "142843.870000", "142844.657500", "142845.447500", "142846.235000", "142847.022500", "142847.810000", "142848.600000", "142849.387500", "142850.175000", "142850.962500", "142851.752500", "142852.540000", "142853.327500", "142854.117500", "142854.905000", "142855.692500", "142856.480000", "142857.270000", "142858.057500", "142858.845000", "142859.632500", "142900.422500", "142901.210000", "142901.997500", "142902.785000", "142903.575000", "142904.362500", "142905.150000", "142905.937500", "142906.727500", "142907.515000", "142908.302500", "142909.090000", "142909.880000", "142910.667500", "142911.455000", "142912.245000", "142913.032500", "142913.820000", "142914.607500", "142915.397500", "142916.185000", "142916.972500", "142917.760000", "142918.550000", "142919.337500", "142920.125000", "142920.912500", "142921.702500", "142922.490000", "142923.277500", "142924.065000", "142924.855000", "142925.642500", "142926.430000", "142927.217500", "142928.007500", "142928.795000", "142929.582500", "142930.372500", "142931.160000", "142931.947500", "142932.735000", "142933.525000", "142934.312500", "142935.100000", "142935.887500", "142936.677500", "142937.465000", "142938.252500", "142939.040000", "142939.830000", "142940.617500", "142941.405000", "142942.192500", "142942.982500", "142943.770000", "142944.557500", "142945.345000", "142946.135000", "142946.922500", "142947.710000", "142948.500000", "142949.287500", "142950.075000", "142950.862500", "142951.652500", "142952.440000", "142953.227500", "142954.015000", "142954.805000", "142955.592500", "142956.380000", "142957.167500", "142957.957500", "142958.745000", "142959.532500", "143000.320000", "143001.110000", "143001.897500", "143002.685000", "143003.472500", "143004.262500", "143005.050000", "143005.837500", "143006.627500", "143007.415000", "143008.202500", "143008.990000", "143009.780000", "143010.567500", "143011.355000", "143012.142500", "143012.932500", "143013.720000", "143014.507500", "143015.295000", "143016.085000", "143016.872500", "143017.660000", "143018.447500", "143019.237500", "143020.025000", "143020.812500", "143021.600000", "143022.390000", "143023.177500", "143023.965000", "143024.755000", "143025.542500", "143026.330000", "143027.117500", "143027.907500", "143028.695000", "143029.482500", "143030.270000", "143031.060000", "143031.847500", "143032.635000", "143033.422500", "143034.212500", "143035.000000", "143035.787500", "143036.575000", "143037.365000", "143038.152500", "143038.940000", "143039.727500", "143040.517500", "143041.305000", "143042.092500", "143042.882500", "143043.670000", "143044.457500", "143045.245000", "143046.035000", "143046.822500", "143047.610000", "143048.397500", "143049.187500", "143049.975000", "143050.762500", "143051.550000", "143052.340000", "143053.127500", "143053.915000", "143054.702500", "143055.492500", "143056.280000", "143057.067500", "143057.855000", "143058.645000", "143059.432500", "143100.220000", "143101.010000", "143101.797500", "143102.585000", "143103.372500", "143104.162500", "143104.950000", "143105.737500", "143106.525000", "143107.315000", "143108.102500", "143108.890000", "143109.677500", "143110.467500", "143111.255000", "143112.042500", "143112.830000", "143113.620000", "143114.407500", "143115.195000", "143115.982500", "143116.772500", "143117.560000", "143118.347500", "143119.137500", "143119.925000", "143120.712500", "143121.500000", "143122.290000", "143123.077500", "143123.865000", "143124.652500", "143125.442500", "143126.230000", "143127.017500", "143127.805000", "143128.595000", "143129.382500", "143130.170000", "143130.957500", "143131.747500", "143132.535000", "143133.322500", "143134.110000", "143134.900000", "143135.687500", "143136.475000", "143137.265000", "143138.052500", "143138.840000", "143139.627500", "143140.417500", "143141.205000", "143141.992500", "143142.780000", "143143.570000", "143144.357500", "143145.145000", "143145.932500", "143146.722500", "143147.510000", "143148.297500", "143149.085000", "143149.875000", "143150.662500", "143151.450000", "143152.240000", "143153.027500", "143153.815000", "143154.602500", "143155.392500", "143156.180000", "143156.967500", "143157.755000", "143158.545000", "143159.332500", "143200.120000", "143200.907500", "143201.697500", "143202.485000", "143203.272500", "143204.060000", "143204.850000", "143205.637500", "143206.425000", "143207.212500", "143208.002500", "143208.790000", "143209.577500", "143210.367500", "143211.155000", "143211.942500", "143212.730000", "143213.520000", "143214.307500", "143215.095000", "143215.882500", "143216.672500", "143217.460000", "143218.247500", "143219.035000", "143219.825000", "143220.612500", "143221.400000", "143222.187500", "143222.977500", "143223.765000", "143224.552500", "143225.340000", "143226.130000", "143226.917500", "143227.705000", "143228.495000", "143229.282500", "143230.070000", "143230.857500", "143231.647500", "143232.435000", "143233.222500", "143234.010000", "143234.800000", "143235.587500", "143236.375000", "143237.162500", "143237.952500", "143238.740000", "143239.527500", "143240.315000", "143241.105000", "143241.892500", "143242.680000", "143243.467500", "143244.257500", "143245.045000", "143245.832500", "143246.622500", "143247.410000", "143248.197500", "143248.985000", "143249.775000", "143250.562500", "143251.350000", "143252.137500", "143252.927500", "143253.715000", "143254.502500", "143255.290000", "143256.080000", "143256.867500", "143257.655000", "143258.442500", "143259.232500", "143300.020000", "143300.807500", "143301.595000", "143302.385000", "143303.172500", "143303.960000", "143304.750000", "143305.537500", "143306.325000", "143307.112500", "143307.902500", "143308.690000", "143309.477500", "143310.265000", "143311.055000", "143311.842500", "143312.630000", "143313.417500", "143314.207500", "143314.995000", "143315.782500", "143316.570000", "143317.360000", "143318.147500", "143318.935000", "143319.722500", "143320.512500", "143321.300000", "143322.087500", "143322.877500", "143323.665000", "143324.452500", "143325.240000", "143326.030000", "143326.817500", "143327.605000", "143328.392500", "143329.182500", "143329.970000", "143330.757500", "143331.545000", "143332.335000", "143333.122500", "143333.910000", "143334.697500", "143335.487500", "143336.275000", "143337.062500", "143337.850000", "143338.640000", "143339.427500", "143340.215000", "143341.005000", "143341.792500", "143342.580000", "143343.367500", "143344.157500", "143344.945000", "143345.732500", "143346.520000", "143347.310000", "143348.097500", "143348.885000", "143349.672500", "143350.462500", "143351.250000", "143352.037500", "143352.825000", "143353.615000", "143354.402500", "143355.190000", "143355.977500", "143356.767500", "143357.555000", "143358.342500", "143359.132500", "143359.920000", "143400.707500", "143401.495000", "143402.285000", "143403.072500", "143403.860000", "143404.647500", "143405.437500", "143406.225000", "143407.012500", "143407.800000", "143408.590000", "143409.377500", "143410.165000", "143410.952500", "143411.742500", "143412.530000", "143413.317500", "143414.105000", "143414.895000", "143415.682500", "143416.470000", "143417.260000", "143418.047500", "143418.835000", "143419.622500", "143420.412500", "143421.200000", "143421.987500", "143422.775000", "143423.565000", "143424.352500", "143425.140000", "143425.927500", "143426.717500", "143427.505000", "143428.292500", "143429.080000", "143429.870000", "143430.657500", "143431.445000", "143432.232500", "143433.022500", "143433.810000", "143434.597500", "143435.387500", "143436.175000", "143436.962500", "143437.750000", "143438.540000", "143439.327500", "143440.115000", "143440.902500", "143441.692500", "143442.480000", "143443.267500", "143444.055000", "143444.845000", "143445.632500", "143446.420000", "143447.207500", "143447.997500", "143448.785000", "143449.572500", "143450.360000", "143451.150000", "143451.937500", "143452.725000", "143453.515000", "143454.302500", "143455.090000", "143455.877500", "143456.667500", "143457.455000", "143458.242500", "143459.030000", "143459.820000", "143500.607500", "143501.395000", "143502.182500", "143502.972500", "143503.760000", "143504.547500", "143505.335000", "143506.125000", "143506.912500", "143507.700000", "143508.490000", "143509.277500", "143510.065000", "143510.852500", "143511.642500", "143512.430000", "143513.217500", "143514.005000", "143514.795000", "143515.582500", "143516.370000", "143517.157500", "143517.947500", "143518.735000", "143519.522500", "143520.310000", "143521.100000", "143521.887500", "143522.675000", "143523.462500", "143524.252500", "143525.040000", "143525.827500", "143526.617500", "143527.405000", "143528.192500", "143528.980000", "143529.770000", "143530.557500", "143531.345000", "143532.132500", "143532.922500", "143533.710000", "143534.497500", "143535.285000", "143536.075000", "143536.862500", "143537.650000", "143538.437500", "143539.227500", "143540.015000", "143540.802500", "143541.590000", "143542.380000", "143543.167500", "143543.955000", "143544.745000", "143545.532500", "143546.320000", "143547.107500", "143547.897500", "143548.685000", "143549.472500", "143550.260000", "143551.050000", "143551.837500", "143552.625000", "143553.412500", "143554.202500", "143554.990000", "143555.777500", "143556.565000", "143557.355000", "143558.142500", "143558.930000", "143559.717500", "143600.507500", "143601.295000", "143602.082500", "143602.872500", "143603.660000", "143604.447500", "143605.235000", "143606.025000", "143606.812500", "143607.600000", "143608.387500", "143609.177500", "143609.965000", "143610.752500", "143611.540000", "143612.330000", "143613.117500", "143613.905000", "143614.692500", "143615.482500", "143616.270000", "143617.057500", "143617.845000", "143618.635000", "143619.422500", "143620.210000", "143621.000000", "143621.787500", "143622.575000", "143623.362500", "143624.152500", "143624.940000", "143625.727500", "143626.515000", "143627.305000", "143628.092500", "143628.880000", "143629.667500", "143630.457500", "143631.245000", "143632.032500", "143632.820000", "143633.610000", "143634.397500", "143635.185000", "143635.972500", "143636.762500", "143637.550000", "143638.337500", "143639.127500", "143639.915000", "143640.702500", "143641.490000", "143642.280000", "143643.067500", "143643.855000", "143644.642500", "143645.432500", "143646.220000", "143647.007500", "143647.795000", "143648.585000", "143649.372500", "143650.160000", "143650.947500", "143651.737500", "143652.525000", "143653.312500", "143654.100000", "143654.890000", "143655.677500", "143656.465000", "143657.255000", "143658.042500", "143658.830000", "143659.617500", "143700.407500", "143701.195000", "143701.982500", "143702.770000", "143703.560000", "143704.347500", "143705.135000", "143705.922500", "143706.712500", "143707.500000", "143708.287500", "143709.075000", "143709.865000", "143710.652500", "143711.440000", "143712.227500", "143713.017500", "143713.805000", "143714.592500", "143715.382500", "143716.170000", "143716.957500", "143717.745000", "143718.535000", "143719.322500", "143720.110000", "143720.897500", "143721.687500", "143722.475000", "143723.262500", "143724.050000", "143724.840000", "143725.627500", "143726.415000", "143727.202500", "143727.992500", "143728.780000", "143729.567500", "143730.355000", "143731.145000", "143731.932500", "143732.720000", "143733.510000", "143734.297500", "143735.085000", "143735.872500", "143736.662500", "143737.450000", "143738.237500", "143739.025000", "143739.815000", "143740.602500", "143741.390000", "143742.177500", "143742.967500", "143743.755000", "143744.542500", "143745.330000", "143746.120000", "143746.907500", "143747.695000", "143748.482500", "143749.272500", "143750.060000", "143750.847500", "143751.637500", "143752.425000", "143753.212500", "143754.000000", "143754.790000", "143755.577500", "143756.365000", "143757.152500", "143757.942500", "143758.730000", "143759.517500", "143800.305000", "143801.095000", "143801.882500", "143802.670000", "143803.457500", "143804.247500", "143805.035000", "143805.822500", "143806.610000", "143807.400000", "143808.187500", "143808.975000", "143809.765000", "143810.552500", "143811.340000", "143812.127500", "143812.917500", "143813.705000", "143814.492500", "143815.280000", "143816.070000", "143816.857500", "143817.645000", "143818.432500", "143819.222500", "143820.010000", "143820.797500", "143821.585000", "143822.375000", "143823.162500", "143823.950000", "143824.740000", "143825.527500", "143826.315000", "143827.102500", "143827.892500", "143828.680000", "143829.467500", "143830.255000", "143831.045000", "143831.832500", "143832.620000", "143833.407500", "143834.197500", "143834.985000", "143835.772500", "143836.560000", "143837.350000", "143838.137500", "143838.925000", "143839.712500", "143840.502500", "143841.290000", "143842.077500", "143842.867500", "143843.655000", "143844.442500", "143845.230000", "143846.020000", "143846.807500", "143847.595000", "143848.382500", "143849.172500", "143849.960000", "143850.747500", "143851.535000", "143852.325000", "143853.112500", "143853.900000", "143854.687500", "143855.477500", "143856.265000", "143857.052500", "143857.840000", "143858.630000", "143859.417500", "143900.205000", "143900.995000", "143901.782500", "143902.570000", "143903.357500", "143904.147500", "143904.935000", "143905.722500", "143906.510000", "143907.300000", "143908.087500", "143908.875000", "143909.662500", "143910.452500", "143911.240000", "143912.027500", "143912.815000", "143913.605000", "143914.392500", "143915.180000", "143915.967500", "143916.757500", "143917.545000", "143918.332500", "143919.122500", "143919.910000", "143920.697500", "143921.485000", "143922.275000", "143923.062500", "143923.850000", "143924.637500", "143925.427500", "143926.215000", "143927.002500", "143927.790000", "143928.580000", "143929.367500", "143930.155000", "143930.942500", "143931.732500", "143932.520000", "143933.307500", "143934.095000", "143934.885000", "143935.672500", "143936.460000", "143937.250000", "143938.037500", "143938.825000", "143939.612500", "143940.402500", "143941.190000", "143941.977500", "143942.765000", "143943.555000", "143944.342500", "143945.130000", "143945.917500", "143946.707500", "143947.495000", "143948.282500", "143949.070000", "143949.860000", "143950.647500", "143951.435000", "143952.222500", "143953.012500", "143953.800000", "143954.587500", "143955.377500", "143956.165000", "143956.952500", "143957.740000", "143958.530000", "143959.317500", "144000.105000", "144000.892500", "144001.682500", "144002.470000", "144003.257500", "144004.045000", "144004.835000", "144005.622500", "144006.410000", "144007.197500", "144007.987500", "144008.775000", "144009.562500", "144010.350000", "144011.140000", "144011.927500", "144012.715000", "144013.505000", "144014.292500", "144015.080000", "144015.867500", "144016.657500", "144017.445000", "144018.232500", "144019.020000", "144019.810000", "144020.597500", "144021.385000", "144022.172500", "144022.962500", "144023.750000", "144024.537500", "144025.325000", "144026.115000", "144026.902500", "144027.690000", "144028.477500", "144029.267500", "144030.055000", "144030.842500", "144031.632500", "144032.420000", "144033.207500", "144033.995000", "144034.785000", "144035.572500", "144036.360000", "144037.147500", "144037.937500", "144038.725000", "144039.512500", "144040.300000", "144041.090000", "144041.877500", "144042.665000", "144043.452500", "144044.242500", "144045.030000", "144045.817500", "144046.605000", "144047.395000", "144048.182500", "144048.970000", "144049.760000", "144050.547500", "144051.335000", "144052.122500", "144052.912500", "144053.700000", "144054.487500", "144055.275000", "144056.065000", "144056.852500", "144057.640000", "144058.427500", "144059.217500", "144100.005000", "144100.792500", "144101.580000", "144102.370000", "144103.157500", "144103.945000", "144104.732500", "144105.522500", "144106.310000", "144107.097500", "144107.887500", "144108.675000", "144109.462500", "144110.250000", "144111.040000", "144111.827500", "144112.615000", "144113.402500", "144114.192500", "144114.980000", "144115.767500", "144116.555000", "144117.345000", "144118.132500", "144118.920000", "144119.707500", "144120.497500", "144121.285000", "144122.072500", "144122.860000", "144123.650000", "144124.437500", "144125.225000", "144126.015000", "144126.802500", "144127.590000", "144128.377500", "144129.167500", "144129.955000", "144130.742500", "144131.530000", "144132.320000", "144133.107500", "144133.895000", "144134.682500", "144135.472500", "144136.260000", "144137.047500", "144137.835000", "144138.625000", "144139.412500", "144140.200000", "144140.990000", "144141.777500", "144142.565000", "144143.352500", "144144.142500", "144144.930000", "144145.717500", "144146.505000", "144147.295000", "144148.082500", "144148.870000", "144149.657500", "144150.447500", "144151.235000", "144152.022500", "144152.810000", "144153.600000", "144154.387500", "144155.175000", "144155.962500", "144156.752500", "144157.540000", "144158.327500", "144159.117500", "144159.905000", "144200.692500", "144201.480000", "144202.270000", "144203.057500", "144203.845000", "144204.632500", "144205.422500", "144206.210000", "144206.997500", "144207.785000"],
