{
  "AcquisitionMatrixPE": 104,
  "AcquisitionNumber": 1,
  "AcquisitionTime": "15:50:41.727500",
  "BandwidthPerPixelPhaseEncode": 13.935,
  "BaseResolution": 104,
  "CoilString": "C:HEA;HEP",
  "ConversionSoftware": "dcm2niix",
  "ConversionSoftwareVersion": "v1.0.20210317",
  "DerivedVendorReportedEchoSpacing": 0.000690017,
  "DeviceSerialNumber": "35450",
  "DwellTime": 2.5e-06,
  "EchoTime": 0.0348,
  "EffectiveEchoSpacing": 0.000690017,
  "FlipAngle": 55,
  "ImageComments": "Unaliased MB8/PE3 (remote)",
  "ImageOrientationPatientDICOM": [1, 0, 0, 0, 0.99956, -0.0296662],
  "ImageType": [
    "ORIGINAL",
    "PRIMARY",
    "M",
    "MB",
    "ND",
    "MOSAIC"
],
  "ImagingFrequency": 123.234,
  "InPlanePhaseEncodingDirectionDICOM": "COL",
  "InstitutionAddress": "Univeristy Ave. 197,Newark,North East,US,07102-1814",
  "InstitutionName": "RUBIC",
  "InstitutionalDepartmentName": "Department",
  "MRAcquisitionType": "2D",
  "MagneticFieldStrength": 3,
  "Manufacturer": "Siemens",
  "ManufacturersModelName": "TrioTim",
  "Modality": "MR",
  "MultibandAccelerationFactor": 8,
  "PartialFourier": 0.875,
  "PatientPosition": "HFS",
  "PercentPhaseFOV": 100,
  "PercentSampling": 100,
  "PhaseEncodingDirection": "j-",
  "PhaseEncodingSteps": 91,
  "PhaseResolution": 1,
  "PixelBandwidth": 1923,
  "ProcedureStepDescription": "Cole^Michael",
  "ProtocolName": "cmrr_mbep2d_bold_2mm_MB8_Task_8x",
  "PulseSequenceDetails": "%CustomerSeq%\\cmrr_mbep2d_bold",
  "ReceiveCoilName": "32Ch_Head",
  "ReconMatrixPE": 104,
  "RepetitionTime": 0.785,
  "SAR": 0.126544,
  "ScanOptions": "PFP\\FS",
  "ScanningSequence": "EP",
  "SequenceName": "epfid2d1_104",
  "SequenceVariant": "SK\\SS",
  "SeriesDescription": "cmrr_mbep2d_bold_2mm_MB8_Task_8x",
  "SeriesNumber": 28,
  "ShimSetting": [2066, -459, -7244, 545, -68, -154, 113, 65],
  "SliceThickness": 2,
  "SliceTiming": [0, 0.4375, 0.0875, 0.525, 0.175, 0.6125, 0.2625, 0.7, 0.35, 0, 0.4375, 0.0875, 0.525, 0.175, 0.6125, 0.2625, 0.7, 0.35, 0, 0.4375, 0.0875, 0.525, 0.175, 0.6125, 0.2625, 0.7, 0.35, 0, 0.4375, 0.0875, 0.525, 0.175, 0.6125, 0.2625, 0.7, 0.35, 0, 0.4375, 0.0875, 0.525, 0.175, 0.6125, 0.2625, 0.7, 0.35, 0, 0.4375, 0.0875, 0.525, 0.175, 0.6125, 0.2625, 0.7, 0.35, 0, 0.4375, 0.0875, 0.525, 0.175, 0.6125, 0.2625, 0.7, 0.35, 0, 0.4375, 0.0875, 0.525, 0.175, 0.6125, 0.2625, 0.7, 0.35],
  "SoftwareVersions": "syngo MR B19",
  "SpacingBetweenSlices": 2,
  "StationName": "MRC35450",
  "TaskName": "cpro",
  "TotalReadoutTime": 0.0710717,
  "TxRefAmp": 302.372,
  "dcmmeta_affine": [
    [-2.0, 0.0, 0.0, 103.32203674316406],
    [0.0, 1.999119758605957, -0.05933248624205589, -81.2624740600586],
    [0.0, 0.05933248624205589, 1.999119758605957, -86.10166931152344],
    [0.0, 0.0, 0.0, 1.0]
],
  "dcmmeta_reorient_transform": [
    [0.0, -1.0, 0.0, 103.0],
    [1.0, 0.0, 0.0, 0.0],
    [0.0, 0.0, 1.0, 0.0],
    [0.0, 0.0, 0.0, 1.0]
],
  "dcmmeta_shape": [104, 104, 72, 581],
  "dcmmeta_slice_dim": 2,
  "dcmmeta_version": 0.6,
  "global": {
    "const": {
      "AcquisitionMatrix": [104, 0, 0, 104],
      "AngioFlag": "N",
      "BitsAllocated": 16,
      "BitsStored": 12,
      "Columns": 936,
      "EchoNumbers": 1,
      "EchoTime": 34.8,
      "EchoTrainLength": 1,
      "FlipAngle": 55.0,
      "HighBit": 11,
      "ImageOrientationPatient": [1.0, 0.0, 0.0, 0.0, 0.9995598601523, -0.0296662429762],
      "ImagePositionPatient": [-935.32203388214, -956.28066368507, -55.308110685594],
      "ImageType": [
        "ORIGINAL",
        "PRIMARY",
        "M",
        "MB",
        "ND",
        "MOSAIC"
],
      "ImagedNucleus": "1H",
      "ImagingFrequency": 123.23441,
      "InPlanePhaseEncodingDirection": "COL",
      "MRAcquisitionType": "2D",
      "MagneticFieldStrength": 3.0,
      "Manufacturer": "SIEMENS",
      "ManufacturerModelName": "TrioTim",
      "Modality": "MR",
      "NumberOfAverages": 1.0,
      "NumberOfPhaseEncodingSteps": 91,
      "PercentPhaseFieldOfView": 100.0,
      "PercentSampling": 100.0,
      "PerformedProcedureStepStartTime": "135737.171000",
      "PhotometricInterpretation": "MONOCHROME2",
      "PixelBandwidth": 1923.0,
      "PixelRepresentation": 0,
      "PixelSpacing": [2.0, 2.0],
      "ProtocolName": "cmrr_mbep2d_bold_2mm_MB8_Task_8x",
      "RepetitionTime": 785.0,
      "Rows": 936,
      "SAR": 0.12654421501112,
      "SamplesPerPixel": 1,
      "ScanOptions": [
        "PFP",
        "FS"
],
      "ScanningSequence": "EP",
      "SequenceName": "epfid2d1_104",
      "SequenceVariant": [
        "SK",
        "SS"
],
      "SeriesDescription": "cmrr_mbep2d_bold_2mm_MB8_Task_8x",
      "SeriesNumber": 28,
      "SeriesTime": "155113.375000",
      "SliceLocation": -83.653021904514,
      "SliceThickness": 2.0,
      "SmallestImagePixelValue": 0,
      "SoftwareVersions": "syngo MR B19",
      "SpacingBetweenSlices": 1.9999999979758,
      "SpecificCharacterSet": "ISO_IR 100",
      "StudyID": "1",
      "StudyTime": "135737.062000",
      "TransmitCoilName": "Body",
      "VariableFlipAngleFlag": "N",
      "WindowCenterWidthExplanation": "Algo1",
      "dBdt": 0.0},
    "slices": {}
  },
  "time": {
    "samples": {
      "AcquisitionNumber": [1, 2, 3, 4, 5, 6, 7, 8, 9, 10, 11, 12, 13, 14, 15, 16, 17, 18, 19, 20, 21, 22, 23, 24, 25, 26, 27, 28, 29, 30, 31, 32, 33, 34, 35, 36, 37, 38, 39, 40, 41, 42, 43, 44, 45, 46, 47, 48, 49, 50, 51, 52, 53, 54, 55, 56, 57, 58, 59, 60, 61, 62, 63, 64, 65, 66, 67, 68, 69, 70, 71, 72, 73, 74, 75, 76, 77, 78, 79, 80, 81, 82, 83, 84, 85, 86, 87, 88, 89, 90, 91, 92, 93, 94, 95, 96, 97, 98, 99, 100, 101, 102, 103, 104, 105, 106, 107, 108, 109, 110, 111, 112, 113, 114, 115, 116, 117, 118, 119, 120, 121, 122, 123, 124, 125, 126, 127, 128, 129, 130, 131, 132, 133, 134, 135, 136, 137, 138, 139, 140, 141, 142, 143, 144, 145, 146, 147, 148, 149, 150, 151, 152, 153, 154, 155, 156, 157, 158, 159, 160, 161, 162, 163, 164, 165, 166, 167, 168, 169, 170, 171, 172, 173, 174, 175, 176, 177, 178, 179, 180, 181, 182, 183, 184, 185, 186, 187, 188, 189, 190, 191, 192, 193, 194, 195, 196, 197, 198, 199, 200, 201, 202, 203, 204, 205, 206, 207, 208, 209, 210, 211, 212, 213, 214, 215, 216, 217, 218, 219, 220, 221, 222, 223, 224, 225, 226, 227, 228, 229, 230, 231, 232, 233, 234, 235, 236, 237, 238, 239, 240, 241, 242, 243, 244, 245, 246, 247, 248, 249, 250, 251, 252, 253, 254, 255, 256, 257, 258, 259, 260, 261, 262, 263, 264, 265, 266, 267, 268, 269, 270, 271, 272, 273, 274, 275, 276, 277, 278, 279, 280, 281, 282, 283, 284, 285, 286, 287, 288, 289, 290, 291, 292, 293, 294, 295, 296, 297, 298, 299, 300, 301, 302, 303, 304, 305, 306, 307, 308, 309, 310, 311, 312, 313, 314, 315, 316, 317, 318, 319, 320, 321, 322, 323, 324, 325, 326, 327, 328, 329, 330, 331, 332, 333, 334, 335, 336, 337, 338, 339, 340, 341, 342, 343, 344, 345, 346, 347, 348, 349, 350, 351, 352, 353, 354, 355, 356, 357, 358, 359, 360, 361, 362, 363, 364, 365, 366, 367, 368, 369, 370, 371, 372, 373, 374, 375, 376, 377, 378, 379, 380, 381, 382, 383, 384, 385, 386, 387, 388, 389, 390, 391, 392, 393, 394, 395, 396, 397, 398, 399, 400, 401, 402, 403, 404, 405, 406, 407, 408, 409, 410, 411, 412, 413, 414, 415, 416, 417, 418, 419, 420, 421, 422, 423, 424, 425, 426, 427, 428, 429, 430, 431, 432, 433, 434, 435, 436, 437, 438, 439, 440, 441, 442, 443, 444, 445, 446, 447, 448, 449, 450, 451, 452, 453, 454, 455, 456, 457, 458, 459, 460, 461, 462, 463, 464, 465, 466, 467, 468, 469, 470, 471, 472, 473, 474, 475, 476, 477, 478, 479, 480, 481, 482, 483, 484, 485, 486, 487, 488, 489, 490, 491, 492, 493, 494, 495, 496, 497, 498, 499, 500, 501, 502, 503, 504, 505, 506, 507, 508, 509, 510, 511, 512, 513, 514, 515, 516, 517, 518, 519, 520, 521, 522, 523, 524, 525, 526, 527, 528, 529, 530, 531, 532, 533, 534, 535, 536, 537, 538, 539, 540, 541, 542, 543, 544, 545, 546, 547, 548, 549, 550, 551, 552, 553, 554, 555, 556, 557, 558, 559, 560, 561, 562, 563, 564, 565, 566, 567, 568, 569, 570, 571, 572, 573, 574, 575, 576, 577, 578, 579, 580, 581],
      "AcquisitionTime": ["155041.727500", "155042.515000", "155043.302500", "155044.090000", "155044.880000", "155045.667500", "155046.455000", "155047.242500", "155048.032500", "155048.820000", "155049.607500", "155050.397500", "155051.185000", "155051.972500", "155052.760000", "155053.550000", "155054.337500", "155055.125000", "155055.912500", "155056.702500", "155057.490000", "155058.277500", "155059.065000", "155059.855000", "155100.642500", "155101.430000", "155102.217500", "155103.007500", "155103.795000", "155104.582500", "155105.372500", "155106.160000", "155106.947500", "155107.735000", "155108.525000", "155109.312500", "155110.100000", "155110.887500", "155111.677500", "155112.465000", "155113.252500", "155114.040000", "155114.830000", "155115.617500", "155116.405000", "155117.192500", "155117.982500", "155118.770000", "155119.557500", "155120.345000", "155121.135000", "155121.922500", "155122.710000", "155123.500000", "155124.287500", "155125.075000", "155125.862500", "155126.652500", "155127.440000", "155128.227500", "155129.015000", "155129.805000", "155130.592500", "155131.380000", "155132.167500", "155132.957500", "155133.745000", "155134.532500", "155135.320000", "155136.110000", "155136.897500", "155137.685000", "155138.472500", "155139.262500", "155140.050000", "155140.837500", "155141.627500", "155142.415000", "155143.202500", "155143.990000", "155144.780000", "155145.567500", "155146.355000", "155147.142500", "155147.932500", "155148.720000", "155149.507500", "155150.295000", "155151.085000", "155151.872500", "155152.660000", "155153.447500", "155154.237500", "155155.025000", "155155.812500", "155156.600000", "155157.390000", "155158.177500", "155158.965000", "155159.755000", "155200.542500", "155201.330000", "155202.117500", "155202.907500", "155203.695000", "155204.482500", "155205.270000", "155206.060000", "155206.847500", "155207.635000", "155208.422500", "155209.212500", "155210.000000", "155210.787500", "155211.575000", "155212.365000", "155213.152500", "155213.940000", "155214.727500", "155215.517500", "155216.305000", "155217.092500", "155217.882500", "155218.670000", "155219.457500", "155220.245000", "155221.035000", "155221.822500", "155222.610000", "155223.397500", "155224.187500", "155224.975000", "155225.762500", "155226.550000", "155227.340000", "155228.127500", "155228.915000", "155229.702500", "155230.492500", "155231.280000", "155232.067500", "155232.855000", "155233.645000", "155234.432500", "155235.220000", "155236.010000", "155236.797500", "155237.585000", "155238.372500", "155239.162500", "155239.950000", "155240.737500", "155241.525000", "155242.315000", "155243.102500", "155243.890000", "155244.677500", "155245.467500", "155246.255000", "155247.042500", "155247.830000", "155248.620000", "155249.407500", "155250.195000", "155250.982500", "155251.772500", "155252.560000", "155253.347500", "155254.137500", "155254.925000", "155255.712500", "155256.500000", "155257.290000", "155258.077500", "155258.865000", "155259.652500", "155300.442500", "155301.230000", "155302.017500", "155302.805000", "155303.595000", "155304.382500", "155305.170000", "155305.957500", "155306.747500", "155307.535000", "155308.322500", "155309.110000", "155309.900000", "155310.687500", "155311.475000", "155312.265000", "155313.052500", "155313.840000", "155314.627500", "155315.417500", "155316.205000", "155316.992500", "155317.780000", "155318.570000", "155319.357500", "155320.145000", "155320.932500", "155321.722500", "155322.510000", "155323.297500", "155324.085000", "155324.875000", "155325.662500", "155326.450000", "155327.237500", "155328.027500", "155328.815000", "155329.602500", "155330.392500", "155331.180000", "155331.967500", "155332.755000", "155333.545000", "155334.332500", "155335.120000", "155335.907500", "155336.697500", "155337.485000", "155338.272500", "155339.060000", "155339.850000", "155340.637500", "155341.425000", "155342.212500", "155343.002500", "155343.790000", "155344.577500", "155345.365000", "155346.155000", "155346.942500", "155347.730000", "155348.520000", "155349.307500", "155350.095000", "155350.882500", "155351.672500", "155352.460000", "155353.247500", "155354.035000", "155354.825000", "155355.612500", "155356.400000", "155357.187500", "155357.977500", "155358.765000", "155359.552500", "155400.340000", "155401.130000", "155401.917500", "155402.705000", "155403.492500", "155404.282500", "155405.070000", "155405.857500", "155406.647500", "155407.435000", "155408.222500", "155409.010000", "155409.800000", "155410.587500", "155411.375000", "155412.162500", "155412.952500", "155413.740000", "155414.527500", "155415.315000", "155416.105000", "155416.892500", "155417.680000", "155418.467500", "155419.257500", "155420.045000", "155420.832500", "155421.622500", "155422.410000", "155423.197500", "155423.985000", "155424.775000", "155425.562500", "155426.350000", "155427.137500", "155427.927500", "155428.715000", "155429.502500", "155430.290000", "155431.080000", "155431.867500", "155432.655000", "155433.442500", "155434.232500", "155435.020000", "155435.807500", "155436.595000", "155437.385000", "155438.172500", "155438.960000", "155439.750000", "155440.537500", "155441.325000", "155442.112500", "155442.902500", "155443.690000", "155444.477500", "155445.265000", "155446.055000", "155446.842500", "155447.630000", "155448.417500", "155449.207500", "155449.995000", "155450.782500", "155451.570000", "155452.360000", "155453.147500", "155453.935000", "155454.722500", "155455.512500", "155456.300000", "155457.087500", "155457.877500", "155458.665000", "155459.452500", "155500.240000", "155501.030000", "155501.817500", "155502.605000", "155503.392500", "155504.182500", "155504.970000", "155505.757500", "155506.545000", "155507.335000", "155508.122500", "155508.910000", "155509.697500", "155510.487500", "155511.275000", "155512.062500", "155512.850000", "155513.640000", "155514.427500", "155515.215000", "155516.005000", "155516.792500", "155517.580000", "155518.367500", "155519.157500", "155519.945000", "155520.732500", "155521.520000", "155522.310000", "155523.097500", "155523.885000", "155524.672500", "155525.462500", "155526.250000", "155527.037500", "155527.825000", "155528.615000", "155529.402500", "155530.190000", "155530.977500", "155531.767500", "155532.555000", "155533.342500", "155534.132500", "155534.920000", "155535.707500", "155536.495000", "155537.285000", "155538.072500", "155538.860000", "155539.647500", "155540.437500", "155541.225000", "155542.012500", "155542.800000", "155543.590000", "155544.377500", "155545.165000", "155545.952500", "155546.742500", "155547.530000", "155548.317500", "155549.105000", "155549.895000", "155550.682500", "155551.470000", "155552.260000", "155553.047500", "155553.835000", "155554.622500", "155555.412500", "155556.200000", "155556.987500", "155557.775000", "155558.565000", "155559.352500", "155600.140000", "155600.927500", "155601.717500", "155602.505000", "155603.292500", "155604.080000", "155604.870000", "155605.657500", "155606.445000", "155607.232500", "155608.022500", "155608.810000", "155609.597500", "155610.387500", "155611.175000", "155611.962500", "155612.750000", "155613.540000", "155614.327500", "155615.115000", "155615.902500", "155616.692500", "155617.480000", "155618.267500", "155619.055000", "155619.845000", "155620.632500", "155621.420000", "155622.207500", "155622.997500", "155623.785000", "155624.572500", "155625.360000", "155626.150000", "155626.937500", "155627.725000", "155628.515000", "155629.302500", "155630.090000", "155630.877500", "155631.667500", "155632.455000", "155633.242500", "155634.030000", "155634.820000", "155635.607500", "155636.395000", "155637.182500", "155637.972500", "155638.760000", "155639.547500", "155640.335000", "155641.125000", "155641.912500", "155642.700000", "155643.487500", "155644.277500", "155645.065000", "155645.852500", "155646.642500", "155647.430000", "155648.217500", "155649.005000", "155649.795000", "155650.582500", "155651.370000", "155652.157500", "155652.947500", "155653.735000", "155654.522500", "155655.310000", "155656.100000", "155656.887500", "155657.675000", "155658.462500", "155659.252500", "155700.040000", "155700.827500", "155701.615000", "155702.405000", "155703.192500", "155703.980000", "155704.770000", "155705.557500", "155706.345000", "155707.132500", "155707.922500", "155708.710000", "155709.497500", "155710.285000", "155711.075000", "155711.862500", "155712.650000", "155713.437500", "155714.227500", "155715.015000", "155715.802500", "155716.590000", "155717.380000", "155718.167500", "155718.955000", "155719.742500", "155720.532500", "155721.320000", "155722.107500", "155722.897500", "155723.685000", "155724.472500", "155725.260000", "155726.050000", "155726.837500", "155727.625000", "155728.412500", "155729.202500", "155729.990000", "155730.777500", "155731.565000", "155732.355000", "155733.142500", "155733.930000", "155734.717500", "155735.507500", "155736.295000", "155737.082500", "155737.872500", "155738.660000", "155739.447500", "155740.235000", "155741.025000", "155741.812500", "155742.600000", "155743.387500", "155744.177500", "155744.965000", "155745.752500", "155746.540000", "155747.330000", "155748.117500", "155748.905000", "155749.692500", "155750.482500", "155751.270000", "155752.057500", "155752.845000", "155753.635000", "155754.422500", "155755.210000", "155756.000000", "155756.787500", "155757.575000", "155758.362500", "155759.152500", "155759.940000", "155800.727500", "155801.515000", "155802.305000", "155803.092500", "155803.880000", "155804.667500", "155805.457500", "155806.245000", "155807.032500", "155807.820000", "155808.610000", "155809.397500", "155810.185000", "155810.972500", "155811.762500", "155812.550000", "155813.337500", "155814.127500", "155814.915000", "155815.702500", "155816.490000", "155817.280000", "155818.067500", "155818.855000"],
      "ContentTime": ["155113.375000", "155113.375000", "155113.375000", "155113.375000", "155113.375000", "155113.375000", "155113.390000", "155113.390000", "155113.390000", "155113.390000", "155113.390000", "155113.390000", "155113.406000", "155113.406000", "155113.406000", "155113.406000", "155113.421000", "155113.421000", "155113.421000", "155113.421000", "155113.421000", "155113.421000", "155113.421000", "155113.437000", "155113.437000", "155113.437000", "155113.437000", "155113.437000", "155113.437000", "155113.437000", "155113.453000", "155113.453000", "155113.453000", "155113.453000", "155113.453000", "155113.453000", "155113.468000", "155133.343000", "155133.343000", "155133.343000", "155133.343000", "155133.359000", "155133.359000", "155133.359000", "155133.359000", "155133.359000", "155133.359000", "155133.359000", "155133.375000", "155133.375000", "155133.375000", "155133.375000", "155133.375000", "155133.375000", "155133.375000", "155133.390000", "155133.390000", "155133.390000", "155133.390000", "155133.390000", "155133.390000", "155133.390000", "155133.406000", "155153.343000", "155153.343000", "155153.343000", "155153.343000", "155153.359000", "155153.359000", "155153.359000", "155153.359000", "155153.359000", "155153.359000", "155153.359000", "155153.359000", "155153.375000", "155153.375000", "155153.375000", "155153.375000", "155153.375000", "155153.375000", "155153.390000", "155153.390000", "155153.390000", "155153.390000", "155153.390000", "155153.390000", "155153.390000", "155213.343000", "155213.343000", "155213.343000", "155213.343000", "155213.359000", "155213.359000", "155213.359000", "155213.359000", "155213.359000", "155213.359000", "155213.375000", "155213.375000", "155213.375000", "155213.375000", "155213.375000", "155213.375000", "155213.375000", "155213.390000", "155213.390000", "155213.390000", "155213.390000", "155213.390000", "155213.390000", "155213.406000", "155213.406000", "155213.406000", "155233.343000", "155233.343000", "155233.343000", "155233.343000", "155233.359000", "155233.359000", "155233.359000", "155233.359000", "155233.375000", "155233.375000", "155233.375000", "155233.375000", "155233.375000", "155233.390000", "155233.390000", "155233.390000", "155233.390000", "155233.390000", "155233.406000", "155233.406000", "155233.406000", "155233.406000", "155233.406000", "155233.406000", "155233.406000", "155253.343000", "155253.343000", "155253.343000", "155253.343000", "155253.359000", "155253.359000", "155253.359000", "155253.359000", "155253.359000", "155253.359000", "155253.359000", "155253.375000", "155253.375000", "155253.375000", "155253.375000", "155253.375000", "155253.375000", "155253.375000", "155253.390000", "155253.390000", "155253.390000", "155253.390000", "155253.390000", "155253.390000", "155253.390000", "155253.406000", "155313.343000", "155313.343000", "155313.343000", "155313.343000", "155313.359000", "155313.359000", "155313.359000", "155313.359000", "155313.359000", "155313.359000", "155313.359000", "155313.375000", "155313.375000", "155313.375000", "155313.375000", "155313.375000", "155313.375000", "155313.375000", "155313.390000", "155313.390000", "155313.390000", "155313.390000", "155313.390000", "155313.406000", "155313.406000", "155333.343000", "155333.343000", "155333.343000", "155333.343000", "155333.359000", "155333.359000", "155333.359000", "155333.359000", "155333.359000", "155333.359000", "155333.359000", "155333.375000", "155333.375000", "155333.375000", "155333.375000", "155333.375000", "155333.375000", "155333.375000", "155333.390000", "155333.390000", "155333.390000", "155333.390000", "155333.390000", "155333.390000", "155333.390000", "155333.406000", "155353.343000", "155353.343000", "155353.343000", "155353.343000", "155353.359000", "155353.359000", "155353.359000", "155353.359000", "155353.359000", "155353.359000", "155353.359000", "155353.375000", "155353.375000", "155353.375000", "155353.375000", "155353.375000", "155353.375000", "155353.375000", "155353.390000", "155353.390000", "155353.390000", "155353.390000", "155353.390000", "155353.390000", "155353.390000", "155413.343000", "155413.343000", "155413.343000", "155413.343000", "155413.359000", "155413.359000", "155413.359000", "155413.359000", "155413.359000", "155413.359000", "155413.359000", "155413.359000", "155413.375000", "155413.375000", "155413.375000", "155413.375000", "155413.375000", "155413.375000", "155413.390000", "155413.390000", "155413.390000", "155413.390000", "155413.390000", "155413.390000", "155413.390000", "155413.406000", "155433.343000", "155433.343000", "155433.343000", "155433.343000", "155433.359000", "155433.359000", "155433.359000", "155433.359000", "155433.359000", "155433.359000", "155433.359000", "155433.375000", "155433.375000", "155433.375000", "155433.375000", "155433.375000", "155433.375000", "155433.375000", "155433.390000", "155433.390000", "155433.390000", "155433.390000", "155433.390000", "155433.390000", "155433.390000", "155453.343000", "155453.343000", "155453.343000", "155453.343000", "155453.359000", "155453.359000", "155453.359000", "155453.359000", "155453.359000", "155453.359000", "155453.359000", "155453.375000", "155453.375000", "155453.375000", "155453.375000", "155453.375000", "155453.375000", "155453.375000", "155453.390000", "155453.390000", "155453.390000", "155453.390000", "155453.390000", "155453.390000", "155453.390000", "155453.406000", "155513.343000", "155513.343000", "155513.343000", "155513.343000", "155513.359000", "155513.359000", "155513.359000", "155513.359000", "155513.359000", "155513.359000", "155513.359000", "155513.375000", "155513.375000", "155513.375000", "155513.375000", "155513.375000", "155513.375000", "155513.390000", "155513.390000", "155513.390000", "155513.390000", "155513.390000", "155513.390000", "155513.390000", "155513.406000", "155533.343000", "155533.343000", "155533.343000", "155533.343000", "155533.359000", "155533.359000", "155533.359000", "155533.359000", "155533.359000", "155533.359000", "155533.359000", "155533.375000", "155533.375000", "155533.375000", "155533.375000", "155533.375000", "155533.375000", "155533.375000", "155533.390000", "155533.390000", "155533.390000", "155533.390000", "155533.406000", "155533.406000", "155533.406000", "155533.406000", "155553.343000", "155553.343000", "155553.343000", "155553.343000", "155553.359000", "155553.359000", "155553.359000", "155553.359000", "155553.359000", "155553.359000", "155553.359000", "155553.375000", "155553.375000", "155553.375000", "155553.375000", "155553.375000", "155553.375000", "155553.375000", "155553.390000", "155553.390000", "155553.390000", "155553.390000", "155553.390000", "155553.390000", "155553.390000", "155613.343000", "155613.343000", "155613.343000", "155613.343000", "155613.359000", "155613.359000", "155613.359000", "155613.359000", "155613.359000", "155613.359000", "155613.375000", "155613.375000", "155613.375000", "155613.375000", "155613.375000", "155613.375000", "155613.375000", "155613.390000", "155613.390000", "155613.390000", "155613.390000", "155613.390000", "155613.390000", "155613.406000", "155613.406000", "155613.406000", "155633.343000", "155633.343000", "155633.343000", "155633.343000", "155633.359000", "155633.359000", "155633.359000", "155633.359000", "155633.359000", "155633.359000", "155633.375000", "155633.375000", "155633.375000", "155633.375000", "155633.375000", "155633.375000", "155633.375000", "155633.390000", "155633.390000", "155633.390000", "155633.390000", "155633.390000", "155633.390000", "155633.390000", "155633.406000", "155653.343000", "155653.343000", "155653.343000", "155653.343000", "155653.359000", "155653.359000", "155653.359000", "155653.359000", "155653.359000", "155653.359000", "155653.359000", "155653.375000", "155653.375000", "155653.375000", "155653.375000", "155653.375000", "155653.375000", "155653.375000", "155653.390000", "155653.390000", "155653.390000", "155653.390000", "155653.390000", "155653.390000", "155653.390000", "155653.406000", "155713.343000", "155713.343000", "155713.343000", "155713.343000", "155713.359000", "155713.359000", "155713.359000", "155713.359000", "155713.359000", "155713.359000", "155713.359000", "155713.375000", "155713.375000", "155713.375000", "155713.375000", "155713.375000", "155713.375000", "155713.375000", "155713.390000", "155713.390000", "155713.390000", "155713.390000", "155713.390000", "155713.390000", "155713.390000", "155733.343000", "155733.343000", "155733.343000", "155733.343000", "155733.359000", "155733.359000", "155733.359000", "155733.359000", "155733.359000", "155733.359000", "155733.375000", "155733.375000", "155733.375000", "155733.375000", "155733.375000", "155733.375000", "155733.390000", "155733.390000", "155733.390000", "155733.390000", "155733.390000", "155733.390000", "155733.390000", "155733.406000", "155733.406000", "155733.406000", "155753.343000", "155753.343000", "155753.343000", "155753.343000", "155753.359000", "155753.359000", "155753.359000", "155753.359000", "155753.359000", "155753.359000", "155753.359000", "155753.375000", "155753.375000", "155753.375000", "155753.375000", "155753.375000", "155753.375000", "155753.375000", "155753.390000", "155753.390000", "155753.390000", "155753.390000", "155753.390000", "155753.390000", "155753.390000", "155813.343000", "155813.343000", "155813.343000", "155813.359000", "155813.359000", "155813.359000", "155813.359000", "155813.359000", "155813.359000", "155813.375000", "155813.375000", "155813.375000", "155813.375000", "155813.375000", "155813.375000", "155813.390000", "155813.390000", "155813.390000", "155813.390000", "155813.390000", "155813.390000", "155813.390000", "155813.406000", "155813.406000", "155813.406000", "155819.703000", "155819.703000", "155819.703000", "155819.703000", "155819.718000", "155819.718000", "155819.718000", "155819.718000", "155819.718000"],
      "DataSetTrailingPadding": [
