{
  "AcquisitionMatrixPE": 104,
  "AcquisitionNumber": 1,
  "AcquisitionTime": "15:43:37.740000",
  "BandwidthPerPixelPhaseEncode": 13.935,
  "BaseResolution": 104,
  "CoilString": "C:HEA;HEP",
  "ConversionSoftware": "dcm2niix",
  "ConversionSoftwareVersion": "v1.0.20210317",
  "DerivedVendorReportedEchoSpacing": 0.000690017,
  "DeviceSerialNumber": "35450",
  "DwellTime": 2.5e-06,
  "EchoTime": 0.0348,
  "EffectiveEchoSpacing": 0.000690017,
  "FlipAngle": 55,
  "ImageComments": "Unaliased MB8/PE3",
  "ImageOrientationPatientDICOM": [1, 3.08791e-05, -0.000769807, 3.38229e-08, 0.999195, 0.0401244],
  "ImageType": [
    "ORIGINAL",
    "PRIMARY",
    "M",
    "MB",
    "ND",
    "MOSAIC"
],
  "ImagingFrequency": 123.235,
  "InPlanePhaseEncodingDirectionDICOM": "COL",
  "InstitutionAddress": "Univeristy Ave. 197,Newark,North East,US,07102-1814",
  "InstitutionName": "RUBIC",
  "InstitutionalDepartmentName": "Department",
  "MRAcquisitionType": "2D",
  "MagneticFieldStrength": 3,
  "Manufacturer": "Siemens",
  "ManufacturersModelName": "TrioTim",
  "Modality": "MR",
  "MultibandAccelerationFactor": 8,
  "PartialFourier": 0.875,
  "PatientPosition": "HFS",
  "PercentPhaseFOV": 100,
  "PercentSampling": 100,
  "PhaseEncodingDirection": "j-",
  "PhaseEncodingSteps": 91,
  "PhaseResolution": 1,
  "PixelBandwidth": 1923,
  "ProcedureStepDescription": "Cole^Michael",
  "ProtocolName": "cmrr_mbep2d_bold_2mm_MB8_Task_8x",
  "PulseSequenceDetails": "%CustomerSeq%\\cmrr_mbep2d_bold",
  "ReceiveCoilName": "32Ch_Head",
  "ReconMatrixPE": 104,
  "RepetitionTime": 0.785,
  "SAR": 0.119095,
  "ScanOptions": "PFP\\FS",
  "ScanningSequence": "EP",
  "SequenceName": "epfid2d1_104",
  "SequenceVariant": "SK\\SS",
  "SeriesDescription": "cmrr_mbep2d_bold_2mm_MB8_Task_8x",
  "SeriesNumber": 15,
  "ShimSetting": [2136, -396, -7361, 611, 126, -283, 243, 115],
  "SliceThickness": 2,
  "SliceTiming": [0, 0.4375, 0.0875, 0.525, 0.175, 0.6125, 0.2625, 0.7, 0.35, 0, 0.4375, 0.0875, 0.525, 0.175, 0.6125, 0.2625, 0.7, 0.35, 0, 0.4375, 0.0875, 0.525, 0.175, 0.6125, 0.2625, 0.7, 0.35, 0, 0.4375, 0.0875, 0.525, 0.175, 0.6125, 0.2625, 0.7, 0.35, 0, 0.4375, 0.0875, 0.525, 0.175, 0.6125, 0.2625, 0.7, 0.35, 0, 0.4375, 0.0875, 0.525, 0.175, 0.6125, 0.2625, 0.7, 0.35, 0, 0.4375, 0.0875, 0.525, 0.175, 0.6125, 0.2625, 0.7, 0.35, 0, 0.4375, 0.0875, 0.525, 0.175, 0.6125, 0.2625, 0.7, 0.35],
  "SoftwareVersions": "syngo MR B19",
  "SpacingBetweenSlices": 2,
  "StationName": "MRC35450",
  "TaskName": "cpro",
  "TotalReadoutTime": 0.0710717,
  "TxRefAmp": 316.635,
  "dcmmeta_affine": [
    [-1.9999994039535522, 6.764582849427825e-08, -0.001540852477774024, 103.8758316040039],
    [-6.175820453790948e-05, 1.9983893632888794, 0.08024879544973373, -95.44953918457031],
    [-0.0015396144008263946, -0.08024881780147552, 1.9983887672424316, -80.98434448242188],
    [0.0, 0.0, 0.0, 1.0]
],
  "dcmmeta_reorient_transform": [
    [0.0, -1.0, 0.0, 103.0],
    [1.0, 0.0, 0.0, 0.0],
    [0.0, 0.0, 1.0, 0.0],
    [0.0, 0.0, 0.0, 1.0]
],
  "dcmmeta_shape": [104, 104, 72, 581],
  "dcmmeta_slice_dim": 2,
  "dcmmeta_version": 0.6,
  "global": {
    "const": {
      "AcquisitionMatrix": [104, 0, 0, 104],
      "AngioFlag": "N",
      "BitsAllocated": 16,
      "BitsStored": 12,
      "Columns": 936,
      "EchoNumbers": 1,
      "EchoTime": 34.8,
      "EchoTrainLength": 1,
      "FlipAngle": 55.0,
      "HighBit": 11,
      "ImageOrientationPatient": [0.99999970322165, 3.087910234e-05, -0.0007698071778, 3.3822915e-08, 0.99919469164063, 0.04012440899488],
      "ImagePositionPatient": [-935.87561766422, -941.74024117954, -121.99300416356],
      "ImageType": [
        "ORIGINAL",
        "PRIMARY",
        "M",
        "MB",
        "ND",
        "MOSAIC"
],
      "ImagedNucleus": "1H",
      "ImagingFrequency": 123.234798,
      "InPlanePhaseEncodingDirection": "COL",
      "MRAcquisitionType": "2D",
      "MagneticFieldStrength": 3.0,
      "Manufacturer": "SIEMENS",
      "ManufacturerModelName": "TrioTim",
      "Modality": "MR",
      "NumberOfAverages": 1.0,
      "NumberOfPhaseEncodingSteps": 91,
      "PercentPhaseFieldOfView": 100.0,
      "PercentSampling": 100.0,
      "PerformedProcedureStepStartTime": "144413.281000",
      "PhotometricInterpretation": "MONOCHROME2",
      "PixelBandwidth": 1923.0,
      "PixelRepresentation": 0,
      "PixelSpacing": [2.0, 2.0],
      "ProtocolName": "cmrr_mbep2d_bold_2mm_MB8_Task_8x",
      "RepetitionTime": 785.0,
      "Rows": 936,
      "SAR": 0.1190948937252,
      "SamplesPerPixel": 1,
      "ScanOptions": [
        "PFP",
        "FS"
],
      "ScanningSequence": "EP",
      "SequenceName": "epfid2d1_104",
      "SequenceVariant": [
        "SK",
        "SS"
],
      "SeriesDescription": "cmrr_mbep2d_bold_2mm_MB8_Task_8x",
      "SeriesNumber": 15,
      "SeriesTime": "162548.015000",
      "SliceLocation": -84.828989731311,
      "SliceThickness": 2.0,
      "SmallestImagePixelValue": 0,
      "SoftwareVersions": "syngo MR B19",
      "SpacingBetweenSlices": 1.9999999568563,
      "SpecificCharacterSet": "ISO_IR 100",
      "StudyID": "1",
      "StudyTime": "144413.250000",
      "TransmitCoilName": "Body",
      "VariableFlipAngleFlag": "N",
      "WindowCenterWidthExplanation": "Algo1",
      "dBdt": 0.0},
    "slices": {}
  },
  "time": {
    "samples": {
      "AcquisitionNumber": [1, 2, 3, 4, 5, 6, 7, 8, 9, 10, 11, 12, 13, 14, 15, 16, 17, 18, 19, 20, 21, 22, 23, 24, 25, 26, 27, 28, 29, 30, 31, 32, 33, 34, 35, 36, 37, 38, 39, 40, 41, 42, 43, 44, 45, 46, 47, 48, 49, 50, 51, 52, 53, 54, 55, 56, 57, 58, 59, 60, 61, 62, 63, 64, 65, 66, 67, 68, 69, 70, 71, 72, 73, 74, 75, 76, 77, 78, 79, 80, 81, 82, 83, 84, 85, 86, 87, 88, 89, 90, 91, 92, 93, 94, 95, 96, 97, 98, 99, 100, 101, 102, 103, 104, 105, 106, 107, 108, 109, 110, 111, 112, 113, 114, 115, 116, 117, 118, 119, 120, 121, 122, 123, 124, 125, 126, 127, 128, 129, 130, 131, 132, 133, 134, 135, 136, 137, 138, 139, 140, 141, 142, 143, 144, 145, 146, 147, 148, 149, 150, 151, 152, 153, 154, 155, 156, 157, 158, 159, 160, 161, 162, 163, 164, 165, 166, 167, 168, 169, 170, 171, 172, 173, 174, 175, 176, 177, 178, 179, 180, 181, 182, 183, 184, 185, 186, 187, 188, 189, 190, 191, 192, 193, 194, 195, 196, 197, 198, 199, 200, 201, 202, 203, 204, 205, 206, 207, 208, 209, 210, 211, 212, 213, 214, 215, 216, 217, 218, 219, 220, 221, 222, 223, 224, 225, 226, 227, 228, 229, 230, 231, 232, 233, 234, 235, 236, 237, 238, 239, 240, 241, 242, 243, 244, 245, 246, 247, 248, 249, 250, 251, 252, 253, 254, 255, 256, 257, 258, 259, 260, 261, 262, 263, 264, 265, 266, 267, 268, 269, 270, 271, 272, 273, 274, 275, 276, 277, 278, 279, 280, 281, 282, 283, 284, 285, 286, 287, 288, 289, 290, 291, 292, 293, 294, 295, 296, 297, 298, 299, 300, 301, 302, 303, 304, 305, 306, 307, 308, 309, 310, 311, 312, 313, 314, 315, 316, 317, 318, 319, 320, 321, 322, 323, 324, 325, 326, 327, 328, 329, 330, 331, 332, 333, 334, 335, 336, 337, 338, 339, 340, 341, 342, 343, 344, 345, 346, 347, 348, 349, 350, 351, 352, 353, 354, 355, 356, 357, 358, 359, 360, 361, 362, 363, 364, 365, 366, 367, 368, 369, 370, 371, 372, 373, 374, 375, 376, 377, 378, 379, 380, 381, 382, 383, 384, 385, 386, 387, 388, 389, 390, 391, 392, 393, 394, 395, 396, 397, 398, 399, 400, 401, 402, 403, 404, 405, 406, 407, 408, 409, 410, 411, 412, 413, 414, 415, 416, 417, 418, 419, 420, 421, 422, 423, 424, 425, 426, 427, 428, 429, 430, 431, 432, 433, 434, 435, 436, 437, 438, 439, 440, 441, 442, 443, 444, 445, 446, 447, 448, 449, 450, 451, 452, 453, 454, 455, 456, 457, 458, 459, 460, 461, 462, 463, 464, 465, 466, 467, 468, 469, 470, 471, 472, 473, 474, 475, 476, 477, 478, 479, 480, 481, 482, 483, 484, 485, 486, 487, 488, 489, 490, 491, 492, 493, 494, 495, 496, 497, 498, 499, 500, 501, 502, 503, 504, 505, 506, 507, 508, 509, 510, 511, 512, 513, 514, 515, 516, 517, 518, 519, 520, 521, 522, 523, 524, 525, 526, 527, 528, 529, 530, 531, 532, 533, 534, 535, 536, 537, 538, 539, 540, 541, 542, 543, 544, 545, 546, 547, 548, 549, 550, 551, 552, 553, 554, 555, 556, 557, 558, 559, 560, 561, 562, 563, 564, 565, 566, 567, 568, 569, 570, 571, 572, 573, 574, 575, 576, 577, 578, 579, 580, 581],
      "AcquisitionTime": ["154337.740000", "154338.530000", "154339.317500", "154340.105000", "154340.892500", "154341.682500", "154342.470000", "154343.257500", "154344.045000", "154344.835000", "154345.622500", "154346.410000", "154347.197500", "154347.987500", "154348.775000", "154349.562500", "154350.350000", "154351.140000", "154351.927500", "154352.715000", "154353.505000", "154354.292500", "154355.080000", "154355.867500", "154356.657500", "154357.445000", "154358.232500", "154359.020000", "154359.810000", "154400.597500", "154401.385000", "154402.172500", "154402.962500", "154403.750000", "154404.537500", "154405.325000", "154406.115000", "154406.902500", "154407.690000", "154408.477500", "154409.267500", "154410.055000", "154410.842500", "154411.632500", "154412.420000", "154413.207500", "154413.995000", "154414.785000", "154415.572500", "154416.360000", "154417.147500", "154417.937500", "154418.725000", "154419.512500", "154420.300000", "154421.090000", "154421.877500", "154422.665000", "154423.452500", "154424.242500", "154425.030000", "154425.817500", "154426.605000", "154427.395000", "154428.182500", "154428.970000", "154429.760000", "154430.547500", "154431.335000", "154432.122500", "154432.912500", "154433.700000", "154434.487500", "154435.275000", "154436.065000", "154436.852500", "154437.640000", "154438.427500", "154439.217500", "154440.005000", "154440.792500", "154441.580000", "154442.370000", "154443.157500", "154443.945000", "154444.732500", "154445.522500", "154446.310000", "154447.097500", "154447.887500", "154448.675000", "154449.462500", "154450.250000", "154451.040000", "154451.827500", "154452.615000", "154453.402500", "154454.192500", "154454.980000", "154455.767500", "154456.555000", "154457.345000", "154458.132500", "154458.920000", "154459.707500", "154500.497500", "154501.285000", "154502.072500", "154502.860000", "154503.650000", "154504.437500", "154505.225000", "154506.015000", "154506.802500", "154507.590000", "154508.377500", "154509.167500", "154509.955000", "154510.742500", "154511.530000", "154512.320000", "154513.107500", "154513.895000", "154514.682500", "154515.472500", "154516.260000", "154517.047500", "154517.835000", "154518.625000", "154519.412500", "154520.200000", "154520.990000", "154521.777500", "154522.565000", "154523.352500", "154524.142500", "154524.930000", "154525.717500", "154526.505000", "154527.295000", "154528.082500", "154528.870000", "154529.657500", "154530.447500", "154531.235000", "154532.022500", "154532.810000", "154533.600000", "154534.387500", "154535.175000", "154535.962500", "154536.752500", "154537.540000", "154538.327500", "154539.117500", "154539.905000", "154540.692500", "154541.480000", "154542.270000", "154543.057500", "154543.845000", "154544.632500", "154545.422500", "154546.210000", "154546.997500", "154547.785000", "154548.575000", "154549.362500", "154550.150000", "154550.937500", "154551.727500", "154552.515000", "154553.302500", "154554.090000", "154554.880000", "154555.667500", "154556.455000", "154557.245000", "154558.032500", "154558.820000", "154559.607500", "154600.397500", "154601.185000", "154601.972500", "154602.760000", "154603.550000", "154604.337500", "154605.125000", "154605.912500", "154606.702500", "154607.490000", "154608.277500", "154609.065000", "154609.855000", "154610.642500", "154611.430000", "154612.217500", "154613.007500", "154613.795000", "154614.582500", "154615.372500", "154616.160000", "154616.947500", "154617.735000", "154618.525000", "154619.312500", "154620.100000", "154620.887500", "154621.677500", "154622.465000", "154623.252500", "154624.040000", "154624.830000", "154625.617500", "154626.405000", "154627.192500", "154627.982500", "154628.770000", "154629.557500", "154630.345000", "154631.135000", "154631.922500", "154632.710000", "154633.500000", "154634.287500", "154635.075000", "154635.862500", "154636.652500", "154637.440000", "154638.227500", "154639.015000", "154639.805000", "154640.592500", "154641.380000", "154642.167500", "154642.957500", "154643.745000", "154644.532500", "154645.320000", "154646.110000", "154646.897500", "154647.685000", "154648.472500", "154649.262500", "154650.050000", "154650.837500", "154651.627500", "154652.415000", "154653.202500", "154653.990000", "154654.780000", "154655.567500", "154656.355000", "154657.142500", "154657.932500", "154658.720000", "154659.507500", "154700.295000", "154701.085000", "154701.872500", "154702.660000", "154703.447500", "154704.237500", "154705.025000", "154705.812500", "154706.600000", "154707.390000", "154708.177500", "154708.965000", "154709.755000", "154710.542500", "154711.330000", "154712.117500", "154712.907500", "154713.695000", "154714.482500", "154715.270000", "154716.060000", "154716.847500", "154717.635000", "154718.422500", "154719.212500", "154720.000000", "154720.787500", "154721.575000", "154722.365000", "154723.152500", "154723.940000", "154724.727500", "154725.517500", "154726.305000", "154727.092500", "154727.882500", "154728.670000", "154729.457500", "154730.245000", "154731.035000", "154731.822500", "154732.610000", "154733.397500", "154734.187500", "154734.975000", "154735.762500", "154736.550000", "154737.340000", "154738.127500", "154738.915000", "154739.702500", "154740.492500", "154741.280000", "154742.067500", "154742.855000", "154743.645000", "154744.432500", "154745.220000", "154746.010000", "154746.797500", "154747.585000", "154748.372500", "154749.162500", "154749.950000", "154750.737500", "154751.525000", "154752.315000", "154753.102500", "154753.890000", "154754.677500", "154755.467500", "154756.255000", "154757.042500", "154757.830000", "154758.620000", "154759.407500", "154800.195000", "154800.982500", "154801.772500", "154802.560000", "154803.347500", "154804.137500", "154804.925000", "154805.712500", "154806.500000", "154807.290000", "154808.077500", "154808.865000", "154809.652500", "154810.442500", "154811.230000", "154812.017500", "154812.805000", "154813.595000", "154814.382500", "154815.170000", "154815.957500", "154816.747500", "154817.535000", "154818.322500", "154819.110000", "154819.900000", "154820.687500", "154821.475000", "154822.265000", "154823.052500", "154823.840000", "154824.627500", "154825.417500", "154826.205000", "154826.992500", "154827.780000", "154828.570000", "154829.357500", "154830.145000", "154830.932500", "154831.722500", "154832.510000", "154833.297500", "154834.085000", "154834.875000", "154835.662500", "154836.450000", "154837.240000", "154838.027500", "154838.815000", "154839.602500", "154840.392500", "154841.180000", "154841.967500", "154842.755000", "154843.545000", "154844.332500", "154845.120000", "154845.907500", "154846.697500", "154847.485000", "154848.272500", "154849.060000", "154849.850000", "154850.637500", "154851.425000", "154852.212500", "154853.002500", "154853.790000", "154854.577500", "154855.367500", "154856.155000", "154856.942500", "154857.730000", "154858.520000", "154859.307500", "154900.095000", "154900.882500", "154901.672500", "154902.460000", "154903.247500", "154904.035000", "154904.825000", "154905.612500", "154906.400000", "154907.187500", "154907.977500", "154908.765000", "154909.552500", "154910.340000", "154911.130000", "154911.917500", "154912.705000", "154913.495000", "154914.282500", "154915.070000", "154915.857500", "154916.647500", "154917.435000", "154918.222500", "154919.010000", "154919.800000", "154920.587500", "154921.375000", "154922.162500", "154922.952500", "154923.740000", "154924.527500", "154925.315000", "154926.105000", "154926.892500", "154927.680000", "154928.467500", "154929.257500", "154930.045000", "154930.832500", "154931.622500", "154932.410000", "154933.197500", "154933.985000", "154934.775000", "154935.562500", "154936.350000", "154937.137500", "154937.927500", "154938.715000", "154939.502500", "154940.290000", "154941.080000", "154941.867500", "154942.655000", "154943.442500", "154944.232500", "154945.020000", "154945.807500", "154946.595000", "154947.385000", "154948.172500", "154948.960000", "154949.750000", "154950.537500", "154951.325000", "154952.112500", "154952.902500", "154953.690000", "154954.477500", "154955.265000", "154956.055000", "154956.842500", "154957.630000", "154958.417500", "154959.207500", "154959.995000", "155000.782500", "155001.570000", "155002.360000", "155003.147500", "155003.935000", "155004.722500", "155005.512500", "155006.300000", "155007.087500", "155007.877500", "155008.665000", "155009.452500", "155010.240000", "155011.030000", "155011.817500", "155012.605000", "155013.392500", "155014.182500", "155014.970000", "155015.757500", "155016.545000", "155017.335000", "155018.122500", "155018.910000", "155019.697500", "155020.487500", "155021.275000", "155022.062500", "155022.850000", "155023.640000", "155024.427500", "155025.215000", "155026.005000", "155026.792500", "155027.580000", "155028.367500", "155029.157500", "155029.945000", "155030.732500", "155031.520000", "155032.310000", "155033.097500", "155033.885000", "155034.672500", "155035.462500", "155036.250000", "155037.037500", "155037.825000", "155038.615000", "155039.402500", "155040.190000", "155040.977500", "155041.767500", "155042.555000", "155043.342500", "155044.132500", "155044.920000", "155045.707500", "155046.495000", "155047.285000", "155048.072500", "155048.860000", "155049.647500", "155050.437500", "155051.225000", "155052.012500", "155052.800000", "155053.590000", "155054.377500", "155055.165000", "155055.952500", "155056.742500", "155057.530000", "155058.317500", "155059.105000", "155059.895000", "155100.682500", "155101.470000", "155102.260000", "155103.047500", "155103.835000", "155104.622500", "155105.412500", "155106.200000", "155106.987500", "155107.775000", "155108.565000", "155109.352500", "155110.140000", "155110.927500", "155111.717500", "155112.505000", "155113.292500", "155114.080000", "155114.870000"],
      "ContentTime": ["162548.031000", "162548.031000", "162648.000000", "162648.000000", "162648.000000", "162648.000000", "162648.000000", "162648.000000", "162648.015000", "162648.015000", "162648.015000", "162648.015000", "162648.015000", "162648.015000", "162648.015000", "162648.031000", "162648.031000", "162648.031000", "162648.031000", "162648.031000", "162648.031000", "162648.031000", "162648.046000", "162648.046000", "162648.046000", "162648.046000", "162648.046000", "162648.046000", "162648.046000", "162648.062000", "162748.000000", "162748.000000", "162748.000000", "162748.000000", "162748.000000", "162748.000000", "162748.015000", "162748.015000", "162748.015000", "162748.015000", "162748.015000", "162748.015000", "162748.031000", "162748.031000", "162748.031000", "162748.031000", "162748.031000", "162748.031000", "162748.046000", "162748.046000", "162748.046000", "162748.046000", "162748.046000", "162748.046000", "162748.046000", "162748.062000", "162748.062000", "162848.000000", "162848.000000", "162848.000000", "162848.000000", "162848.000000", "162848.000000", "162848.015000", "162848.015000", "162848.015000", "162848.015000", "162848.015000", "162848.015000", "162848.015000", "162848.031000", "162848.031000", "162848.031000", "162848.031000", "162848.031000", "162848.031000", "162848.031000", "162848.046000", "162848.046000", "162848.046000", "162848.046000", "162848.046000", "162848.046000", "162848.046000", "162948.000000", "162948.000000", "162948.000000", "162948.000000", "162948.000000", "162948.000000", "162948.015000", "162948.015000", "162948.015000", "162948.015000", "162948.015000", "162948.015000", "162948.015000", "162948.031000", "162948.031000", "162948.031000", "162948.031000", "162948.031000", "162948.031000", "162948.031000", "162948.046000", "162948.046000", "162948.046000", "162948.046000", "162948.046000", "162948.046000", "162948.046000", "162948.062000", "163048.000000", "163048.000000", "163048.000000", "163048.000000", "163048.000000", "163048.000000", "163048.015000", "163048.015000", "163048.015000", "163048.015000", "163048.015000", "163048.015000", "163048.015000", "163048.031000", "163048.031000", "163048.031000", "163048.031000", "163048.031000", "163048.031000", "163048.031000", "163048.046000", "163048.046000", "163048.046000", "163048.046000", "163048.046000", "163048.046000", "163048.046000", "163148.000000", "163148.000000", "163148.000000", "163148.000000", "163148.000000", "163148.000000", "163148.015000", "163148.015000", "163148.015000", "163148.015000", "163148.015000", "163148.015000", "163148.015000", "163148.031000", "163148.031000", "163148.031000", "163148.031000", "163148.031000", "163148.031000", "163148.031000", "163148.046000", "163148.046000", "163148.046000", "163148.046000", "163148.046000", "163148.062000", "163148.062000", "163148.062000", "163248.000000", "163248.000000", "163248.000000", "163248.000000", "163248.000000", "163248.000000", "163248.015000", "163248.015000", "163248.015000", "163248.015000", "163248.015000", "163248.015000", "163248.015000", "163248.031000", "163248.031000", "163248.031000", "163248.031000", "163248.031000", "163248.031000", "163248.031000", "163248.046000", "163248.046000", "163248.046000", "163248.046000", "163248.046000", "163248.046000", "163248.046000", "163328.000000", "163328.000000", "163328.000000", "163328.015000", "163328.015000", "163328.015000", "163328.015000", "163328.015000", "163328.015000", "163328.015000", "163328.031000", "163328.031000", "163328.031000", "163328.031000", "163328.031000", "163328.031000", "163328.031000", "163328.046000", "163428.000000", "163428.000000", "163428.000000", "163428.000000", "163428.015000", "163428.015000", "163428.015000", "163428.015000", "163428.015000", "163428.015000", "163428.015000", "163428.015000", "163428.031000", "163428.031000", "163428.031000", "163428.031000", "163428.031000", "163428.031000", "163428.031000", "163428.046000", "163428.046000", "163428.046000", "163428.046000", "163428.046000", "163428.046000", "163428.062000", "163428.062000", "163428.062000", "163528.000000", "163528.000000", "163528.000000", "163528.000000", "163528.000000", "163528.015000", "163528.015000", "163528.015000", "163528.015000", "163528.015000", "163528.015000", "163528.015000", "163528.031000", "163528.031000", "163528.031000", "163528.031000", "163528.031000", "163528.031000", "163528.046000", "163528.046000", "163528.046000", "163528.046000", "163528.046000", "163528.046000", "163528.046000", "163528.062000", "163528.062000", "163628.000000", "163628.000000", "163628.000000", "163628.000000", "163628.015000", "163628.015000", "163628.015000", "163628.015000", "163628.015000", "163628.015000", "163628.015000", "163628.031000", "163628.031000", "163628.031000", "163628.031000", "163628.031000", "163628.031000", "163628.031000", "163628.046000", "163628.046000", "163628.046000", "163628.046000", "163628.046000", "163628.046000", "163628.046000", "163628.062000", "163628.062000", "163628.062000", "163728.000000", "163728.000000", "163728.000000", "163728.000000", "163728.015000", "163728.015000", "163728.015000", "163728.015000", "163728.015000", "163728.015000", "163728.015000", "163728.015000", "163728.031000", "163728.031000", "163728.031000", "163728.031000", "163728.031000", "163728.031000", "163728.031000", "163728.046000", "163728.046000", "163728.046000", "163728.046000", "163728.046000", "163728.046000", "163728.046000", "163728.062000", "163828.000000", "163828.000000", "163828.000000", "163828.000000", "163828.015000", "163828.015000", "163828.015000", "163828.015000", "163828.015000", "163828.015000", "163828.015000", "163828.031000", "163828.031000", "163828.031000", "163828.031000", "163828.031000", "163828.031000", "163828.031000", "163828.046000", "163828.046000", "163828.046000", "163828.046000", "163828.046000", "163828.046000", "163828.046000", "163828.046000", "163828.062000", "163928.000000", "163928.000000", "163928.000000", "163928.000000", "163928.015000", "163928.015000", "163928.015000", "163928.015000", "163928.015000", "163928.015000", "163928.015000", "163928.031000", "163928.031000", "163928.031000", "163928.031000", "163928.031000", "163928.031000", "163928.031000", "163928.046000", "163928.046000", "163928.046000", "163928.046000", "163928.046000", "163928.046000", "163928.046000", "163928.062000", "163928.062000", "163928.062000", "164028.000000", "164028.000000", "164028.000000", "164028.000000", "164028.015000", "164028.015000", "164028.015000", "164028.015000", "164028.015000", "164028.015000", "164028.015000", "164028.031000", "164028.031000", "164028.031000", "164028.031000", "164028.031000", "164028.031000", "164028.031000", "164028.046000", "164028.046000", "164028.046000", "164028.046000", "164028.046000", "164028.046000", "164028.046000", "164028.046000", "164028.062000", "164128.000000", "164128.000000", "164128.000000", "164128.000000", "164128.015000", "164128.015000", "164128.015000", "164128.015000", "164128.015000", "164128.015000", "164128.015000", "164128.031000", "164128.031000", "164128.031000", "164128.031000", "164128.031000", "164128.031000", "164128.031000", "164128.031000", "164128.046000", "164128.046000", "164128.046000", "164128.046000", "164128.046000", "164128.062000", "164128.062000", "164128.062000", "164228.015000", "164228.015000", "164228.015000", "164228.015000", "164228.015000", "164228.015000", "164228.015000", "164228.031000", "164228.031000", "164228.031000", "164228.031000", "164228.031000", "164228.031000", "164228.031000", "164228.046000", "164228.046000", "164228.046000", "164228.046000", "164228.046000", "164228.062000", "164228.062000", "164228.062000", "164228.062000", "164228.062000", "164228.062000", "164228.078000", "164228.078000", "164228.078000", "164328.015000", "164328.015000", "164328.015000", "164328.015000", "164328.015000", "164328.015000", "164328.015000", "164328.031000", "164328.031000", "164328.031000", "164328.031000", "164328.031000", "164328.031000", "164328.031000", "164328.046000", "164328.046000", "164328.046000", "164328.046000", "164328.046000", "164328.046000", "164328.062000", "164328.062000", "164328.062000", "164328.062000", "164328.062000", "164328.078000", "164328.078000", "164328.078000", "164348.015000", "164348.015000", "164348.015000", "164348.015000", "164348.015000", "164348.015000", "164348.015000", "164348.031000", "164348.031000", "164448.015000", "164448.015000", "164448.015000", "164448.015000", "164448.015000", "164448.015000", "164448.015000", "164448.031000", "164448.031000", "164448.031000", "164448.031000", "164448.031000", "164448.031000", "164448.046000", "164448.046000", "164448.046000", "164448.046000", "164448.046000", "164448.046000", "164448.046000", "164448.062000", "164448.062000", "164448.062000", "164448.062000", "164448.062000", "164448.062000", "164448.078000", "164448.078000", "164548.015000", "164548.015000", "164548.015000", "164548.015000", "164548.015000", "164548.015000", "164548.031000", "164548.031000", "164548.031000", "164548.031000", "164548.031000", "164548.031000", "164548.031000", "164548.046000", "164548.046000", "164548.046000", "164548.046000", "164548.046000", "164548.046000", "164548.046000", "164548.062000", "164548.062000", "164548.062000", "164548.062000", "164548.062000", "164548.062000", "164548.078000", "164548.078000", "164648.015000", "164648.015000", "164648.015000", "164648.015000", "164648.015000", "164648.015000", "164648.031000", "164648.031000", "164648.031000", "164648.031000", "164648.031000", "164648.046000", "164648.046000", "164648.046000", "164648.046000", "164648.062000", "164648.062000", "164648.062000", "164648.062000", "164648.062000", "164648.062000", "164648.062000", "164648.078000", "164648.078000", "164648.078000", "164648.078000", "164648.078000", "164650.000000", "164650.000000"],
