{
  "AcquisitionMatrixPE": 104,
  "AcquisitionNumber": 1,
  "AcquisitionTime": "11:18:15.740000",
  "BandwidthPerPixelPhaseEncode": 13.935,
  "BaseResolution": 104,
  "CoilString": "C:HEA;HEP",
  "ConversionSoftware": "dcm2niix",
  "ConversionSoftwareVersion": "v1.0.20210317",
  "DerivedVendorReportedEchoSpacing": 0.000690017,
  "DeviceSerialNumber": "35450",
  "DwellTime": 2.5e-06,
  "EchoTime": 0.0348,
  "EffectiveEchoSpacing": 0.000690017,
  "FlipAngle": 55,
  "ImageComments": "Unaliased MB8/PE3 (remote)",
  "ImageOrientationPatientDICOM": [1, -1.74543e-05, -6.82193e-05, -5.94602e-08, 0.968583, -0.248689],
  "ImageType": [
    "ORIGINAL",
    "PRIMARY",
    "M",
    "MB",
    "ND",
    "MOSAIC"
],
  "ImagingFrequency": 123.235,
  "InPlanePhaseEncodingDirectionDICOM": "COL",
  "InstitutionAddress": "Univeristy Ave. 197,Newark,North East,US,07102-1814",
  "InstitutionName": "RUBIC",
  "InstitutionalDepartmentName": "Department",
  "MRAcquisitionType": "2D",
  "MagneticFieldStrength": 3,
  "Manufacturer": "Siemens",
  "ManufacturersModelName": "TrioTim",
  "Modality": "MR",
  "MultibandAccelerationFactor": 8,
  "PartialFourier": 0.875,
  "PatientPosition": "HFS",
  "PercentPhaseFOV": 100,
  "PercentSampling": 100,
  "PhaseEncodingDirection": "j-",
  "PhaseEncodingSteps": 91,
  "PhaseResolution": 1,
  "PixelBandwidth": 1923,
  "ProcedureStepDescription": "Cole^Michael",
  "ProtocolName": "cmrr_mbep2d_bold_2mm_MB8_Task_8x",
  "PulseSequenceDetails": "%CustomerSeq%\\cmrr_mbep2d_bold",
  "ReceiveCoilName": "32Ch_Head",
  "ReconMatrixPE": 104,
  "RepetitionTime": 0.785,
  "SAR": 0.134922,
  "ScanOptions": "PFP\\FS",
  "ScanningSequence": "EP",
  "SequenceName": "epfid2d1_104",
  "SequenceVariant": "SK\\SS",
  "SeriesDescription": "cmrr_mbep2d_bold_2mm_MB8_Task_8x",
  "SeriesNumber": 15,
  "ShimSetting": [2133, -299, -7271, 496, 152, -502, -192, 16],
  "SliceThickness": 2,
  "SliceTiming": [0, 0.4375, 0.0875, 0.525, 0.175, 0.6125, 0.2625, 0.7, 0.35, 0, 0.4375, 0.0875, 0.525, 0.175, 0.6125, 0.2625, 0.7, 0.35, 0, 0.4375, 0.0875, 0.525, 0.175, 0.6125, 0.2625, 0.7, 0.35, 0, 0.4375, 0.0875, 0.525, 0.175, 0.6125, 0.2625, 0.7, 0.35, 0, 0.4375, 0.0875, 0.525, 0.175, 0.6125, 0.2625, 0.7, 0.35, 0, 0.4375, 0.0875, 0.525, 0.175, 0.6125, 0.2625, 0.7, 0.35, 0, 0.4375, 0.0875, 0.525, 0.175, 0.6125, 0.2625, 0.7, 0.35, 0, 0.4375, 0.0875, 0.525, 0.175, 0.6125, 0.2625, 0.7, 0.35],
  "SoftwareVersions": "syngo MR B19",
  "SpacingBetweenSlices": 2,
  "StationName": "MRC35450",
  "TaskName": "cpro",
  "TotalReadoutTime": 0.0710717,
  "TxRefAmp": 330.163,
  "dcmmeta_affine": [
    [-2.0, -1.1892039708527591e-07, -0.00014083347923588008, 101.982421875],
    [3.490859307930805e-05, 1.937166690826416, -0.49737855792045593, -71.7582015991211],
    [-0.00013643853890243918, 0.49737855792045593, 1.937166690826416, -120.71822357177734],
    [0.0, 0.0, 0.0, 1.0]
],
  "dcmmeta_reorient_transform": [
    [0.0, -1.0, 0.0, 103.0],
    [1.0, 0.0, 0.0, 0.0],
    [0.0, 0.0, 1.0, 0.0],
    [0.0, 0.0, 0.0, 1.0]
],
  "dcmmeta_shape": [104, 104, 72, 581],
  "dcmmeta_slice_dim": 2,
  "dcmmeta_version": 0.6,
  "global": {
    "const": {
      "AcquisitionMatrix": [104, 0, 0, 104],
      "AngioFlag": "N",
      "BitsAllocated": 16,
      "BitsStored": 12,
      "Columns": 936,
      "EchoNumbers": 1,
      "EchoTime": 34.8,
      "EchoTrainLength": 1,
      "FlipAngle": 55.0,
      "HighBit": 11,
      "ImageOrientationPatient": [0.99999999752074, -1.74542964e-05, -6.82192675e-05, -5.9460198e-08, 0.96858331704981, -0.2486892798912],
      "ImagePositionPatient": [-933.98235627027, -933.6167577209, 137.47801042343],
      "ImageType": [
        "ORIGINAL",
        "PRIMARY",
        "M",
        "MB",
        "ND",
        "MOSAIC"
],
      "ImagedNucleus": "1H",
      "ImagingFrequency": 123.234517,
      "InPlanePhaseEncodingDirection": "COL",
      "MRAcquisitionType": "2D",
      "MagneticFieldStrength": 3.0,
      "Manufacturer": "SIEMENS",
      "ManufacturerModelName": "TrioTim",
      "Modality": "MR",
      "NumberOfAverages": 1.0,
      "NumberOfPhaseEncodingSteps": 91,
      "PercentPhaseFieldOfView": 100.0,
      "PercentSampling": 100.0,
      "PerformedProcedureStepStartTime": "100106.750000",
      "PhotometricInterpretation": "MONOCHROME2",
      "PixelBandwidth": 1923.0,
      "PixelRepresentation": 0,
      "PixelSpacing": [2.0, 2.0],
      "ProtocolName": "cmrr_mbep2d_bold_2mm_MB8_Task_8x",
      "RepetitionTime": 785.0,
      "Rows": 936,
      "SAR": 0.13492180444493,
      "SamplesPerPixel": 1,
      "ScanOptions": [
        "PFP",
        "FS"
],
      "ScanningSequence": "EP",
      "SequenceName": "epfid2d1_104",
      "SequenceVariant": [
        "SK",
        "SS"
],
      "SeriesDescription": "cmrr_mbep2d_bold_2mm_MB8_Task_8x",
      "SeriesNumber": 15,
      "SeriesTime": "111842.125000",
      "SliceLocation": -99.087339566512,
      "SliceThickness": 2.0,
      "SmallestImagePixelValue": 0,
      "SoftwareVersions": "syngo MR B19",
      "SpacingBetweenSlices": 2.000000041491,
      "SpecificCharacterSet": "ISO_IR 100",
      "StudyID": "1",
      "StudyTime": "100106.687000",
      "TransmitCoilName": "Body",
      "VariableFlipAngleFlag": "N",
      "WindowCenterWidthExplanation": "Algo1",
      "dBdt": 0.0},
    "slices": {}
  },
  "time": {
    "samples": {
      "AcquisitionNumber": [1, 2, 3, 4, 5, 6, 7, 8, 9, 10, 11, 12, 13, 14, 15, 16, 17, 18, 19, 20, 21, 22, 23, 24, 25, 26, 27, 28, 29, 30, 31, 32, 33, 34, 35, 36, 37, 38, 39, 40, 41, 42, 43, 44, 45, 46, 47, 48, 49, 50, 51, 52, 53, 54, 55, 56, 57, 58, 59, 60, 61, 62, 63, 64, 65, 66, 67, 68, 69, 70, 71, 72, 73, 74, 75, 76, 77, 78, 79, 80, 81, 82, 83, 84, 85, 86, 87, 88, 89, 90, 91, 92, 93, 94, 95, 96, 97, 98, 99, 100, 101, 102, 103, 104, 105, 106, 107, 108, 109, 110, 111, 112, 113, 114, 115, 116, 117, 118, 119, 120, 121, 122, 123, 124, 125, 126, 127, 128, 129, 130, 131, 132, 133, 134, 135, 136, 137, 138, 139, 140, 141, 142, 143, 144, 145, 146, 147, 148, 149, 150, 151, 152, 153, 154, 155, 156, 157, 158, 159, 160, 161, 162, 163, 164, 165, 166, 167, 168, 169, 170, 171, 172, 173, 174, 175, 176, 177, 178, 179, 180, 181, 182, 183, 184, 185, 186, 187, 188, 189, 190, 191, 192, 193, 194, 195, 196, 197, 198, 199, 200, 201, 202, 203, 204, 205, 206, 207, 208, 209, 210, 211, 212, 213, 214, 215, 216, 217, 218, 219, 220, 221, 222, 223, 224, 225, 226, 227, 228, 229, 230, 231, 232, 233, 234, 235, 236, 237, 238, 239, 240, 241, 242, 243, 244, 245, 246, 247, 248, 249, 250, 251, 252, 253, 254, 255, 256, 257, 258, 259, 260, 261, 262, 263, 264, 265, 266, 267, 268, 269, 270, 271, 272, 273, 274, 275, 276, 277, 278, 279, 280, 281, 282, 283, 284, 285, 286, 287, 288, 289, 290, 291, 292, 293, 294, 295, 296, 297, 298, 299, 300, 301, 302, 303, 304, 305, 306, 307, 308, 309, 310, 311, 312, 313, 314, 315, 316, 317, 318, 319, 320, 321, 322, 323, 324, 325, 326, 327, 328, 329, 330, 331, 332, 333, 334, 335, 336, 337, 338, 339, 340, 341, 342, 343, 344, 345, 346, 347, 348, 349, 350, 351, 352, 353, 354, 355, 356, 357, 358, 359, 360, 361, 362, 363, 364, 365, 366, 367, 368, 369, 370, 371, 372, 373, 374, 375, 376, 377, 378, 379, 380, 381, 382, 383, 384, 385, 386, 387, 388, 389, 390, 391, 392, 393, 394, 395, 396, 397, 398, 399, 400, 401, 402, 403, 404, 405, 406, 407, 408, 409, 410, 411, 412, 413, 414, 415, 416, 417, 418, 419, 420, 421, 422, 423, 424, 425, 426, 427, 428, 429, 430, 431, 432, 433, 434, 435, 436, 437, 438, 439, 440, 441, 442, 443, 444, 445, 446, 447, 448, 449, 450, 451, 452, 453, 454, 455, 456, 457, 458, 459, 460, 461, 462, 463, 464, 465, 466, 467, 468, 469, 470, 471, 472, 473, 474, 475, 476, 477, 478, 479, 480, 481, 482, 483, 484, 485, 486, 487, 488, 489, 490, 491, 492, 493, 494, 495, 496, 497, 498, 499, 500, 501, 502, 503, 504, 505, 506, 507, 508, 509, 510, 511, 512, 513, 514, 515, 516, 517, 518, 519, 520, 521, 522, 523, 524, 525, 526, 527, 528, 529, 530, 531, 532, 533, 534, 535, 536, 537, 538, 539, 540, 541, 542, 543, 544, 545, 546, 547, 548, 549, 550, 551, 552, 553, 554, 555, 556, 557, 558, 559, 560, 561, 562, 563, 564, 565, 566, 567, 568, 569, 570, 571, 572, 573, 574, 575, 576, 577, 578, 579, 580, 581],
      "AcquisitionTime": ["111815.740000", "111816.527500", "111817.315000", "111818.105000", "111818.892500", "111819.680000", "111820.467500", "111821.257500", "111822.045000", "111822.832500", "111823.620000", "111824.410000", "111825.197500", "111825.985000", "111826.775000", "111827.562500", "111828.350000", "111829.137500", "111829.927500", "111830.715000", "111831.502500", "111832.290000", "111833.080000", "111833.867500", "111834.655000", "111835.442500", "111836.232500", "111837.020000", "111837.807500", "111838.595000", "111839.385000", "111840.172500", "111840.960000", "111841.747500", "111842.537500", "111843.325000", "111844.112500", "111844.902500", "111845.690000", "111846.477500", "111847.265000", "111848.055000", "111848.842500", "111849.630000", "111850.417500", "111851.207500", "111851.995000", "111852.782500", "111853.570000", "111854.360000", "111855.147500", "111855.935000", "111856.722500", "111857.512500", "111858.300000", "111859.087500", "111859.875000", "111900.665000", "111901.452500", "111902.240000", "111903.030000", "111903.817500", "111904.605000", "111905.392500", "111906.182500", "111906.970000", "111907.757500", "111908.545000", "111909.335000", "111910.122500", "111910.910000", "111911.697500", "111912.487500", "111913.275000", "111914.062500", "111914.850000", "111915.640000", "111916.427500", "111917.215000", "111918.002500", "111918.792500", "111919.580000", "111920.367500", "111921.157500", "111921.945000", "111922.732500", "111923.520000", "111924.310000", "111925.097500", "111925.885000", "111926.672500", "111927.462500", "111928.250000", "111929.037500", "111929.825000", "111930.615000", "111931.402500", "111932.190000", "111932.977500", "111933.767500", "111934.555000", "111935.342500", "111936.130000", "111936.920000", "111937.707500", "111938.495000", "111939.285000", "111940.072500", "111940.860000", "111941.647500", "111942.437500", "111943.225000", "111944.012500", "111944.800000", "111945.590000", "111946.377500", "111947.165000", "111947.952500", "111948.742500", "111949.530000", "111950.317500", "111951.105000", "111951.895000", "111952.682500", "111953.470000", "111954.257500", "111955.047500", "111955.835000", "111956.622500", "111957.412500", "111958.200000", "111958.987500", "111959.775000", "112000.565000", "112001.352500", "112002.140000", "112002.927500", "112003.717500", "112004.505000", "112005.292500", "112006.080000", "112006.870000", "112007.657500", "112008.445000", "112009.232500", "112010.022500", "112010.810000", "112011.597500", "112012.385000", "112013.175000", "112013.962500", "112014.750000", "112015.540000", "112016.327500", "112017.115000", "112017.902500", "112018.692500", "112019.480000", "112020.267500", "112021.055000", "112021.845000", "112022.632500", "112023.420000", "112024.207500", "112024.997500", "112025.785000", "112026.572500", "112027.360000", "112028.150000", "112028.937500", "112029.725000", "112030.515000", "112031.302500", "112032.090000", "112032.877500", "112033.667500", "112034.455000", "112035.242500", "112036.030000", "112036.820000", "112037.607500", "112038.395000", "112039.182500", "112039.972500", "112040.760000", "112041.547500", "112042.335000", "112043.125000", "112043.912500", "112044.700000", "112045.487500", "112046.277500", "112047.065000", "112047.852500", "112048.642500", "112049.430000", "112050.217500", "112051.005000", "112051.795000", "112052.582500", "112053.370000", "112054.157500", "112054.947500", "112055.735000", "112056.522500", "112057.310000", "112058.100000", "112058.887500", "112059.675000", "112100.462500", "112101.252500", "112102.040000", "112102.827500", "112103.615000", "112104.405000", "112105.192500", "112105.980000", "112106.770000", "112107.557500", "112108.345000", "112109.132500", "112109.922500", "112110.710000", "112111.497500", "112112.285000", "112113.075000", "112113.862500", "112114.650000", "112115.437500", "112116.227500", "112117.015000", "112117.802500", "112118.590000", "112119.380000", "112120.167500", "112120.955000", "112121.742500", "112122.532500", "112123.320000", "112124.107500", "112124.897500", "112125.685000", "112126.472500", "112127.260000", "112128.050000", "112128.837500", "112129.625000", "112130.412500", "112131.202500", "112131.990000", "112132.777500", "112133.565000", "112134.355000", "112135.142500", "112135.930000", "112136.717500", "112137.507500", "112138.295000", "112139.082500", "112139.870000", "112140.660000", "112141.447500", "112142.235000", "112143.025000", "112143.812500", "112144.600000", "112145.387500", "112146.177500", "112146.965000", "112147.752500", "112148.540000", "112149.330000", "112150.117500", "112150.905000", "112151.692500", "112152.482500", "112153.270000", "112154.057500", "112154.845000", "112155.635000", "112156.422500", "112157.210000", "112157.997500", "112158.787500", "112159.575000", "112200.362500", "112201.152500", "112201.940000", "112202.727500", "112203.515000", "112204.305000", "112205.092500", "112205.880000", "112206.667500", "112207.457500", "112208.245000", "112209.032500", "112209.820000", "112210.610000", "112211.397500", "112212.185000", "112212.972500", "112213.762500", "112214.550000", "112215.337500", "112216.125000", "112216.915000", "112217.702500", "112218.490000", "112219.280000", "112220.067500", "112220.855000", "112221.642500", "112222.432500", "112223.220000", "112224.007500", "112224.795000", "112225.585000", "112226.372500", "112227.160000", "112227.947500", "112228.737500", "112229.525000", "112230.312500", "112231.100000", "112231.890000", "112232.677500", "112233.465000", "112234.252500", "112235.042500", "112235.830000", "112236.617500", "112237.407500", "112238.195000", "112238.982500", "112239.770000", "112240.560000", "112241.347500", "112242.135000", "112242.922500", "112243.712500", "112244.500000", "112245.287500", "112246.075000", "112246.865000", "112247.652500", "112248.440000", "112249.227500", "112250.017500", "112250.805000", "112251.592500", "112252.380000", "112253.170000", "112253.957500", "112254.745000", "112255.535000", "112256.322500", "112257.110000", "112257.897500", "112258.687500", "112259.475000", "112300.262500", "112301.050000", "112301.840000", "112302.627500", "112303.415000", "112304.202500", "112304.992500", "112305.780000", "112306.567500", "112307.355000", "112308.145000", "112308.932500", "112309.720000", "112310.507500", "112311.297500", "112312.085000", "112312.872500", "112313.662500", "112314.450000", "112315.237500", "112316.025000", "112316.815000", "112317.602500", "112318.390000", "112319.177500", "112319.967500", "112320.755000", "112321.542500", "112322.330000", "112323.120000", "112323.907500", "112324.695000", "112325.482500", "112326.272500", "112327.060000", "112327.847500", "112328.635000", "112329.425000", "112330.212500", "112331.000000", "112331.790000", "112332.577500", "112333.365000", "112334.152500", "112334.942500", "112335.730000", "112336.517500", "112337.305000", "112338.095000", "112338.882500", "112339.670000", "112340.457500", "112341.247500", "112342.035000", "112342.822500", "112343.610000", "112344.400000", "112345.187500", "112345.975000", "112346.765000", "112347.552500", "112348.340000", "112349.127500", "112349.917500", "112350.705000", "112351.492500", "112352.280000", "112353.070000", "112353.857500", "112354.645000", "112355.432500", "112356.222500", "112357.010000", "112357.797500", "112358.585000", "112359.375000", "112400.162500", "112400.950000", "112401.737500", "112402.527500", "112403.315000", "112404.102500", "112404.892500", "112405.680000", "112406.467500", "112407.255000", "112408.045000", "112408.832500", "112409.620000", "112410.407500", "112411.197500", "112411.985000", "112412.772500", "112413.560000", "112414.350000", "112415.137500", "112415.925000", "112416.712500", "112417.502500", "112418.290000", "112419.077500", "112419.865000", "112420.655000", "112421.442500", "112422.230000", "112423.020000", "112423.807500", "112424.595000", "112425.382500", "112426.172500", "112426.960000", "112427.747500", "112428.535000", "112429.325000", "112430.112500", "112430.900000", "112431.687500", "112432.477500", "112433.265000", "112434.052500", "112434.840000", "112435.630000", "112436.417500", "112437.205000", "112437.992500", "112438.782500", "112439.570000", "112440.357500", "112441.147500", "112441.935000", "112442.722500", "112443.510000", "112444.300000", "112445.087500", "112445.875000", "112446.662500", "112447.452500", "112448.240000", "112449.027500", "112449.815000", "112450.605000", "112451.392500", "112452.180000", "112452.967500", "112453.757500", "112454.545000", "112455.332500", "112456.120000", "112456.910000", "112457.697500", "112458.485000", "112459.275000", "112500.062500", "112500.850000", "112501.637500", "112502.427500", "112503.215000", "112504.002500", "112504.790000", "112505.580000", "112506.367500", "112507.155000", "112507.942500", "112508.732500", "112509.520000", "112510.307500", "112511.095000", "112511.885000", "112512.672500", "112513.460000", "112514.247500", "112515.037500", "112515.825000", "112516.612500", "112517.402500", "112518.190000", "112518.977500", "112519.765000", "112520.555000", "112521.342500", "112522.130000", "112522.917500", "112523.707500", "112524.495000", "112525.282500", "112526.070000", "112526.860000", "112527.647500", "112528.435000", "112529.222500", "112530.012500", "112530.800000", "112531.587500", "112532.375000", "112533.165000", "112533.952500", "112534.740000", "112535.530000", "112536.317500", "112537.105000", "112537.892500", "112538.682500", "112539.470000", "112540.257500", "112541.045000", "112541.835000", "112542.622500", "112543.410000", "112544.197500", "112544.987500", "112545.775000", "112546.562500", "112547.350000", "112548.140000", "112548.927500", "112549.715000", "112550.502500", "112551.292500", "112552.080000", "112552.867500"],
      "ContentTime": ["111842.125000", "111842.125000", "111842.125000", "111842.125000", "111842.140000", "111842.140000", "111842.140000", "111842.140000", "111842.140000", "111842.140000", "111842.140000", "111842.156000", "111842.156000", "111842.156000", "111842.156000", "111842.156000", "111842.156000", "111842.156000", "111842.156000", "111842.171000", "111842.171000", "111842.171000", "111842.171000", "111842.171000", "111842.171000", "111842.171000", "111842.187000", "111842.187000", "111842.187000", "111842.187000", "111902.093000", "111902.093000", "111902.093000", "111902.093000", "111902.109000", "111902.109000", "111902.109000", "111902.109000", "111902.109000", "111902.109000", "111902.109000", "111902.109000", "111902.125000", "111902.125000", "111902.125000", "111902.125000", "111902.125000", "111902.125000", "111902.125000", "111902.140000", "111902.140000", "111902.140000", "111902.140000", "111902.140000", "111902.140000", "111922.093000", "111922.093000", "111922.093000", "111922.093000", "111922.109000", "111922.109000", "111922.109000", "111922.109000", "111922.109000", "111922.125000", "111922.125000", "111922.125000", "111922.125000", "111922.125000", "111922.125000", "111922.125000", "111922.125000", "111922.140000", "111922.140000", "111922.140000", "111922.140000", "111922.140000", "111922.140000", "111922.140000", "111922.156000", "111922.156000", "111942.093000", "111942.093000", "111942.093000", "111942.093000", "111942.109000", "111942.109000", "111942.109000", "111942.109000", "111942.109000", "111942.109000", "111942.109000", "111942.109000", "111942.125000", "111942.125000", "111942.125000", "111942.125000", "111942.125000", "111942.140000", "111942.140000", "111942.140000", "111942.140000", "111942.140000", "111942.140000", "111942.140000", "111942.156000", "112002.093000", "112002.093000", "112002.093000", "112002.093000", "112002.109000", "112002.109000", "112002.109000", "112002.109000", "112002.109000", "112002.109000", "112002.109000", "112002.109000", "112002.125000", "112002.125000", "112002.125000", "112002.125000", "112002.125000", "112002.125000", "112002.125000", "112002.140000", "112002.140000", "112002.140000", "112002.140000", "112002.140000", "112002.140000", "112002.156000", "112022.093000", "112022.093000", "112022.093000", "112022.093000", "112022.109000", "112022.109000", "112022.109000", "112022.109000", "112022.109000", "112022.109000", "112022.109000", "112022.125000", "112022.125000", "112022.125000", "112022.125000", "112022.125000", "112022.125000", "112022.125000", "112022.140000", "112022.140000", "112022.140000", "112022.140000", "112022.140000", "112022.140000", "112022.156000", "112042.093000", "112042.093000", "112042.093000", "112042.093000", "112042.109000", "112042.109000", "112042.109000", "112042.109000", "112042.109000", "112042.109000", "112042.109000", "112042.109000", "112042.125000", "112042.125000", "112042.125000", "112042.125000", "112042.125000", "112042.125000", "112042.140000", "112042.140000", "112042.140000", "112042.140000", "112042.140000", "112042.156000", "112042.156000", "112042.156000", "112102.093000", "112102.093000", "112102.093000", "112102.093000", "112102.109000", "112102.109000", "112102.109000", "112102.109000", "112102.109000", "112102.109000", "112102.109000", "112102.125000", "112102.125000", "112102.125000", "112102.125000", "112102.125000", "112102.125000", "112102.125000", "112102.125000", "112102.140000", "112102.140000", "112102.140000", "112102.140000", "112102.140000", "112102.140000", "112122.093000", "112122.093000", "112122.093000", "112122.093000", "112122.109000", "112122.109000", "112122.109000", "112122.109000", "112122.109000", "112122.109000", "112122.109000", "112122.109000", "112122.125000", "112122.125000", "112122.125000", "112122.125000", "112122.125000", "112122.125000", "112122.125000", "112122.140000", "112122.140000", "112122.140000", "112122.140000", "112122.140000", "112122.140000", "112122.140000", "112142.093000", "112142.093000", "112142.093000", "112142.093000", "112142.109000", "112142.109000", "112142.109000", "112142.109000", "112142.109000", "112142.109000", "112142.109000", "112142.109000", "112142.125000", "112142.125000", "112142.125000", "112142.125000", "112142.125000", "112142.125000", "112142.125000", "112142.140000", "112142.140000", "112142.140000", "112142.140000", "112142.140000", "112142.140000", "112202.093000", "112202.093000", "112202.093000", "112202.093000", "112202.109000", "112202.109000", "112202.109000", "112202.109000", "112202.109000", "112202.109000", "112202.109000", "112202.125000", "112202.125000", "112202.125000", "112202.125000", "112202.125000", "112202.125000", "112202.125000", "112202.125000", "112202.140000", "112202.140000", "112202.140000", "112202.140000", "112202.140000", "112202.140000", "112202.140000", "112222.093000", "112222.093000", "112222.093000", "112222.093000", "112222.109000", "112222.109000", "112222.109000", "112222.109000", "112222.109000", "112222.109000", "112222.109000", "112222.125000", "112222.125000", "112222.125000", "112222.125000", "112222.125000", "112222.125000", "112222.125000", "112222.125000", "112222.140000", "112222.140000", "112222.140000", "112222.140000", "112222.140000", "112222.140000", "112242.093000", "112242.093000", "112242.093000", "112242.093000", "112242.109000", "112242.109000", "112242.109000", "112242.109000", "112242.109000", "112242.109000", "112242.109000", "112242.125000", "112242.125000", "112242.125000", "112242.125000", "112242.125000", "112242.125000", "112242.125000", "112242.125000", "112242.140000", "112242.140000", "112242.140000", "112242.140000", "112242.140000", "112242.140000", "112242.140000", "112302.093000", "112302.093000", "112302.093000", "112302.093000", "112302.109000", "112302.109000", "112302.109000", "112302.109000", "112302.109000", "112302.109000", "112302.125000", "112302.125000", "112302.125000", "112302.125000", "112302.125000", "112302.125000", "112302.125000", "112302.140000", "112302.140000", "112302.140000", "112302.140000", "112302.140000", "112302.140000", "112302.140000", "112302.140000", "112322.093000", "112322.093000", "112322.093000", "112322.093000", "112322.109000", "112322.109000", "112322.109000", "112322.109000", "112322.109000", "112322.109000", "112322.109000", "112322.125000", "112322.125000", "112322.125000", "112322.125000", "112322.125000", "112322.125000", "112322.125000", "112322.125000", "112322.140000", "112322.140000", "112322.140000", "112322.140000", "112322.140000", "112322.140000", "112322.156000", "112342.093000", "112342.093000", "112342.093000", "112342.093000", "112342.109000", "112342.109000", "112342.109000", "112342.125000", "112342.125000", "112342.125000", "112342.125000", "112342.125000", "112342.125000", "112342.125000", "112342.125000", "112342.140000", "112342.140000", "112342.140000", "112342.140000", "112342.140000", "112342.140000", "112342.140000", "112342.156000", "112342.156000", "112342.156000", "112402.093000", "112402.093000", "112402.093000", "112402.093000", "112402.109000", "112402.109000", "112402.125000", "112402.125000", "112402.125000", "112402.125000", "112402.125000", "112402.125000", "112402.125000", "112402.140000", "112402.140000", "112402.140000", "112402.140000", "112402.140000", "112402.140000", "112402.140000", "112402.140000", "112402.156000", "112402.156000", "112402.156000", "112402.156000", "112402.156000", "112422.093000", "112422.093000", "112422.093000", "112422.093000", "112422.109000", "112422.109000", "112422.109000", "112422.109000", "112422.109000", "112422.109000", "112422.109000", "112422.109000", "112422.125000", "112422.125000", "112422.125000", "112422.125000", "112422.125000", "112422.125000", "112422.125000", "112422.140000", "112422.140000", "112422.140000", "112422.140000", "112422.140000", "112422.140000", "112442.093000", "112442.093000", "112442.093000", "112442.093000", "112442.109000", "112442.109000", "112442.109000", "112442.109000", "112442.109000", "112442.109000", "112442.109000", "112442.125000", "112442.125000", "112442.125000", "112442.125000", "112442.125000", "112442.125000", "112442.125000", "112442.140000", "112442.140000", "112442.140000", "112442.140000", "112442.140000", "112442.140000", "112442.140000", "112502.093000", "112502.093000", "112502.093000", "112502.093000", "112502.109000", "112502.109000", "112502.109000", "112502.109000", "112502.109000", "112502.109000", "112502.109000", "112502.109000", "112502.125000", "112502.125000", "112502.125000", "112502.125000", "112502.125000", "112502.125000", "112502.125000", "112502.140000", "112502.140000", "112502.140000", "112502.140000", "112502.140000", "112502.140000", "112502.156000", "112522.093000", "112522.093000", "112522.093000", "112522.093000", "112522.109000", "112522.109000", "112522.109000", "112522.109000", "112522.109000", "112522.109000", "112522.109000", "112522.125000", "112522.125000", "112522.125000", "112522.125000", "112522.125000", "112522.125000", "112522.125000", "112522.125000", "112522.140000", "112522.140000", "112522.140000", "112522.140000", "112522.140000", "112522.140000", "112542.093000", "112542.093000", "112542.093000", "112542.093000", "112542.109000", "112542.109000", "112542.109000", "112542.109000", "112542.109000", "112542.109000", "112542.125000", "112542.125000", "112542.125000", "112542.140000", "112542.140000", "112542.140000", "112542.140000", "112542.140000", "112542.140000", "112542.140000", "112542.140000", "112542.156000", "112542.156000", "112542.156000", "112542.156000", "112542.156000", "112554.406000", "112554.406000", "112554.421000", "112554.421000", "112554.421000", "112554.421000", "112554.421000", "112554.421000", "112554.421000", "112554.437000", "112554.437000", "112554.437000", "112554.437000", "112554.437000", "112554.437000", "112554.453000"],
