{
  "AcquisitionMatrixPE": 104,
  "AcquisitionNumber": 1,
  "AcquisitionTime": "11:06:39.372500",
  "BandwidthPerPixelPhaseEncode": 13.935,
  "BaseResolution": 104,
  "CoilString": "C:HEA;HEP",
  "ConversionSoftware": "dcm2niix",
  "ConversionSoftwareVersion": "v1.0.20210317",
  "DerivedVendorReportedEchoSpacing": 0.000690017,
  "DeviceSerialNumber": "35450",
  "DwellTime": 2.5e-06,
  "EchoTime": 0.0348,
  "EffectiveEchoSpacing": 0.000690017,
  "FlipAngle": 55,
  "ImageComments": "Unaliased MB8/PE3 (remote)",
  "ImageOrientationPatientDICOM": [0.99933, 0.00648301, 0.036031, 3.82248e-08, 0.984195, -0.177086],
  "ImageType": [
    "ORIGINAL",
    "PRIMARY",
    "M",
    "MB",
    "ND",
    "MOSAIC"
],
  "ImagingFrequency": 123.234,
  "InPlanePhaseEncodingDirectionDICOM": "COL",
  "InstitutionAddress": "Univeristy Ave. 197,Newark,North East,US,07102-1814",
  "InstitutionName": "RUBIC",
  "InstitutionalDepartmentName": "Department",
  "MRAcquisitionType": "2D",
  "MagneticFieldStrength": 3,
  "Manufacturer": "Siemens",
  "ManufacturersModelName": "TrioTim",
  "Modality": "MR",
  "MultibandAccelerationFactor": 8,
  "PartialFourier": 0.875,
  "PatientPosition": "HFS",
  "PercentPhaseFOV": 100,
  "PercentSampling": 100,
  "PhaseEncodingDirection": "j-",
  "PhaseEncodingSteps": 91,
  "PhaseResolution": 1,
  "PixelBandwidth": 1923,
  "ProcedureStepDescription": "Cole^Michael",
  "ProtocolName": "cmrr_mbep2d_bold_2mm_MB8_Rest",
  "PulseSequenceDetails": "%CustomerSeq%\\cmrr_mbep2d_bold",
  "ReceiveCoilName": "32Ch_Head",
  "ReconMatrixPE": 104,
  "RepetitionTime": 0.785,
  "SAR": 0.143661,
  "ScanOptions": "PFP\\FS",
  "ScanningSequence": "EP",
  "SequenceName": "epfid2d1_104",
  "SequenceVariant": "SK\\SS",
  "SeriesDescription": "cmrr_mbep2d_bold_2mm_MB8_Rest",
  "SeriesNumber": 9,
  "ShimSetting": [2115, -422, -7323, 429, -4, -528, 291, 34],
  "SliceThickness": 2,
  "SliceTiming": [0, 0.4375, 0.0875, 0.525, 0.175, 0.6125, 0.2625, 0.7, 0.35, 0, 0.4375, 0.0875, 0.525, 0.175, 0.6125, 0.2625, 0.7, 0.35, 0, 0.4375, 0.0875, 0.525, 0.175, 0.6125, 0.2625, 0.7, 0.35, 0, 0.4375, 0.0875, 0.525, 0.175, 0.6125, 0.2625, 0.7, 0.35, 0, 0.4375, 0.0875, 0.525, 0.175, 0.6125, 0.2625, 0.7, 0.35, 0, 0.4375, 0.0875, 0.525, 0.175, 0.6125, 0.2625, 0.7, 0.35, 0, 0.4375, 0.0875, 0.525, 0.175, 0.6125, 0.2625, 0.7, 0.35, 0, 0.4375, 0.0875, 0.525, 0.175, 0.6125, 0.2625, 0.7, 0.35],
  "SoftwareVersions": "syngo MR B19",
  "SpacingBetweenSlices": 2,
  "StationName": "MRC35450",
  "TaskName": "rest",
  "TotalReadoutTime": 0.0710717,
  "TxRefAmp": 330.342,
  "dcmmeta_affine": [
    [-1.9986592531204224, 7.644957378261097e-08, 0.07321910560131073, 97.94116973876953],
    [-0.012966025620698929, 1.968390703201294, -0.353935182094574, -68.1293716430664],
    [0.0720619186758995, 0.35417258739471436, 1.9670711755752563, -112.65989685058594],
    [0.0, 0.0, 0.0, 1.0]
],
  "dcmmeta_reorient_transform": [
    [0.0, -1.0, 0.0, 103.0],
    [1.0, 0.0, 0.0, 0.0],
    [0.0, 0.0, 1.0, 0.0],
    [0.0, 0.0, 0.0, 1.0]
],
  "dcmmeta_shape": [104, 104, 72, 1070],
  "dcmmeta_slice_dim": 2,
  "dcmmeta_version": 0.6,
  "global": {
    "const": {
      "AcquisitionMatrix": [104, 0, 0, 104],
      "AngioFlag": "N",
      "BitsAllocated": 16,
      "BitsStored": 12,
      "Columns": 936,
      "EchoNumbers": 1,
      "EchoTime": 34.8,
      "EchoTrainLength": 1,
      "FlipAngle": 55.0,
      "HighBit": 11,
      "ImageOrientationPatient": [0.99932964560817, 0.00648301262826, 0.03603095829861, 3.8224788e-08, 0.98419532808976, -0.1770862958173],
      "ImagePositionPatient": [-929.38347407467, -958.85924507308, 41.177919513658],
      "ImageType": [
        "ORIGINAL",
        "PRIMARY",
        "M",
        "MB",
        "ND",
        "MOSAIC"
],
      "ImagedNucleus": "1H",
      "ImagingFrequency": 123.234403,
      "InPlanePhaseEncodingDirection": "COL",
      "MRAcquisitionType": "2D",
      "MagneticFieldStrength": 3.0,
      "Manufacturer": "SIEMENS",
      "ManufacturerModelName": "TrioTim",
      "Modality": "MR",
      "NumberOfAverages": 1.0,
      "NumberOfPhaseEncodingSteps": 91,
      "PercentPhaseFieldOfView": 100.0,
      "PercentSampling": 100.0,
      "PerformedProcedureStepStartTime": "102115.062000",
      "PhotometricInterpretation": "MONOCHROME2",
      "PixelBandwidth": 1923.0,
      "PixelRepresentation": 0,
      "PixelSpacing": [2.0, 2.0],
      "ProtocolName": "cmrr_mbep2d_bold_2mm_MB8_Rest",
      "RepetitionTime": 785.0,
      "Rows": 936,
      "SAR": 0.14366128231689,
      "SamplesPerPixel": 1,
      "ScanOptions": [
        "PFP",
        "FS"
],
      "ScanningSequence": "EP",
      "SequenceName": "epfid2d1_104",
      "SequenceVariant": [
        "SK",
        "SS"
],
      "SeriesDescription": "cmrr_mbep2d_bold_2mm_MB8_Rest",
      "SeriesNumber": 9,
      "SeriesTime": "110700.328000",
      "SliceLocation": -95.162744010769,
      "SliceThickness": 2.0,
      "SmallestImagePixelValue": 0,
      "SoftwareVersions": "syngo MR B19",
      "SpacingBetweenSlices": 2.0000000234719,
      "SpecificCharacterSet": "ISO_IR 100",
      "StudyID": "1",
      "StudyTime": "102114.937000",
      "TransmitCoilName": "Body",
      "VariableFlipAngleFlag": "N",
      "WindowCenterWidthExplanation": "Algo1",
      "dBdt": 0.0},
    "slices": {}
  },
  "time": {
    "samples": {
      "AcquisitionNumber": [1, 2, 3, 4, 5, 6, 7, 8, 9, 10, 11, 12, 13, 14, 15, 16, 17, 18, 19, 20, 21, 22, 23, 24, 25, 26, 27, 28, 29, 30, 31, 32, 33, 34, 35, 36, 37, 38, 39, 40, 41, 42, 43, 44, 45, 46, 47, 48, 49, 50, 51, 52, 53, 54, 55, 56, 57, 58, 59, 60, 61, 62, 63, 64, 65, 66, 67, 68, 69, 70, 71, 72, 73, 74, 75, 76, 77, 78, 79, 80, 81, 82, 83, 84, 85, 86, 87, 88, 89, 90, 91, 92, 93, 94, 95, 96, 97, 98, 99, 100, 101, 102, 103, 104, 105, 106, 107, 108, 109, 110, 111, 112, 113, 114, 115, 116, 117, 118, 119, 120, 121, 122, 123, 124, 125, 126, 127, 128, 129, 130, 131, 132, 133, 134, 135, 136, 137, 138, 139, 140, 141, 142, 143, 144, 145, 146, 147, 148, 149, 150, 151, 152, 153, 154, 155, 156, 157, 158, 159, 160, 161, 162, 163, 164, 165, 166, 167, 168, 169, 170, 171, 172, 173, 174, 175, 176, 177, 178, 179, 180, 181, 182, 183, 184, 185, 186, 187, 188, 189, 190, 191, 192, 193, 194, 195, 196, 197, 198, 199, 200, 201, 202, 203, 204, 205, 206, 207, 208, 209, 210, 211, 212, 213, 214, 215, 216, 217, 218, 219, 220, 221, 222, 223, 224, 225, 226, 227, 228, 229, 230, 231, 232, 233, 234, 235, 236, 237, 238, 239, 240, 241, 242, 243, 244, 245, 246, 247, 248, 249, 250, 251, 252, 253, 254, 255, 256, 257, 258, 259, 260, 261, 262, 263, 264, 265, 266, 267, 268, 269, 270, 271, 272, 273, 274, 275, 276, 277, 278, 279, 280, 281, 282, 283, 284, 285, 286, 287, 288, 289, 290, 291, 292, 293, 294, 295, 296, 297, 298, 299, 300, 301, 302, 303, 304, 305, 306, 307, 308, 309, 310, 311, 312, 313, 314, 315, 316, 317, 318, 319, 320, 321, 322, 323, 324, 325, 326, 327, 328, 329, 330, 331, 332, 333, 334, 335, 336, 337, 338, 339, 340, 341, 342, 343, 344, 345, 346, 347, 348, 349, 350, 351, 352, 353, 354, 355, 356, 357, 358, 359, 360, 361, 362, 363, 364, 365, 366, 367, 368, 369, 370, 371, 372, 373, 374, 375, 376, 377, 378, 379, 380, 381, 382, 383, 384, 385, 386, 387, 388, 389, 390, 391, 392, 393, 394, 395, 396, 397, 398, 399, 400, 401, 402, 403, 404, 405, 406, 407, 408, 409, 410, 411, 412, 413, 414, 415, 416, 417, 418, 419, 420, 421, 422, 423, 424, 425, 426, 427, 428, 429, 430, 431, 432, 433, 434, 435, 436, 437, 438, 439, 440, 441, 442, 443, 444, 445, 446, 447, 448, 449, 450, 451, 452, 453, 454, 455, 456, 457, 458, 459, 460, 461, 462, 463, 464, 465, 466, 467, 468, 469, 470, 471, 472, 473, 474, 475, 476, 477, 478, 479, 480, 481, 482, 483, 484, 485, 486, 487, 488, 489, 490, 491, 492, 493, 494, 495, 496, 497, 498, 499, 500, 501, 502, 503, 504, 505, 506, 507, 508, 509, 510, 511, 512, 513, 514, 515, 516, 517, 518, 519, 520, 521, 522, 523, 524, 525, 526, 527, 528, 529, 530, 531, 532, 533, 534, 535, 536, 537, 538, 539, 540, 541, 542, 543, 544, 545, 546, 547, 548, 549, 550, 551, 552, 553, 554, 555, 556, 557, 558, 559, 560, 561, 562, 563, 564, 565, 566, 567, 568, 569, 570, 571, 572, 573, 574, 575, 576, 577, 578, 579, 580, 581, 582, 583, 584, 585, 586, 587, 588, 589, 590, 591, 592, 593, 594, 595, 596, 597, 598, 599, 600, 601, 602, 603, 604, 605, 606, 607, 608, 609, 610, 611, 612, 613, 614, 615, 616, 617, 618, 619, 620, 621, 622, 623, 624, 625, 626, 627, 628, 629, 630, 631, 632, 633, 634, 635, 636, 637, 638, 639, 640, 641, 642, 643, 644, 645, 646, 647, 648, 649, 650, 651, 652, 653, 654, 655, 656, 657, 658, 659, 660, 661, 662, 663, 664, 665, 666, 667, 668, 669, 670, 671, 672, 673, 674, 675, 676, 677, 678, 679, 680, 681, 682, 683, 684, 685, 686, 687, 688, 689, 690, 691, 692, 693, 694, 695, 696, 697, 698, 699, 700, 701, 702, 703, 704, 705, 706, 707, 708, 709, 710, 711, 712, 713, 714, 715, 716, 717, 718, 719, 720, 721, 722, 723, 724, 725, 726, 727, 728, 729, 730, 731, 732, 733, 734, 735, 736, 737, 738, 739, 740, 741, 742, 743, 744, 745, 746, 747, 748, 749, 750, 751, 752, 753, 754, 755, 756, 757, 758, 759, 760, 761, 762, 763, 764, 765, 766, 767, 768, 769, 770, 771, 772, 773, 774, 775, 776, 777, 778, 779, 780, 781, 782, 783, 784, 785, 786, 787, 788, 789, 790, 791, 792, 793, 794, 795, 796, 797, 798, 799, 800, 801, 802, 803, 804, 805, 806, 807, 808, 809, 810, 811, 812, 813, 814, 815, 816, 817, 818, 819, 820, 821, 822, 823, 824, 825, 826, 827, 828, 829, 830, 831, 832, 833, 834, 835, 836, 837, 838, 839, 840, 841, 842, 843, 844, 845, 846, 847, 848, 849, 850, 851, 852, 853, 854, 855, 856, 857, 858, 859, 860, 861, 862, 863, 864, 865, 866, 867, 868, 869, 870, 871, 872, 873, 874, 875, 876, 877, 878, 879, 880, 881, 882, 883, 884, 885, 886, 887, 888, 889, 890, 891, 892, 893, 894, 895, 896, 897, 898, 899, 900, 901, 902, 903, 904, 905, 906, 907, 908, 909, 910, 911, 912, 913, 914, 915, 916, 917, 918, 919, 920, 921, 922, 923, 924, 925, 926, 927, 928, 929, 930, 931, 932, 933, 934, 935, 936, 937, 938, 939, 940, 941, 942, 943, 944, 945, 946, 947, 948, 949, 950, 951, 952, 953, 954, 955, 956, 957, 958, 959, 960, 961, 962, 963, 964, 965, 966, 967, 968, 969, 970, 971, 972, 973, 974, 975, 976, 977, 978, 979, 980, 981, 982, 983, 984, 985, 986, 987, 988, 989, 990, 991, 992, 993, 994, 995, 996, 997, 998, 999, 1000, 1001, 1002, 1003, 1004, 1005, 1006, 1007, 1008, 1009, 1010, 1011, 1012, 1013, 1014, 1015, 1016, 1017, 1018, 1019, 1020, 1021, 1022, 1023, 1024, 1025, 1026, 1027, 1028, 1029, 1030, 1031, 1032, 1033, 1034, 1035, 1036, 1037, 1038, 1039, 1040, 1041, 1042, 1043, 1044, 1045, 1046, 1047, 1048, 1049, 1050, 1051, 1052, 1053, 1054, 1055, 1056, 1057, 1058, 1059, 1060, 1061, 1062, 1063, 1064, 1065, 1066, 1067, 1068, 1069, 1070],
      "AcquisitionTime": ["110639.372500", "110640.160000", "110640.947500", "110641.737500", "110642.525000", "110643.312500", "110644.100000", "110644.890000", "110645.677500", "110646.465000", "110647.252500", "110648.042500", "110648.830000", "110649.617500", "110650.405000", "110651.195000", "110651.982500", "110652.770000", "110653.557500", "110654.347500", "110655.135000", "110655.922500", "110656.712500", "110657.500000", "110658.287500", "110659.075000", "110659.865000", "110700.652500", "110701.440000", "110702.227500", "110703.017500", "110703.805000", "110704.592500", "110705.380000", "110706.170000", "110706.957500", "110707.745000", "110708.532500", "110709.322500", "110710.110000", "110710.897500", "110711.685000", "110712.475000", "110713.262500", "110714.050000", "110714.840000", "110715.627500", "110716.415000", "110717.202500", "110717.992500", "110718.780000", "110719.567500", "110720.355000", "110721.145000", "110721.932500", "110722.720000", "110723.507500", "110724.297500", "110725.085000", "110725.872500", "110726.660000", "110727.450000", "110728.237500", "110729.025000", "110729.812500", "110730.602500", "110731.390000", "110732.177500", "110732.967500", "110733.755000", "110734.542500", "110735.330000", "110736.120000", "110736.907500", "110737.695000", "110738.482500", "110739.272500", "110740.060000", "110740.847500", "110741.635000", "110742.425000", "110743.212500", "110744.000000", "110744.787500", "110745.577500", "110746.365000", "110747.152500", "110747.940000", "110748.730000", "110749.517500", "110750.305000", "110751.095000", "110751.882500", "110752.670000", "110753.457500", "110754.247500", "110755.035000", "110755.822500", "110756.610000", "110757.400000", "110758.187500", "110758.975000", "110759.762500", "110800.552500", "110801.340000", "110802.127500", "110802.915000", "110803.705000", "110804.492500", "110805.280000", "110806.067500", "110806.857500", "110807.645000", "110808.432500", "110809.222500", "110810.010000", "110810.797500", "110811.585000", "110812.375000", "110813.162500", "110813.950000", "110814.737500", "110815.527500", "110816.315000", "110817.102500", "110817.890000", "110818.680000", "110819.467500", "110820.255000", "110821.042500", "110821.832500", "110822.620000", "110823.407500", "110824.195000", "110824.985000", "110825.772500", "110826.560000", "110827.350000", "110828.137500", "110828.925000", "110829.712500", "110830.502500", "110831.290000", "110832.077500", "110832.865000", "110833.655000", "110834.442500", "110835.230000", "110836.017500", "110836.807500", "110837.595000", "110838.382500", "110839.170000", "110839.960000", "110840.747500", "110841.535000", "110842.322500", "110843.112500", "110843.900000", "110844.687500", "110845.477500", "110846.265000", "110847.052500", "110847.840000", "110848.630000", "110849.417500", "110850.205000", "110850.992500", "110851.782500", "110852.570000", "110853.357500", "110854.145000", "110854.935000", "110855.722500", "110856.510000", "110857.297500", "110858.087500", "110858.875000", "110859.662500", "110900.452500", "110901.240000", "110902.027500", "110902.815000", "110903.605000", "110904.392500", "110905.180000", "110905.967500", "110906.757500", "110907.545000", "110908.332500", "110909.120000", "110909.910000", "110910.697500", "110911.485000", "110912.272500", "110913.062500", "110913.850000", "110914.637500", "110915.425000", "110916.215000", "110917.002500", "110917.790000", "110918.580000", "110919.367500", "110920.155000", "110920.942500", "110921.732500", "110922.520000", "110923.307500", "110924.095000", "110924.885000", "110925.672500", "110926.460000", "110927.247500", "110928.037500", "110928.825000", "110929.612500", "110930.400000", "110931.190000", "110931.977500", "110932.765000", "110933.552500", "110934.342500", "110935.130000", "110935.917500", "110936.707500", "110937.495000", "110938.282500", "110939.070000", "110939.860000", "110940.647500", "110941.435000", "110942.222500", "110943.012500", "110943.800000", "110944.587500", "110945.375000", "110946.165000", "110946.952500", "110947.740000", "110948.527500", "110949.317500", "110950.105000", "110950.892500", "110951.680000", "110952.470000", "110953.257500", "110954.045000", "110954.835000", "110955.622500", "110956.410000", "110957.197500", "110957.987500", "110958.775000", "110959.562500", "111000.350000", "111001.140000", "111001.927500", "111002.715000", "111003.502500", "111004.292500", "111005.080000", "111005.867500", "111006.655000", "111007.445000", "111008.232500", "111009.020000", "111009.807500", "111010.597500", "111011.385000", "111012.172500", "111012.962500", "111013.750000", "111014.537500", "111015.325000", "111016.115000", "111016.902500", "111017.690000", "111018.477500", "111019.267500", "111020.055000", "111020.842500", "111021.630000", "111022.420000", "111023.207500", "111023.995000", "111024.782500", "111025.572500", "111026.360000", "111027.147500", "111027.935000", "111028.725000", "111029.512500", "111030.300000", "111031.090000", "111031.877500", "111032.665000", "111033.452500", "111034.242500", "111035.030000", "111035.817500", "111036.605000", "111037.395000", "111038.182500", "111038.970000", "111039.757500", "111040.547500", "111041.335000", "111042.122500", "111042.910000", "111043.700000", "111044.487500", "111045.275000", "111046.062500", "111046.852500", "111047.640000", "111048.427500", "111049.217500", "111050.005000", "111050.792500", "111051.580000", "111052.370000", "111053.157500", "111053.945000", "111054.732500", "111055.522500", "111056.310000", "111057.097500", "111057.885000", "111058.675000", "111059.462500", "111100.250000", "111101.037500", "111101.827500", "111102.615000", "111103.402500", "111104.190000", "111104.980000", "111105.767500", "111106.555000", "111107.345000", "111108.132500", "111108.920000", "111109.707500", "111110.497500", "111111.285000", "111112.072500", "111112.860000", "111113.650000", "111114.437500", "111115.225000", "111116.012500", "111116.802500", "111117.590000", "111118.377500", "111119.165000", "111119.955000", "111120.742500", "111121.530000", "111122.317500", "111123.107500", "111123.895000", "111124.682500", "111125.472500", "111126.260000", "111127.047500", "111127.835000", "111128.625000", "111129.412500", "111130.200000", "111130.987500", "111131.777500", "111132.565000", "111133.352500", "111134.140000", "111134.930000", "111135.717500", "111136.505000", "111137.292500", "111138.082500", "111138.870000", "111139.657500", "111140.445000", "111141.235000", "111142.022500", "111142.810000", "111143.600000", "111144.387500", "111145.175000", "111145.962500", "111146.752500", "111147.540000", "111148.327500", "111149.115000", "111149.905000", "111150.692500", "111151.480000", "111152.267500", "111153.057500", "111153.845000", "111154.632500", "111155.420000", "111156.210000", "111156.997500", "111157.785000", "111158.572500", "111159.362500", "111200.150000", "111200.937500", "111201.727500", "111202.515000", "111203.302500", "111204.090000", "111204.880000", "111205.667500", "111206.455000", "111207.242500", "111208.032500", "111208.820000", "111209.607500", "111210.395000", "111211.185000", "111211.972500", "111212.760000", "111213.547500", "111214.337500", "111215.125000", "111215.912500", "111216.702500", "111217.490000", "111218.277500", "111219.065000", "111219.855000", "111220.642500", "111221.430000", "111222.217500", "111223.007500", "111223.795000", "111224.582500", "111225.370000", "111226.160000", "111226.947500", "111227.735000", "111228.522500", "111229.312500", "111230.100000", "111230.887500", "111231.675000", "111232.465000", "111233.252500", "111234.040000", "111234.830000", "111235.617500", "111236.405000", "111237.192500", "111237.982500", "111238.770000", "111239.557500", "111240.345000", "111241.135000", "111241.922500", "111242.710000", "111243.497500", "111244.287500", "111245.075000", "111245.862500", "111246.650000", "111247.440000", "111248.227500", "111249.015000", "111249.802500", "111250.592500", "111251.380000", "111252.167500", "111252.957500", "111253.745000", "111254.532500", "111255.320000", "111256.110000", "111256.897500", "111257.685000", "111258.472500", "111259.262500", "111300.050000", "111300.837500", "111301.625000", "111302.415000", "111303.202500", "111303.990000", "111304.777500", "111305.567500", "111306.355000", "111307.142500", "111307.930000", "111308.720000", "111309.507500", "111310.295000", "111311.085000", "111311.872500", "111312.660000", "111313.447500", "111314.237500", "111315.025000", "111315.812500", "111316.600000", "111317.390000", "111318.177500", "111318.965000", "111319.752500", "111320.542500", "111321.330000", "111322.117500", "111322.905000", "111323.695000", "111324.482500", "111325.270000", "111326.057500", "111326.847500", "111327.635000", "111328.422500", "111329.212500", "111330.000000", "111330.787500", "111331.575000", "111332.365000", "111333.152500", "111333.940000", "111334.727500", "111335.517500", "111336.305000", "111337.092500", "111337.880000", "111338.670000", "111339.457500", "111340.245000", "111341.032500", "111341.822500", "111342.610000", "111343.397500", "111344.185000", "111344.975000", "111345.762500", "111346.550000", "111347.340000", "111348.127500", "111348.915000", "111349.702500", "111350.492500", "111351.280000", "111352.067500", "111352.855000", "111353.645000", "111354.432500", "111355.220000", "111356.007500", "111356.797500", "111357.585000", "111358.372500", "111359.160000", "111359.950000", "111400.737500", "111401.525000", "111402.312500", "111403.102500", "111403.890000", "111404.677500", "111405.467500", "111406.255000", "111407.042500", "111407.830000", "111408.620000", "111409.407500", "111410.195000", "111410.982500", "111411.772500", "111412.560000", "111413.347500", "111414.135000", "111414.925000", "111415.712500", "111416.500000", "111417.287500", "111418.077500", "111418.865000", "111419.652500", "111420.440000", "111421.230000", "111422.017500", "111422.805000", "111423.595000", "111424.382500", "111425.170000", "111425.957500", "111426.747500", "111427.535000", "111428.322500", "111429.110000", "111429.900000", "111430.687500", "111431.475000", "111432.262500", "111433.052500", "111433.840000", "111434.627500", "111435.415000", "111436.205000", "111436.992500", "111437.780000", "111438.567500", "111439.357500", "111440.145000", "111440.932500", "111441.722500", "111442.510000", "111443.297500", "111444.085000", "111444.875000", "111445.662500", "111446.450000", "111447.237500", "111448.027500", "111448.815000", "111449.602500", "111450.390000", "111451.180000", "111451.967500", "111452.755000", "111453.542500", "111454.332500", "111455.120000", "111455.907500", "111456.695000", "111457.485000", "111458.272500", "111459.060000", "111459.850000", "111500.637500", "111501.425000", "111502.212500", "111503.002500", "111503.790000", "111504.577500", "111505.365000", "111506.155000", "111506.942500", "111507.730000", "111508.517500", "111509.307500", "111510.095000", "111510.882500", "111511.670000", "111512.460000", "111513.247500", "111514.035000", "111514.822500", "111515.612500", "111516.400000", "111517.187500", "111517.977500", "111518.765000", "111519.552500", "111520.340000", "111521.130000", "111521.917500", "111522.705000", "111523.492500", "111524.282500", "111525.070000", "111525.857500", "111526.645000", "111527.435000", "111528.222500", "111529.010000", "111529.797500", "111530.587500", "111531.375000", "111532.162500", "111532.952500", "111533.740000", "111534.527500", "111535.315000", "111536.105000", "111536.892500", "111537.680000", "111538.467500", "111539.257500", "111540.045000", "111540.832500", "111541.620000", "111542.410000", "111543.197500", "111543.985000", "111544.772500", "111545.562500", "111546.350000", "111547.137500", "111547.925000", "111548.715000", "111549.502500", "111550.290000", "111551.080000", "111551.867500", "111552.655000", "111553.442500", "111554.232500", "111555.020000", "111555.807500", "111556.595000", "111557.385000", "111558.172500", "111558.960000", "111559.747500", "111600.537500", "111601.325000", "111602.112500", "111602.900000", "111603.690000", "111604.477500", "111605.265000", "111606.052500", "111606.842500", "111607.630000", "111608.417500", "111609.207500", "111609.995000", "111610.782500", "111611.570000", "111612.360000", "111613.147500", "111613.935000", "111614.722500", "111615.512500", "111616.300000", "111617.087500", "111617.875000", "111618.665000", "111619.452500", "111620.240000", "111621.027500", "111621.817500", "111622.605000", "111623.392500", "111624.180000", "111624.970000", "111625.757500", "111626.545000", "111627.335000", "111628.122500", "111628.910000", "111629.697500", "111630.487500", "111631.275000", "111632.062500", "111632.850000", "111633.640000", "111634.427500", "111635.215000", "111636.002500", "111636.792500", "111637.580000", "111638.367500", "111639.155000", "111639.945000", "111640.732500", "111641.520000", "111642.307500", "111643.097500", "111643.885000", "111644.672500", "111645.462500", "111646.250000", "111647.037500", "111647.825000", "111648.615000", "111649.402500", "111650.190000", "111650.977500", "111651.767500", "111652.555000", "111653.342500", "111654.130000", "111654.920000", "111655.707500", "111656.495000", "111657.282500", "111658.072500", "111658.860000", "111659.647500", "111700.435000", "111701.225000", "111702.012500", "111702.800000", "111703.590000", "111704.377500", "111705.165000", "111705.952500", "111706.742500", "111707.530000", "111708.317500", "111709.105000", "111709.895000", "111710.682500", "111711.470000", "111712.257500", "111713.047500", "111713.835000", "111714.622500", "111715.410000", "111716.200000", "111716.987500", "111717.775000", "111718.562500", "111719.352500", "111720.140000", "111720.927500", "111721.717500", "111722.505000", "111723.292500", "111724.080000", "111724.870000", "111725.657500", "111726.445000", "111727.232500", "111728.022500", "111728.810000", "111729.597500", "111730.385000", "111731.175000", "111731.962500", "111732.750000", "111733.537500", "111734.327500", "111735.115000", "111735.902500", "111736.690000", "111737.480000", "111738.267500", "111739.055000", "111739.845000", "111740.632500", "111741.420000", "111742.207500", "111742.997500", "111743.785000", "111744.572500", "111745.360000", "111746.150000", "111746.937500", "111747.725000", "111748.512500", "111749.302500", "111750.090000", "111750.877500", "111751.665000", "111752.455000", "111753.242500", "111754.030000", "111754.817500", "111755.607500", "111756.395000", "111757.182500", "111757.972500", "111758.760000", "111759.547500", "111800.335000", "111801.125000", "111801.912500", "111802.700000", "111803.487500", "111804.277500", "111805.065000", "111805.852500", "111806.640000", "111807.430000", "111808.217500", "111809.005000", "111809.792500", "111810.582500", "111811.370000", "111812.157500", "111812.945000", "111813.735000", "111814.522500", "111815.310000", "111816.100000", "111816.887500", "111817.675000", "111818.462500", "111819.252500", "111820.040000", "111820.827500", "111821.615000", "111822.405000", "111823.192500", "111823.980000", "111824.767500", "111825.557500", "111826.345000", "111827.132500", "111827.920000", "111828.710000", "111829.497500", "111830.285000", "111831.072500", "111831.862500", "111832.650000", "111833.437500", "111834.227500", "111835.015000", "111835.802500", "111836.590000", "111837.380000", "111838.167500", "111838.955000", "111839.742500", "111840.532500", "111841.320000", "111842.107500", "111842.895000", "111843.685000", "111844.472500", "111845.260000", "111846.047500", "111846.837500", "111847.625000", "111848.412500", "111849.202500", "111849.990000", "111850.777500", "111851.565000", "111852.355000", "111853.142500", "111853.930000", "111854.717500", "111855.507500", "111856.295000", "111857.082500", "111857.870000", "111858.660000", "111859.447500", "111900.235000", "111901.022500", "111901.812500", "111902.600000", "111903.387500", "111904.175000", "111904.965000", "111905.752500", "111906.540000", "111907.330000", "111908.117500", "111908.905000", "111909.692500", "111910.482500", "111911.270000", "111912.057500", "111912.845000", "111913.635000", "111914.422500", "111915.210000", "111915.997500", "111916.787500", "111917.575000", "111918.362500", "111919.150000", "111919.940000", "111920.727500", "111921.515000", "111922.302500", "111923.092500", "111923.880000", "111924.667500", "111925.457500", "111926.245000", "111927.032500", "111927.820000", "111928.610000", "111929.397500", "111930.185000", "111930.972500", "111931.762500", "111932.550000", "111933.337500", "111934.125000", "111934.915000", "111935.702500", "111936.490000", "111937.277500", "111938.067500", "111938.855000", "111939.642500", "111940.430000", "111941.220000", "111942.007500", "111942.795000", "111943.585000", "111944.372500", "111945.160000", "111945.947500", "111946.737500", "111947.525000", "111948.312500", "111949.100000", "111949.890000", "111950.677500", "111951.465000", "111952.252500", "111953.042500", "111953.830000", "111954.617500", "111955.405000", "111956.195000", "111956.982500", "111957.770000", "111958.557500", "111959.347500", "112000.135000", "112000.922500", "112001.712500", "112002.500000", "112003.287500", "112004.075000", "112004.865000", "112005.652500", "112006.440000", "112007.227500", "112008.017500", "112008.805000", "112009.592500", "112010.380000", "112011.170000", "112011.957500", "112012.745000", "112013.532500", "112014.322500", "112015.110000", "112015.897500", "112016.685000", "112017.475000", "112018.262500", "112019.050000", "112019.840000", "112020.627500", "112021.415000", "112022.202500", "112022.992500", "112023.780000", "112024.567500", "112025.355000", "112026.145000", "112026.932500", "112027.720000", "112028.507500", "112029.297500", "112030.085000", "112030.872500", "112031.660000", "112032.450000", "112033.237500", "112034.025000", "112034.812500", "112035.602500", "112036.390000", "112037.177500", "112037.967500", "112038.755000", "112039.542500", "112040.330000", "112041.120000", "112041.907500"],
