{
  "AcquisitionMatrixPE": 104,
  "AcquisitionNumber": 1,
  "AcquisitionTime": "12:09:11.757500",
  "BandwidthPerPixelPhaseEncode": 13.935,
  "BaseResolution": 104,
  "CoilString": "C:HEA;HEP",
  "ConversionSoftware": "dcm2niix",
  "ConversionSoftwareVersion": "v1.0.20210317",
  "DerivedVendorReportedEchoSpacing": 0.000690017,
  "DeviceSerialNumber": "35450",
  "DwellTime": 2.5e-06,
  "EchoTime": 0.0348,
  "EffectiveEchoSpacing": 0.000690017,
  "FlipAngle": 55,
  "ImageComments": "Unaliased MB8/PE3 (remote)",
  "ImageOrientationPatientDICOM": [0.99933, 0.00648301, 0.036031, 3.82248e-08, 0.984195, -0.177086],
  "ImageType": [
    "ORIGINAL",
    "PRIMARY",
    "M",
    "MB",
    "ND",
    "MOSAIC"
],
  "ImagingFrequency": 123.234,
  "InPlanePhaseEncodingDirectionDICOM": "COL",
  "InstitutionAddress": "Univeristy Ave. 197,Newark,North East,US,07102-1814",
  "InstitutionName": "RUBIC",
  "InstitutionalDepartmentName": "Department",
  "MRAcquisitionType": "2D",
  "MagneticFieldStrength": 3,
  "Manufacturer": "Siemens",
  "ManufacturersModelName": "TrioTim",
  "Modality": "MR",
  "MultibandAccelerationFactor": 8,
  "PartialFourier": 0.875,
  "PatientPosition": "HFS",
  "PercentPhaseFOV": 100,
  "PercentSampling": 100,
  "PhaseEncodingDirection": "j-",
  "PhaseEncodingSteps": 91,
  "PhaseResolution": 1,
  "PixelBandwidth": 1923,
  "ProcedureStepDescription": "Cole^Michael",
  "ProtocolName": "cmrr_mbep2d_bold_2mm_MB8_Task_8x",
  "PulseSequenceDetails": "%CustomerSeq%\\cmrr_mbep2d_bold",
  "ReceiveCoilName": "32Ch_Head",
  "ReconMatrixPE": 104,
  "RepetitionTime": 0.785,
  "SAR": 0.13573,
  "ScanOptions": "PFP\\FS",
  "ScanningSequence": "EP",
  "SequenceName": "epfid2d1_104",
  "SequenceVariant": "SK\\SS",
  "SeriesDescription": "cmrr_mbep2d_bold_2mm_MB8_Task_8x",
  "SeriesNumber": 23,
  "ShimSetting": [2115, -422, -7323, 429, -4, -528, 291, 34],
  "SliceThickness": 2,
  "SliceTiming": [0, 0.4375, 0.0875, 0.525, 0.175, 0.6125, 0.2625, 0.7, 0.35, 0, 0.4375, 0.0875, 0.525, 0.175, 0.6125, 0.2625, 0.7, 0.35, 0, 0.4375, 0.0875, 0.525, 0.175, 0.6125, 0.2625, 0.7, 0.35, 0, 0.4375, 0.0875, 0.525, 0.175, 0.6125, 0.2625, 0.7, 0.35, 0, 0.4375, 0.0875, 0.525, 0.175, 0.6125, 0.2625, 0.7, 0.35, 0, 0.4375, 0.0875, 0.525, 0.175, 0.6125, 0.2625, 0.7, 0.35, 0, 0.4375, 0.0875, 0.525, 0.175, 0.6125, 0.2625, 0.7, 0.35, 0, 0.4375, 0.0875, 0.525, 0.175, 0.6125, 0.2625, 0.7, 0.35],
  "SoftwareVersions": "syngo MR B19",
  "SpacingBetweenSlices": 2,
  "StationName": "MRC35450",
  "TaskName": "cpro",
  "TotalReadoutTime": 0.0710717,
  "TxRefAmp": 330.342,
  "dcmmeta_affine": [
    [-1.9986592531204224, 7.644957378261097e-08, 0.07321910560131073, 97.94116973876953],
    [-0.012966025620698929, 1.968390703201294, -0.353935182094574, -68.1293716430664],
    [0.0720619186758995, 0.35417258739471436, 1.9670711755752563, -112.65989685058594],
    [0.0, 0.0, 0.0, 1.0]
],
  "dcmmeta_reorient_transform": [
    [0.0, -1.0, 0.0, 103.0],
    [1.0, 0.0, 0.0, 0.0],
    [0.0, 0.0, 1.0, 0.0],
    [0.0, 0.0, 0.0, 1.0]
],
  "dcmmeta_shape": [104, 104, 72, 581],
  "dcmmeta_slice_dim": 2,
  "dcmmeta_version": 0.6,
  "global": {
    "const": {
      "AcquisitionMatrix": [104, 0, 0, 104],
      "AngioFlag": "N",
      "BitsAllocated": 16,
      "BitsStored": 12,
      "Columns": 936,
      "EchoNumbers": 1,
      "EchoTime": 34.8,
      "EchoTrainLength": 1,
      "FlipAngle": 55.0,
      "HighBit": 11,
      "ImageOrientationPatient": [0.99932964560817, 0.00648301262826, 0.03603095829861, 3.8224788e-08, 0.98419532808976, -0.1770862958173],
      "ImagePositionPatient": [-929.38347407467, -958.85924507308, 41.177919513658],
      "ImageType": [
        "ORIGINAL",
        "PRIMARY",
        "M",
        "MB",
        "ND",
        "MOSAIC"
],
      "ImagedNucleus": "1H",
      "ImagingFrequency": 123.234464,
      "InPlanePhaseEncodingDirection": "COL",
      "MRAcquisitionType": "2D",
      "MagneticFieldStrength": 3.0,
      "Manufacturer": "SIEMENS",
      "ManufacturerModelName": "TrioTim",
      "Modality": "MR",
      "NumberOfAverages": 1.0,
      "NumberOfPhaseEncodingSteps": 91,
      "PercentPhaseFieldOfView": 100.0,
      "PercentSampling": 100.0,
      "PerformedProcedureStepStartTime": "102115.062000",
      "PhotometricInterpretation": "MONOCHROME2",
      "PixelBandwidth": 1923.0,
      "PixelRepresentation": 0,
      "PixelSpacing": [2.0, 2.0],
      "ProtocolName": "cmrr_mbep2d_bold_2mm_MB8_Task_8x",
      "RepetitionTime": 785.0,
      "Rows": 936,
      "SAR": 0.13573005539095,
      "SamplesPerPixel": 1,
      "ScanOptions": [
        "PFP",
        "FS"
],
      "ScanningSequence": "EP",
      "SequenceName": "epfid2d1_104",
      "SequenceVariant": [
        "SK",
        "SS"
],
      "SeriesDescription": "cmrr_mbep2d_bold_2mm_MB8_Task_8x",
      "SeriesNumber": 23,
      "SeriesTime": "120940.296000",
      "SliceLocation": -95.162744010769,
      "SliceThickness": 2.0,
      "SmallestImagePixelValue": 0,
      "SoftwareVersions": "syngo MR B19",
      "SpacingBetweenSlices": 2.0000000234719,
      "SpecificCharacterSet": "ISO_IR 100",
      "StudyID": "1",
      "StudyTime": "102114.937000",
      "TransmitCoilName": "Body",
      "VariableFlipAngleFlag": "N",
      "WindowCenterWidthExplanation": "Algo1",
      "dBdt": 0.0},
    "slices": {}
  },
  "time": {
    "samples": {
      "AcquisitionNumber": [1, 2, 3, 4, 5, 6, 7, 8, 9, 10, 11, 12, 13, 14, 15, 16, 17, 18, 19, 20, 21, 22, 23, 24, 25, 26, 27, 28, 29, 30, 31, 32, 33, 34, 35, 36, 37, 38, 39, 40, 41, 42, 43, 44, 45, 46, 47, 48, 49, 50, 51, 52, 53, 54, 55, 56, 57, 58, 59, 60, 61, 62, 63, 64, 65, 66, 67, 68, 69, 70, 71, 72, 73, 74, 75, 76, 77, 78, 79, 80, 81, 82, 83, 84, 85, 86, 87, 88, 89, 90, 91, 92, 93, 94, 95, 96, 97, 98, 99, 100, 101, 102, 103, 104, 105, 106, 107, 108, 109, 110, 111, 112, 113, 114, 115, 116, 117, 118, 119, 120, 121, 122, 123, 124, 125, 126, 127, 128, 129, 130, 131, 132, 133, 134, 135, 136, 137, 138, 139, 140, 141, 142, 143, 144, 145, 146, 147, 148, 149, 150, 151, 152, 153, 154, 155, 156, 157, 158, 159, 160, 161, 162, 163, 164, 165, 166, 167, 168, 169, 170, 171, 172, 173, 174, 175, 176, 177, 178, 179, 180, 181, 182, 183, 184, 185, 186, 187, 188, 189, 190, 191, 192, 193, 194, 195, 196, 197, 198, 199, 200, 201, 202, 203, 204, 205, 206, 207, 208, 209, 210, 211, 212, 213, 214, 215, 216, 217, 218, 219, 220, 221, 222, 223, 224, 225, 226, 227, 228, 229, 230, 231, 232, 233, 234, 235, 236, 237, 238, 239, 240, 241, 242, 243, 244, 245, 246, 247, 248, 249, 250, 251, 252, 253, 254, 255, 256, 257, 258, 259, 260, 261, 262, 263, 264, 265, 266, 267, 268, 269, 270, 271, 272, 273, 274, 275, 276, 277, 278, 279, 280, 281, 282, 283, 284, 285, 286, 287, 288, 289, 290, 291, 292, 293, 294, 295, 296, 297, 298, 299, 300, 301, 302, 303, 304, 305, 306, 307, 308, 309, 310, 311, 312, 313, 314, 315, 316, 317, 318, 319, 320, 321, 322, 323, 324, 325, 326, 327, 328, 329, 330, 331, 332, 333, 334, 335, 336, 337, 338, 339, 340, 341, 342, 343, 344, 345, 346, 347, 348, 349, 350, 351, 352, 353, 354, 355, 356, 357, 358, 359, 360, 361, 362, 363, 364, 365, 366, 367, 368, 369, 370, 371, 372, 373, 374, 375, 376, 377, 378, 379, 380, 381, 382, 383, 384, 385, 386, 387, 388, 389, 390, 391, 392, 393, 394, 395, 396, 397, 398, 399, 400, 401, 402, 403, 404, 405, 406, 407, 408, 409, 410, 411, 412, 413, 414, 415, 416, 417, 418, 419, 420, 421, 422, 423, 424, 425, 426, 427, 428, 429, 430, 431, 432, 433, 434, 435, 436, 437, 438, 439, 440, 441, 442, 443, 444, 445, 446, 447, 448, 449, 450, 451, 452, 453, 454, 455, 456, 457, 458, 459, 460, 461, 462, 463, 464, 465, 466, 467, 468, 469, 470, 471, 472, 473, 474, 475, 476, 477, 478, 479, 480, 481, 482, 483, 484, 485, 486, 487, 488, 489, 490, 491, 492, 493, 494, 495, 496, 497, 498, 499, 500, 501, 502, 503, 504, 505, 506, 507, 508, 509, 510, 511, 512, 513, 514, 515, 516, 517, 518, 519, 520, 521, 522, 523, 524, 525, 526, 527, 528, 529, 530, 531, 532, 533, 534, 535, 536, 537, 538, 539, 540, 541, 542, 543, 544, 545, 546, 547, 548, 549, 550, 551, 552, 553, 554, 555, 556, 557, 558, 559, 560, 561, 562, 563, 564, 565, 566, 567, 568, 569, 570, 571, 572, 573, 574, 575, 576, 577, 578, 579, 580, 581],
      "AcquisitionTime": ["120911.757500", "120912.547500", "120913.335000", "120914.122500", "120914.910000", "120915.700000", "120916.487500", "120917.275000", "120918.062500", "120918.852500", "120919.640000", "120920.427500", "120921.217500", "120922.005000", "120922.792500", "120923.580000", "120924.370000", "120925.157500", "120925.945000", "120926.732500", "120927.522500", "120928.310000", "120929.097500", "120929.885000", "120930.675000", "120931.462500", "120932.250000", "120933.037500", "120933.827500", "120934.615000", "120935.402500", "120936.190000", "120936.980000", "120937.767500", "120938.555000", "120939.345000", "120940.132500", "120940.920000", "120941.707500", "120942.497500", "120943.285000", "120944.072500", "120944.860000", "120945.650000", "120946.437500", "120947.225000", "120948.012500", "120948.802500", "120949.590000", "120950.377500", "120951.165000", "120951.955000", "120952.742500", "120953.530000", "120954.317500", "120955.107500", "120955.895000", "120956.682500", "120957.472500", "120958.260000", "120959.047500", "120959.835000", "121000.625000", "121001.412500", "121002.200000", "121002.987500", "121003.777500", "121004.565000", "121005.352500", "121006.140000", "121006.930000", "121007.717500", "121008.505000", "121009.292500", "121010.082500", "121010.870000", "121011.657500", "121012.447500", "121013.235000", "121014.022500", "121014.810000", "121015.600000", "121016.387500", "121017.175000", "121017.962500", "121018.752500", "121019.540000", "121020.327500", "121021.115000", "121021.905000", "121022.692500", "121023.480000", "121024.267500", "121025.057500", "121025.845000", "121026.632500", "121027.420000", "121028.210000", "121028.997500", "121029.785000", "121030.575000", "121031.362500", "121032.150000", "121032.937500", "121033.727500", "121034.515000", "121035.302500", "121036.090000", "121036.880000", "121037.667500", "121038.455000", "121039.242500", "121040.032500", "121040.820000", "121041.607500", "121042.395000", "121043.185000", "121043.972500", "121044.760000", "121045.547500", "121046.337500", "121047.125000", "121047.912500", "121048.702500", "121049.490000", "121050.277500", "121051.065000", "121051.855000", "121052.642500", "121053.430000", "121054.217500", "121055.007500", "121055.795000", "121056.582500", "121057.370000", "121058.160000", "121058.947500", "121059.735000", "121100.522500", "121101.312500", "121102.100000", "121102.887500", "121103.675000", "121104.465000", "121105.252500", "121106.040000", "121106.830000", "121107.617500", "121108.405000", "121109.192500", "121109.982500", "121110.770000", "121111.557500", "121112.345000", "121113.135000", "121113.922500", "121114.710000", "121115.497500", "121116.287500", "121117.075000", "121117.862500", "121118.650000", "121119.440000", "121120.227500", "121121.015000", "121121.802500", "121122.592500", "121123.380000", "121124.167500", "121124.957500", "121125.745000", "121126.532500", "121127.320000", "121128.110000", "121128.897500", "121129.685000", "121130.472500", "121131.262500", "121132.050000", "121132.837500", "121133.625000", "121134.415000", "121135.202500", "121135.990000", "121136.777500", "121137.567500", "121138.355000", "121139.142500", "121139.930000", "121140.720000", "121141.507500", "121142.295000", "121143.085000", "121143.872500", "121144.660000", "121145.447500", "121146.237500", "121147.025000", "121147.812500", "121148.600000", "121149.390000", "121150.177500", "121150.965000", "121151.752500", "121152.542500", "121153.330000", "121154.117500", "121154.905000", "121155.695000", "121156.482500", "121157.270000", "121158.057500", "121158.847500", "121159.635000", "121200.422500", "121201.212500", "121202.000000", "121202.787500", "121203.575000", "121204.365000", "121205.152500", "121205.940000", "121206.727500", "121207.517500", "121208.305000", "121209.092500", "121209.880000", "121210.670000", "121211.457500", "121212.245000", "121213.032500", "121213.822500", "121214.610000", "121215.397500", "121216.185000", "121216.975000", "121217.762500", "121218.550000", "121219.340000", "121220.127500", "121220.915000", "121221.702500", "121222.492500", "121223.280000", "121224.067500", "121224.855000", "121225.645000", "121226.432500", "121227.220000", "121228.007500", "121228.797500", "121229.585000", "121230.372500", "121231.160000", "121231.950000", "121232.737500", "121233.525000", "121234.312500", "121235.102500", "121235.890000", "121236.677500", "121237.467500", "121238.255000", "121239.042500", "121239.830000", "121240.620000", "121241.407500", "121242.195000", "121242.982500", "121243.772500", "121244.560000", "121245.347500", "121246.135000", "121246.925000", "121247.712500", "121248.500000", "121249.287500", "121250.077500", "121250.865000", "121251.652500", "121252.440000", "121253.230000", "121254.017500", "121254.805000", "121255.595000", "121256.382500", "121257.170000", "121257.957500", "121258.747500", "121259.535000", "121300.322500", "121301.110000", "121301.900000", "121302.687500", "121303.475000", "121304.262500", "121305.052500", "121305.840000", "121306.627500", "121307.415000", "121308.205000", "121308.992500", "121309.780000", "121310.567500", "121311.357500", "121312.145000", "121312.932500", "121313.722500", "121314.510000", "121315.297500", "121316.085000", "121316.875000", "121317.662500", "121318.450000", "121319.237500", "121320.027500", "121320.815000", "121321.602500", "121322.390000", "121323.180000", "121323.967500", "121324.755000", "121325.542500", "121326.332500", "121327.120000", "121327.907500", "121328.697500", "121329.485000", "121330.272500", "121331.060000", "121331.850000", "121332.637500", "121333.425000", "121334.212500", "121335.002500", "121335.790000", "121336.577500", "121337.365000", "121338.155000", "121338.942500", "121339.730000", "121340.517500", "121341.307500", "121342.095000", "121342.882500", "121343.670000", "121344.460000", "121345.247500", "121346.035000", "121346.825000", "121347.612500", "121348.400000", "121349.187500", "121349.977500", "121350.765000", "121351.552500", "121352.340000", "121353.130000", "121353.917500", "121354.705000", "121355.492500", "121356.282500", "121357.070000", "121357.857500", "121358.645000", "121359.435000", "121400.222500", "121401.010000", "121401.797500", "121402.587500", "121403.375000", "121404.162500", "121404.952500", "121405.740000", "121406.527500", "121407.315000", "121408.105000", "121408.892500", "121409.680000", "121410.467500", "121411.257500", "121412.045000", "121412.832500", "121413.620000", "121414.410000", "121415.197500", "121415.985000", "121416.772500", "121417.562500", "121418.350000", "121419.137500", "121419.925000", "121420.715000", "121421.502500", "121422.290000", "121423.080000", "121423.867500", "121424.655000", "121425.442500", "121426.232500", "121427.020000", "121427.807500", "121428.595000", "121429.385000", "121430.172500", "121430.960000", "121431.747500", "121432.537500", "121433.325000", "121434.112500", "121434.900000", "121435.690000", "121436.477500", "121437.265000", "121438.052500", "121438.842500", "121439.630000", "121440.417500", "121441.207500", "121441.995000", "121442.782500", "121443.570000", "121444.360000", "121445.147500", "121445.935000", "121446.722500", "121447.512500", "121448.300000", "121449.087500", "121449.875000", "121450.665000", "121451.452500", "121452.240000", "121453.027500", "121453.817500", "121454.605000", "121455.392500", "121456.180000", "121456.970000", "121457.757500", "121458.545000", "121459.335000", "121500.122500", "121500.910000", "121501.697500", "121502.487500", "121503.275000", "121504.062500", "121504.850000", "121505.640000", "121506.427500", "121507.215000", "121508.002500", "121508.792500", "121509.580000", "121510.367500", "121511.155000", "121511.945000", "121512.732500", "121513.520000", "121514.307500", "121515.097500", "121515.885000", "121516.672500", "121517.462500", "121518.250000", "121519.037500", "121519.825000", "121520.615000", "121521.402500", "121522.190000", "121522.977500", "121523.767500", "121524.555000", "121525.342500", "121526.130000", "121526.920000", "121527.707500", "121528.495000", "121529.282500", "121530.072500", "121530.860000", "121531.647500", "121532.435000", "121533.225000", "121534.012500", "121534.800000", "121535.590000", "121536.377500", "121537.165000", "121537.952500", "121538.742500", "121539.530000", "121540.317500", "121541.105000", "121541.895000", "121542.682500", "121543.470000", "121544.257500", "121545.047500", "121545.835000", "121546.622500", "121547.410000", "121548.200000", "121548.987500", "121549.775000", "121550.562500", "121551.352500", "121552.140000", "121552.927500", "121553.717500", "121554.505000", "121555.292500", "121556.080000", "121556.870000", "121557.657500", "121558.445000", "121559.232500", "121600.022500", "121600.810000", "121601.597500", "121602.385000", "121603.175000", "121603.962500", "121604.750000", "121605.537500", "121606.327500", "121607.115000", "121607.902500", "121608.690000", "121609.480000", "121610.267500", "121611.055000", "121611.845000", "121612.632500", "121613.420000", "121614.207500", "121614.997500", "121615.785000", "121616.572500", "121617.360000", "121618.150000", "121618.937500", "121619.725000", "121620.512500", "121621.302500", "121622.090000", "121622.877500", "121623.665000", "121624.455000", "121625.242500", "121626.030000", "121626.817500", "121627.607500", "121628.395000", "121629.182500", "121629.972500", "121630.760000", "121631.547500", "121632.335000", "121633.125000", "121633.912500", "121634.700000", "121635.487500", "121636.277500", "121637.065000", "121637.852500", "121638.640000", "121639.430000", "121640.217500", "121641.005000", "121641.792500", "121642.582500", "121643.370000", "121644.157500", "121644.947500", "121645.735000", "121646.522500", "121647.310000", "121648.100000", "121648.887500"],
      "ContentTime": ["120940.296000", "120940.296000", "120940.312000", "120940.312000", "120940.312000", "120940.312000", "120940.312000", "120940.312000", "120940.312000", "120940.312000", "120940.328000", "120940.328000", "120940.328000", "120940.328000", "120940.328000", "120940.328000", "120940.328000", "120940.343000", "120940.343000", "120940.343000", "120940.343000", "120940.343000", "120940.343000", "120940.343000", "120940.343000", "120940.359000", "120940.359000", "120940.359000", "120940.359000", "120940.359000", "120940.359000", "120940.359000", "120940.375000", "121000.265000", "121000.265000", "121000.281000", "121000.281000", "121000.281000", "121000.281000", "121000.281000", "121000.281000", "121000.281000", "121000.296000", "121000.296000", "121000.296000", "121000.296000", "121000.296000", "121000.296000", "121000.312000", "121000.312000", "121000.312000", "121000.312000", "121000.312000", "121000.312000", "121000.328000", "121000.328000", "121000.328000", "121000.328000", "121000.328000", "121020.265000", "121020.265000", "121020.281000", "121020.281000", "121020.281000", "121020.281000", "121020.281000", "121020.281000", "121020.281000", "121020.296000", "121020.296000", "121020.296000", "121020.296000", "121020.296000", "121020.296000", "121020.296000", "121020.296000", "121020.312000", "121020.312000", "121020.312000", "121020.312000", "121020.312000", "121020.312000", "121020.328000", "121020.328000", "121040.265000", "121040.265000", "121040.281000", "121040.281000", "121040.281000", "121040.281000", "121040.281000", "121040.281000", "121040.281000", "121040.296000", "121040.296000", "121040.296000", "121040.296000", "121040.296000", "121040.296000", "121040.296000", "121040.312000", "121040.312000", "121040.312000", "121040.312000", "121040.312000", "121040.312000", "121040.312000", "121040.312000", "121040.328000", "121040.328000", "121100.265000", "121100.265000", "121100.281000", "121100.281000", "121100.281000", "121100.281000", "121100.281000", "121100.281000", "121100.281000", "121100.296000", "121100.296000", "121100.296000", "121100.296000", "121100.296000", "121100.296000", "121100.296000", "121100.296000", "121100.312000", "121100.312000", "121100.312000", "121100.312000", "121100.312000", "121100.312000", "121100.312000", "121100.328000", "121120.265000", "121120.265000", "121120.281000", "121120.281000", "121120.281000", "121120.281000", "121120.281000", "121120.281000", "121120.281000", "121120.296000", "121120.296000", "121120.296000", "121120.296000", "121120.296000", "121120.296000", "121120.296000", "121120.312000", "121120.312000", "121120.312000", "121120.312000", "121120.312000", "121120.312000", "121120.312000", "121120.328000", "121120.328000", "121120.328000", "121140.265000", "121140.265000", "121140.281000", "121140.281000", "121140.281000", "121140.281000", "121140.281000", "121140.281000", "121140.296000", "121140.296000", "121140.296000", "121140.296000", "121140.296000", "121140.312000", "121140.312000", "121140.312000", "121140.312000", "121140.312000", "121140.312000", "121140.328000", "121140.328000", "121140.328000", "121140.328000", "121140.328000", "121140.343000", "121200.265000", "121200.265000", "121200.281000", "121200.281000", "121200.281000", "121200.281000", "121200.281000", "121200.281000", "121200.281000", "121200.296000", "121200.296000", "121200.296000", "121200.296000", "121200.296000", "121200.296000", "121200.296000", "121200.296000", "121200.312000", "121200.312000", "121200.312000", "121200.312000", "121200.312000", "121200.312000", "121200.312000", "121200.328000", "121200.328000", "121220.265000", "121220.265000", "121220.281000", "121220.281000", "121220.281000", "121220.281000", "121220.281000", "121220.281000", "121220.281000", "121220.296000", "121220.296000", "121220.296000", "121220.296000", "121220.296000", "121220.296000", "121220.296000", "121220.296000", "121220.312000", "121220.312000", "121220.312000", "121220.312000", "121220.312000", "121220.312000", "121220.312000", "121220.328000", "121240.265000", "121240.265000", "121240.281000", "121240.281000", "121240.281000", "121240.281000", "121240.281000", "121240.281000", "121240.281000", "121240.296000", "121240.296000", "121240.296000", "121240.296000", "121240.296000", "121240.296000", "121240.312000", "121240.312000", "121240.312000", "121240.312000", "121240.312000", "121240.312000", "121240.312000", "121240.328000", "121240.328000", "121240.328000", "121240.328000", "121300.265000", "121300.281000", "121300.281000", "121300.281000", "121300.281000", "121300.281000", "121300.281000", "121300.281000", "121300.296000", "121300.296000", "121300.296000", "121300.296000", "121300.296000", "121300.296000", "121300.296000", "121300.312000", "121300.312000", "121300.328000", "121300.328000", "121300.328000", "121300.328000", "121300.328000", "121300.328000", "121300.328000", "121300.343000", "121320.265000", "121320.265000", "121320.281000", "121320.281000", "121320.281000", "121320.281000", "121320.281000", "121320.281000", "121320.281000", "121320.296000", "121320.296000", "121320.296000", "121320.296000", "121320.296000", "121320.296000", "121320.296000", "121320.312000", "121320.312000", "121320.312000", "121320.312000", "121320.312000", "121320.312000", "121320.312000", "121320.312000", "121320.328000", "121320.328000", "121340.265000", "121340.265000", "121340.281000", "121340.281000", "121340.281000", "121340.281000", "121340.281000", "121340.281000", "121340.281000", "121340.296000", "121340.296000", "121340.296000", "121340.296000", "121340.296000", "121340.296000", "121340.296000", "121340.312000", "121340.312000", "121340.312000", "121340.312000", "121340.312000", "121340.312000", "121340.312000", "121340.312000", "121340.328000", "121400.265000", "121400.265000", "121400.281000", "121400.281000", "121400.281000", "121400.281000", "121400.281000", "121400.281000", "121400.281000", "121400.296000", "121400.296000", "121400.296000", "121400.296000", "121400.296000", "121400.296000", "121400.312000", "121400.312000", "121400.312000", "121400.312000", "121400.312000", "121400.312000", "121400.312000", "121400.328000", "121400.328000", "121400.328000", "121420.265000", "121420.265000", "121420.281000", "121420.281000", "121420.281000", "121420.281000", "121420.281000", "121420.281000", "121420.281000", "121420.296000", "121420.296000", "121420.296000", "121420.296000", "121420.296000", "121420.296000", "121420.296000", "121420.312000", "121420.312000", "121420.312000", "121420.312000", "121420.312000", "121420.312000", "121420.312000", "121420.312000", "121420.328000", "121420.328000", "121440.265000", "121440.265000", "121440.281000", "121440.281000", "121440.281000", "121440.281000", "121440.281000", "121440.281000", "121440.281000", "121440.296000", "121440.296000", "121440.296000", "121440.296000", "121440.296000", "121440.296000", "121440.296000", "121440.312000", "121440.312000", "121440.312000", "121440.312000", "121440.312000", "121440.312000", "121440.312000", "121440.328000", "121440.328000", "121500.265000", "121500.265000", "121500.281000", "121500.281000", "121500.281000", "121500.281000", "121500.281000", "121500.281000", "121500.281000", "121500.296000", "121500.296000", "121500.296000", "121500.296000", "121500.296000", "121500.296000", "121500.296000", "121500.312000", "121500.312000", "121500.312000", "121500.312000", "121500.312000", "121500.312000", "121500.312000", "121500.312000", "121500.328000", "121500.328000", "121520.265000", "121520.265000", "121520.281000", "121520.281000", "121520.281000", "121520.281000", "121520.281000", "121520.281000", "121520.281000", "121520.296000", "121520.296000", "121520.296000", "121520.296000", "121520.296000", "121520.296000", "121520.296000", "121520.312000", "121520.312000", "121520.312000", "121520.312000", "121520.312000", "121520.312000", "121520.312000", "121520.312000", "121520.328000", "121540.265000", "121540.265000", "121540.281000", "121540.281000", "121540.281000", "121540.281000", "121540.281000", "121540.281000", "121540.281000", "121540.296000", "121540.296000", "121540.296000", "121540.296000", "121540.296000", "121540.296000", "121540.296000", "121540.312000", "121540.312000", "121540.312000", "121540.312000", "121540.312000", "121540.312000", "121540.312000", "121540.312000", "121540.328000", "121540.328000", "121600.265000", "121600.265000", "121600.281000", "121600.281000", "121600.281000", "121600.281000", "121600.281000", "121600.281000", "121600.281000", "121600.296000", "121600.296000", "121600.296000", "121600.296000", "121600.296000", "121600.296000", "121600.296000", "121600.312000", "121600.312000", "121600.312000", "121600.312000", "121600.312000", "121600.312000", "121600.312000", "121600.328000", "121600.328000", "121620.265000", "121620.265000", "121620.281000", "121620.281000", "121620.281000", "121620.281000", "121620.281000", "121620.281000", "121620.281000", "121620.296000", "121620.296000", "121620.296000", "121620.296000", "121620.296000", "121620.296000", "121620.296000", "121620.312000", "121620.312000", "121620.312000", "121620.312000", "121620.312000", "121620.312000", "121620.312000", "121620.312000", "121620.328000", "121620.328000", "121640.265000", "121640.265000", "121640.281000", "121640.281000", "121640.281000", "121640.281000", "121640.281000", "121640.281000", "121640.281000", "121640.296000", "121640.296000", "121640.296000", "121640.296000", "121640.296000", "121640.296000", "121640.312000", "121640.312000", "121640.312000", "121640.312000", "121640.312000", "121640.312000", "121640.312000", "121640.312000", "121640.328000", "121640.328000", "121649.968000", "121649.968000", "121649.984000", "121649.984000", "121649.984000", "121649.984000", "121649.984000", "121649.984000", "121649.984000", "121649.984000", "121650.000000", "121650.000000", "121650.000000"],
