{
  "AcquisitionMatrixPE": 104,
  "AcquisitionNumber": 1,
  "AcquisitionTime": "16:31:12.667500",
  "BandwidthPerPixelPhaseEncode": 13.935,
  "BaseResolution": 104,
  "CoilString": "C:HEA;HEP",
  "ConversionSoftware": "dcm2niix",
  "ConversionSoftwareVersion": "v1.0.20210317",
  "DerivedVendorReportedEchoSpacing": 0.000690017,
  "DeviceSerialNumber": "35450",
  "DwellTime": 2.5e-06,
  "EchoTime": 0.0348,
  "EffectiveEchoSpacing": 0.000690017,
  "FlipAngle": 55,
  "ImageComments": "Unaliased MB8/PE3",
  "ImageOrientationPatientDICOM": [1, 0, 0, 0, 0.988494, -0.151261],
  "ImageType": [
    "ORIGINAL",
    "PRIMARY",
    "M",
    "MB",
    "ND",
    "MOSAIC"
],
  "ImagingFrequency": 123.235,
  "InPlanePhaseEncodingDirectionDICOM": "COL",
  "InstitutionAddress": "Univeristy Ave. 197,Newark,North East,US,07102-1814",
  "InstitutionName": "RUBIC",
  "InstitutionalDepartmentName": "Department",
  "MRAcquisitionType": "2D",
  "MagneticFieldStrength": 3,
  "Manufacturer": "Siemens",
  "ManufacturersModelName": "TrioTim",
  "Modality": "MR",
  "MultibandAccelerationFactor": 8,
  "PartialFourier": 0.875,
  "PatientPosition": "HFS",
  "PercentPhaseFOV": 100,
  "PercentSampling": 100,
  "PhaseEncodingDirection": "j-",
  "PhaseEncodingSteps": 91,
  "PhaseResolution": 1,
  "PixelBandwidth": 1923,
  "ProcedureStepDescription": "Cole^Michael",
  "ProtocolName": "cmrr_mbep2d_bold_2mm_MB8_Task_8x",
  "PulseSequenceDetails": "%CustomerSeq%\\cmrr_mbep2d_bold",
  "ReceiveCoilName": "32Ch_Head",
  "ReconMatrixPE": 104,
  "RepetitionTime": 0.785,
  "SAR": 0.13775,
  "ScanOptions": "PFP\\FS",
  "ScanningSequence": "EP",
  "SequenceName": "epfid2d1_104",
  "SequenceVariant": "SK\\SS",
  "SeriesDescription": "cmrr_mbep2d_bold_2mm_MB8_Task_8x",
  "SeriesNumber": 27,
  "ShimSetting": [2109, -453, -7245, 237, 132, -465, 97, -67],
  "SliceThickness": 2,
  "SliceTiming": [0, 0.4375, 0.0875, 0.525, 0.175, 0.6125, 0.2625, 0.7, 0.35, 0, 0.4375, 0.0875, 0.525, 0.175, 0.6125, 0.2625, 0.7, 0.35, 0, 0.4375, 0.0875, 0.525, 0.175, 0.6125, 0.2625, 0.7, 0.35, 0, 0.4375, 0.0875, 0.525, 0.175, 0.6125, 0.2625, 0.7, 0.35, 0, 0.4375, 0.0875, 0.525, 0.175, 0.6125, 0.2625, 0.7, 0.35, 0, 0.4375, 0.0875, 0.525, 0.175, 0.6125, 0.2625, 0.7, 0.35, 0, 0.4375, 0.0875, 0.525, 0.175, 0.6125, 0.2625, 0.7, 0.35, 0, 0.4375, 0.0875, 0.525, 0.175, 0.6125, 0.2625, 0.7, 0.35],
  "SoftwareVersions": "syngo MR B19",
  "SpacingBetweenSlices": 2,
  "StationName": "MRC35450",
  "TaskName": "cpro",
  "TotalReadoutTime": 0.0710717,
  "TxRefAmp": 318.521,
  "dcmmeta_affine": [
    [-2.0, 0.0, 0.0, 103.32203674316406],
    [0.0, 1.9769877195358276, -0.30252164602279663, -70.42584228515625],
    [0.0, 0.30252164602279663, 1.9769878387451172, -105.27268981933594],
    [0.0, 0.0, 0.0, 1.0]
],
  "dcmmeta_reorient_transform": [
    [0.0, -1.0, 0.0, 103.0],
    [1.0, 0.0, 0.0, 0.0],
    [0.0, 0.0, 1.0, 0.0],
    [0.0, 0.0, 0.0, 1.0]
],
  "dcmmeta_shape": [104, 104, 72, 581],
  "dcmmeta_slice_dim": 2,
  "dcmmeta_version": 0.6,
  "global": {
    "const": {
      "AcquisitionMatrix": [104, 0, 0, 104],
      "AngioFlag": "N",
      "BitsAllocated": 16,
      "BitsStored": 12,
      "Columns": 936,
      "EchoNumbers": 1,
      "EchoTime": 34.8,
      "EchoTrainLength": 1,
      "FlipAngle": 55.0,
      "HighBit": 11,
      "ImageOrientationPatient": [1.0, 0.0, 0.0, 0.0, 0.98849388683562, -0.1512608200712],
      "ImagePositionPatient": [-935.32203388214, -955.63081366164, 51.736041893284],
      "ImageType": [
        "ORIGINAL",
        "PRIMARY",
        "M",
        "MB",
        "ND",
        "MOSAIC"
],
      "ImagedNucleus": "1H",
      "ImagingFrequency": 123.234627,
      "InPlanePhaseEncodingDirection": "COL",
      "MRAcquisitionType": "2D",
      "MagneticFieldStrength": 3.0,
      "Manufacturer": "SIEMENS",
      "ManufacturerModelName": "TrioTim",
      "Modality": "MR",
      "NumberOfAverages": 1.0,
      "NumberOfPhaseEncodingSteps": 91,
      "PercentPhaseFieldOfView": 100.0,
      "PercentSampling": 100.0,
      "PerformedProcedureStepStartTime": "142132.750000",
      "PhotometricInterpretation": "MONOCHROME2",
      "PixelBandwidth": 1923.0,
      "PixelRepresentation": 0,
      "PixelSpacing": [2.0, 2.0],
      "ProtocolName": "cmrr_mbep2d_bold_2mm_MB8_Task_8x",
      "RepetitionTime": 785.0,
      "Rows": 936,
      "SAR": 0.13774956097681,
      "SamplesPerPixel": 1,
      "ScanOptions": [
        "PFP",
        "FS"
],
      "ScanningSequence": "EP",
      "SequenceName": "epfid2d1_104",
      "SequenceVariant": [
        "SK",
        "SS"
],
      "SeriesDescription": "cmrr_mbep2d_bold_2mm_MB8_Task_8x",
      "SeriesNumber": 27,
      "SeriesTime": "183125.703000",
      "SliceLocation": -93.408739419185,
      "SliceThickness": 2.0,
      "SmallestImagePixelValue": 0,
      "SoftwareVersions": "syngo MR B19",
      "SpacingBetweenSlices": 2.0000000375168,
      "SpecificCharacterSet": "ISO_IR 100",
      "StudyID": "1",
      "StudyTime": "142132.703000",
      "TransmitCoilName": "Body",
      "VariableFlipAngleFlag": "N",
      "WindowCenterWidthExplanation": "Algo1",
      "dBdt": 0.0},
    "slices": {}
  },
  "time": {
    "samples": {
      "AcquisitionNumber": [1, 2, 3, 4, 5, 6, 7, 8, 9, 10, 11, 12, 13, 14, 15, 16, 17, 18, 19, 20, 21, 22, 23, 24, 25, 26, 27, 28, 29, 30, 31, 32, 33, 34, 35, 36, 37, 38, 39, 40, 41, 42, 43, 44, 45, 46, 47, 48, 49, 50, 51, 52, 53, 54, 55, 56, 57, 58, 59, 60, 61, 62, 63, 64, 65, 66, 67, 68, 69, 70, 71, 72, 73, 74, 75, 76, 77, 78, 79, 80, 81, 82, 83, 84, 85, 86, 87, 88, 89, 90, 91, 92, 93, 94, 95, 96, 97, 98, 99, 100, 101, 102, 103, 104, 105, 106, 107, 108, 109, 110, 111, 112, 113, 114, 115, 116, 117, 118, 119, 120, 121, 122, 123, 124, 125, 126, 127, 128, 129, 130, 131, 132, 133, 134, 135, 136, 137, 138, 139, 140, 141, 142, 143, 144, 145, 146, 147, 148, 149, 150, 151, 152, 153, 154, 155, 156, 157, 158, 159, 160, 161, 162, 163, 164, 165, 166, 167, 168, 169, 170, 171, 172, 173, 174, 175, 176, 177, 178, 179, 180, 181, 182, 183, 184, 185, 186, 187, 188, 189, 190, 191, 192, 193, 194, 195, 196, 197, 198, 199, 200, 201, 202, 203, 204, 205, 206, 207, 208, 209, 210, 211, 212, 213, 214, 215, 216, 217, 218, 219, 220, 221, 222, 223, 224, 225, 226, 227, 228, 229, 230, 231, 232, 233, 234, 235, 236, 237, 238, 239, 240, 241, 242, 243, 244, 245, 246, 247, 248, 249, 250, 251, 252, 253, 254, 255, 256, 257, 258, 259, 260, 261, 262, 263, 264, 265, 266, 267, 268, 269, 270, 271, 272, 273, 274, 275, 276, 277, 278, 279, 280, 281, 282, 283, 284, 285, 286, 287, 288, 289, 290, 291, 292, 293, 294, 295, 296, 297, 298, 299, 300, 301, 302, 303, 304, 305, 306, 307, 308, 309, 310, 311, 312, 313, 314, 315, 316, 317, 318, 319, 320, 321, 322, 323, 324, 325, 326, 327, 328, 329, 330, 331, 332, 333, 334, 335, 336, 337, 338, 339, 340, 341, 342, 343, 344, 345, 346, 347, 348, 349, 350, 351, 352, 353, 354, 355, 356, 357, 358, 359, 360, 361, 362, 363, 364, 365, 366, 367, 368, 369, 370, 371, 372, 373, 374, 375, 376, 377, 378, 379, 380, 381, 382, 383, 384, 385, 386, 387, 388, 389, 390, 391, 392, 393, 394, 395, 396, 397, 398, 399, 400, 401, 402, 403, 404, 405, 406, 407, 408, 409, 410, 411, 412, 413, 414, 415, 416, 417, 418, 419, 420, 421, 422, 423, 424, 425, 426, 427, 428, 429, 430, 431, 432, 433, 434, 435, 436, 437, 438, 439, 440, 441, 442, 443, 444, 445, 446, 447, 448, 449, 450, 451, 452, 453, 454, 455, 456, 457, 458, 459, 460, 461, 462, 463, 464, 465, 466, 467, 468, 469, 470, 471, 472, 473, 474, 475, 476, 477, 478, 479, 480, 481, 482, 483, 484, 485, 486, 487, 488, 489, 490, 491, 492, 493, 494, 495, 496, 497, 498, 499, 500, 501, 502, 503, 504, 505, 506, 507, 508, 509, 510, 511, 512, 513, 514, 515, 516, 517, 518, 519, 520, 521, 522, 523, 524, 525, 526, 527, 528, 529, 530, 531, 532, 533, 534, 535, 536, 537, 538, 539, 540, 541, 542, 543, 544, 545, 546, 547, 548, 549, 550, 551, 552, 553, 554, 555, 556, 557, 558, 559, 560, 561, 562, 563, 564, 565, 566, 567, 568, 569, 570, 571, 572, 573, 574, 575, 576, 577, 578, 579, 580, 581],
      "AcquisitionTime": ["163112.667500", "163113.457500", "163114.245000", "163115.032500", "163115.820000", "163116.610000", "163117.397500", "163118.185000", "163118.972500", "163119.762500", "163120.550000", "163121.337500", "163122.127500", "163122.915000", "163123.702500", "163124.490000", "163125.280000", "163126.067500", "163126.855000", "163127.642500", "163128.432500", "163129.220000", "163130.007500", "163130.795000", "163131.585000", "163132.372500", "163133.160000", "163133.947500", "163134.737500", "163135.525000", "163136.312500", "163137.100000", "163137.890000", "163138.677500", "163139.465000", "163140.255000", "163141.042500", "163141.830000", "163142.617500", "163143.407500", "163144.195000", "163144.982500", "163145.770000", "163146.560000", "163147.347500", "163148.135000", "163148.922500", "163149.712500", "163150.500000", "163151.287500", "163152.075000", "163152.865000", "163153.652500", "163154.440000", "163155.227500", "163156.017500", "163156.805000", "163157.592500", "163158.382500", "163159.170000", "163159.957500", "163200.745000", "163201.535000", "163202.322500", "163203.110000", "163203.897500", "163204.687500", "163205.475000", "163206.262500", "163207.050000", "163207.840000", "163208.627500", "163209.415000", "163210.202500", "163210.992500", "163211.780000", "163212.567500", "163213.355000", "163214.145000", "163214.932500", "163215.720000", "163216.510000", "163217.297500", "163218.085000", "163218.872500", "163219.662500", "163220.450000", "163221.237500", "163222.025000", "163222.815000", "163223.602500", "163224.390000", "163225.177500", "163225.967500", "163226.755000", "163227.542500", "163228.330000", "163229.120000", "163229.907500", "163230.695000", "163231.482500", "163232.272500", "163233.060000", "163233.847500", "163234.637500", "163235.425000", "163236.212500", "163237.000000", "163237.790000", "163238.577500", "163239.365000", "163240.152500", "163240.942500", "163241.730000", "163242.517500", "163243.305000", "163244.095000", "163244.882500", "163245.670000", "163246.457500", "163247.247500", "163248.035000", "163248.822500", "163249.612500", "163250.400000", "163251.187500", "163251.975000", "163252.765000", "163253.552500", "163254.340000", "163255.127500", "163255.917500", "163256.705000", "163257.492500", "163258.280000", "163259.070000", "163259.857500", "163300.645000", "163301.432500", "163302.222500", "163303.010000", "163303.797500", "163304.585000", "163305.375000", "163306.162500", "163306.950000", "163307.740000", "163308.527500", "163309.315000", "163310.102500", "163310.892500", "163311.680000", "163312.467500", "163313.255000", "163314.045000", "163314.832500", "163315.620000", "163316.407500", "163317.197500", "163317.985000", "163318.772500", "163319.560000", "163320.350000", "163321.137500", "163321.925000", "163322.712500", "163323.502500", "163324.290000", "163325.077500", "163325.867500", "163326.655000", "163327.442500", "163328.230000", "163329.020000", "163329.807500", "163330.595000", "163331.382500", "163332.172500", "163332.960000", "163333.747500", "163334.535000", "163335.325000", "163336.112500", "163336.900000", "163337.687500", "163338.477500", "163339.265000", "163340.052500", "163340.840000", "163341.630000", "163342.417500", "163343.205000", "163343.995000", "163344.782500", "163345.570000", "163346.357500", "163347.147500", "163347.935000", "163348.722500", "163349.510000", "163350.300000", "163351.087500", "163351.875000", "163352.662500", "163353.452500", "163354.240000", "163355.027500", "163355.815000", "163356.605000", "163357.392500", "163358.180000", "163358.967500", "163359.757500", "163400.545000", "163401.332500", "163402.122500", "163402.910000", "163403.697500", "163404.485000", "163405.275000", "163406.062500", "163406.850000", "163407.637500", "163408.427500", "163409.215000", "163410.002500", "163410.790000", "163411.580000", "163412.367500", "163413.155000", "163413.942500", "163414.732500", "163415.520000", "163416.307500", "163417.095000", "163417.885000", "163418.672500", "163419.460000", "163420.250000", "163421.037500", "163421.825000", "163422.612500", "163423.402500", "163424.190000", "163424.977500", "163425.765000", "163426.555000", "163427.342500", "163428.130000", "163428.917500", "163429.707500", "163430.495000", "163431.282500", "163432.070000", "163432.860000", "163433.647500", "163434.435000", "163435.222500", "163436.012500", "163436.800000", "163437.587500", "163438.377500", "163439.165000", "163439.952500", "163440.740000", "163441.530000", "163442.317500", "163443.105000", "163443.892500", "163444.682500", "163445.470000", "163446.257500", "163447.045000", "163447.835000", "163448.622500", "163449.410000", "163450.197500", "163450.987500", "163451.775000", "163452.562500", "163453.350000", "163454.140000", "163454.927500", "163455.715000", "163456.505000", "163457.292500", "163458.080000", "163458.867500", "163459.657500", "163500.445000", "163501.232500", "163502.020000", "163502.810000", "163503.597500", "163504.385000", "163505.172500", "163505.962500", "163506.750000", "163507.537500", "163508.325000", "163509.115000", "163509.902500", "163510.690000", "163511.477500", "163512.267500", "163513.055000", "163513.842500", "163514.632500", "163515.420000", "163516.207500", "163516.995000", "163517.785000", "163518.572500", "163519.360000", "163520.147500", "163520.937500", "163521.725000", "163522.512500", "163523.300000", "163524.090000", "163524.877500", "163525.665000", "163526.452500", "163527.242500", "163528.030000", "163528.817500", "163529.605000", "163530.395000", "163531.182500", "163531.970000", "163532.760000", "163533.547500", "163534.335000", "163535.122500", "163535.912500", "163536.700000", "163537.487500", "163538.275000", "163539.065000", "163539.852500", "163540.640000", "163541.427500", "163542.217500", "163543.005000", "163543.792500", "163544.580000", "163545.370000", "163546.157500", "163546.945000", "163547.732500", "163548.522500", "163549.310000", "163550.097500", "163550.887500", "163551.675000", "163552.462500", "163553.250000", "163554.040000", "163554.827500", "163555.615000", "163556.402500", "163557.192500", "163557.980000", "163558.767500", "163559.555000", "163600.345000", "163601.132500", "163601.920000", "163602.707500", "163603.497500", "163604.285000", "163605.072500", "163605.862500", "163606.650000", "163607.437500", "163608.225000", "163609.015000", "163609.802500", "163610.590000", "163611.377500", "163612.167500", "163612.955000", "163613.742500", "163614.530000", "163615.320000", "163616.107500", "163616.895000", "163617.682500", "163618.472500", "163619.260000", "163620.047500", "163620.835000", "163621.625000", "163622.412500", "163623.200000", "163623.990000", "163624.777500", "163625.565000", "163626.352500", "163627.142500", "163627.930000", "163628.717500", "163629.505000", "163630.295000", "163631.082500", "163631.870000", "163632.657500", "163633.447500", "163634.235000", "163635.022500", "163635.810000", "163636.600000", "163637.387500", "163638.175000", "163638.962500", "163639.752500", "163640.540000", "163641.327500", "163642.117500", "163642.905000", "163643.692500", "163644.480000", "163645.270000", "163646.057500", "163646.845000", "163647.632500", "163648.422500", "163649.210000", "163649.997500", "163650.785000", "163651.575000", "163652.362500", "163653.150000", "163653.937500", "163654.727500", "163655.515000", "163656.302500", "163657.090000", "163657.880000", "163658.667500", "163659.455000", "163700.245000", "163701.032500", "163701.820000", "163702.607500", "163703.397500", "163704.185000", "163704.972500", "163705.760000", "163706.550000", "163707.337500", "163708.125000", "163708.912500", "163709.702500", "163710.490000", "163711.277500", "163712.065000", "163712.855000", "163713.642500", "163714.430000", "163715.217500", "163716.007500", "163716.795000", "163717.582500", "163718.372500", "163719.160000", "163719.947500", "163720.735000", "163721.525000", "163722.312500", "163723.100000", "163723.887500", "163724.677500", "163725.465000", "163726.252500", "163727.040000", "163727.830000", "163728.617500", "163729.405000", "163730.192500", "163730.982500", "163731.770000", "163732.557500", "163733.345000", "163734.135000", "163734.922500", "163735.710000", "163736.500000", "163737.287500", "163738.075000", "163738.862500", "163739.652500", "163740.440000", "163741.227500", "163742.015000", "163742.805000", "163743.592500", "163744.380000", "163745.167500", "163745.957500", "163746.745000", "163747.532500", "163748.320000", "163749.110000", "163749.897500", "163750.685000", "163751.472500", "163752.262500", "163753.050000", "163753.837500", "163754.627500", "163755.415000", "163756.202500", "163756.990000", "163757.780000", "163758.567500", "163759.355000", "163800.142500", "163800.932500", "163801.720000", "163802.507500", "163803.295000", "163804.085000", "163804.872500", "163805.660000", "163806.447500", "163807.237500", "163808.025000", "163808.812500", "163809.600000", "163810.390000", "163811.177500", "163811.965000", "163812.755000", "163813.542500", "163814.330000", "163815.117500", "163815.907500", "163816.695000", "163817.482500", "163818.270000", "163819.060000", "163819.847500", "163820.635000", "163821.422500", "163822.212500", "163823.000000", "163823.787500", "163824.575000", "163825.365000", "163826.152500", "163826.940000", "163827.727500", "163828.517500", "163829.305000", "163830.092500", "163830.882500", "163831.670000", "163832.457500", "163833.245000", "163834.035000", "163834.822500", "163835.610000", "163836.397500", "163837.187500", "163837.975000", "163838.762500", "163839.550000", "163840.340000", "163841.127500", "163841.915000", "163842.702500", "163843.492500", "163844.280000", "163845.067500", "163845.855000", "163846.645000", "163847.432500", "163848.220000", "163849.010000", "163849.797500"],
      "ContentTime": ["183125.703000", "183125.703000", "183125.718000", "183125.718000", "183125.718000", "183125.718000", "183125.718000", "183225.687000", "183225.687000", "183225.687000", "183225.687000", "183225.687000", "183225.687000", "183225.687000", "183225.703000", "183225.703000", "183225.703000", "183225.703000", "183225.703000", "183225.703000", "183225.703000", "183225.718000", "183225.718000", "183225.718000", "183225.718000", "183225.718000", "183225.718000", "183225.734000", "183225.734000", "183225.734000", "183225.734000", "183225.734000", "183225.750000", "183225.750000", "183225.750000", "183325.687000", "183325.687000", "183325.687000", "183325.687000", "183325.687000", "183325.687000", "183325.687000", "183325.703000", "183325.703000", "183325.703000", "183325.703000", "183325.703000", "183325.703000", "183325.703000", "183325.718000", "183325.718000", "183325.718000", "183325.718000", "183325.718000", "183325.718000", "183325.718000", "183325.734000", "183325.734000", "183325.734000", "183325.734000", "183325.734000", "183325.734000", "183325.734000", "183425.687000", "183425.687000", "183425.687000", "183425.687000", "183425.687000", "183425.687000", "183425.687000", "183425.703000", "183425.703000", "183425.703000", "183425.703000", "183425.703000", "183425.703000", "183425.718000", "183425.718000", "183425.718000", "183425.718000", "183425.718000", "183425.718000", "183425.718000", "183425.734000", "183425.734000", "183425.734000", "183425.734000", "183425.734000", "183425.734000", "183425.750000", "183425.750000", "183525.687000", "183525.687000", "183525.687000", "183525.687000", "183525.687000", "183525.687000", "183525.687000", "183525.703000", "183525.703000", "183525.703000", "183525.703000", "183525.703000", "183525.703000", "183525.703000", "183525.718000", "183525.718000", "183525.718000", "183525.718000", "183525.718000", "183525.718000", "183525.718000", "183525.734000", "183525.734000", "183525.734000", "183525.734000", "183525.734000", "183525.750000", "183525.750000", "183525.750000", "183625.687000", "183625.687000", "183625.687000", "183625.687000", "183625.687000", "183625.687000", "183625.687000", "183625.703000", "183625.703000", "183625.703000", "183625.703000", "183625.703000", "183625.703000", "183625.703000", "183625.718000", "183625.718000", "183625.718000", "183625.718000", "183625.718000", "183625.718000", "183625.718000", "183625.734000", "183625.734000", "183625.734000", "183625.734000", "183625.734000", "183625.734000", "183625.750000", "183725.687000", "183725.687000", "183725.687000", "183725.687000", "183725.687000", "183725.687000", "183725.703000", "183725.703000", "183725.703000", "183725.703000", "183725.703000", "183725.703000", "183725.703000", "183725.718000", "183725.718000", "183725.718000", "183725.718000", "183725.718000", "183725.718000", "183725.718000", "183725.734000", "183725.734000", "183725.734000", "183725.734000", "183725.734000", "183725.734000", "183725.734000", "183725.750000", "183825.687000", "183825.687000", "183825.687000", "183825.687000", "183825.687000", "183825.687000", "183825.687000", "183825.703000", "183825.703000", "183825.703000", "183825.703000", "183825.703000", "183825.703000", "183825.718000", "183825.718000", "183825.718000", "183825.718000", "183825.718000", "183825.734000", "183825.734000", "183825.734000", "183825.734000", "183825.734000", "183825.750000", "183825.750000", "183825.750000", "183825.750000", "183825.750000", "183925.687000", "183925.687000", "183925.687000", "183925.687000", "183925.687000", "183925.687000", "183925.687000", "183925.703000", "183925.703000", "183925.703000", "183925.703000", "183925.703000", "183925.703000", "183925.703000", "183925.718000", "183925.718000", "183925.718000", "183925.718000", "183925.718000", "183925.718000", "183925.718000", "183925.734000", "183925.734000", "183925.734000", "183925.734000", "183925.734000", "183925.734000", "183925.734000", "183925.734000", "184005.687000", "184005.687000", "184005.687000", "184005.687000", "184005.687000", "184005.687000", "184005.687000", "184005.703000", "184005.703000", "184005.703000", "184005.703000", "184005.703000", "184005.703000", "184005.703000", "184005.718000", "184005.718000", "184005.718000", "184005.718000", "184105.687000", "184105.687000", "184105.687000", "184105.687000", "184105.687000", "184105.687000", "184105.687000", "184105.703000", "184105.703000", "184105.703000", "184105.703000", "184105.703000", "184105.703000", "184105.703000", "184105.718000", "184105.718000", "184105.718000", "184105.718000", "184105.718000", "184105.734000", "184105.734000", "184105.734000", "184105.734000", "184105.734000", "184105.734000", "184105.734000", "184105.750000", "184105.750000", "184205.687000", "184205.687000", "184205.687000", "184205.687000", "184205.687000", "184205.687000", "184205.687000", "184205.703000", "184205.703000", "184205.703000", "184205.703000", "184205.703000", "184205.703000", "184205.703000", "184205.718000", "184205.718000", "184205.718000", "184205.718000", "184205.718000", "184205.718000", "184205.718000", "184205.734000", "184205.734000", "184205.734000", "184205.734000", "184205.734000", "184205.734000", "184205.734000", "184205.750000", "184305.687000", "184305.687000", "184305.687000", "184305.687000", "184305.687000", "184305.687000", "184305.687000", "184305.703000", "184305.703000", "184305.703000", "184305.703000", "184305.703000", "184305.703000", "184305.703000", "184305.718000", "184305.718000", "184305.718000", "184305.718000", "184305.718000", "184305.718000", "184305.718000", "184305.734000", "184305.734000", "184305.734000", "184305.734000", "184305.734000", "184305.734000", "184305.734000", "184405.687000", "184405.687000", "184405.687000", "184405.687000", "184405.687000", "184405.687000", "184405.687000", "184405.703000", "184405.703000", "184405.703000", "184405.703000", "184405.703000", "184405.703000", "184405.703000", "184405.718000", "184405.718000", "184405.718000", "184405.718000", "184405.718000", "184405.718000", "184405.718000", "184405.734000", "184405.734000", "184405.734000", "184405.734000", "184405.734000", "184405.734000", "184405.750000", "184505.687000", "184505.687000", "184505.687000", "184505.687000", "184505.687000", "184505.687000", "184505.687000", "184505.703000", "184505.703000", "184505.703000", "184505.703000", "184505.703000", "184505.703000", "184505.703000", "184505.718000", "184505.718000", "184505.718000", "184505.718000", "184505.718000", "184505.718000", "184505.718000", "184505.734000", "184505.734000", "184505.734000", "184505.734000", "184505.734000", "184505.734000", "184505.734000", "184605.687000", "184605.687000", "184605.687000", "184605.687000", "184605.687000", "184605.687000", "184605.687000", "184605.703000", "184605.703000", "184605.703000", "184605.703000", "184605.703000", "184605.703000", "184605.703000", "184605.718000", "184605.718000", "184605.718000", "184605.718000", "184605.718000", "184605.718000", "184605.734000", "184605.734000", "184605.734000", "184605.734000", "184605.734000", "184605.734000", "184605.734000", "184605.750000", "184605.750000", "184705.687000", "184705.687000", "184705.687000", "184705.687000", "184705.687000", "184705.687000", "184705.687000", "184705.703000", "184705.703000", "184705.703000", "184705.703000", "184705.703000", "184705.703000", "184705.703000", "184705.718000", "184705.718000", "184705.718000", "184705.718000", "184705.718000", "184705.718000", "184705.718000", "184705.734000", "184705.734000", "184705.734000", "184705.734000", "184705.734000", "184705.734000", "184705.734000", "184805.687000", "184805.687000", "184805.687000", "184805.687000", "184805.687000", "184805.687000", "184805.687000", "184805.703000", "184805.703000", "184805.703000", "184805.703000", "184805.703000", "184805.703000", "184805.703000", "184805.718000", "184805.718000", "184805.718000", "184805.718000", "184805.718000", "184805.718000", "184805.718000", "184805.734000", "184805.734000", "184805.734000", "184805.734000", "184805.734000", "184805.734000", "184805.734000", "184905.687000", "184905.687000", "184905.687000", "184905.687000", "184905.687000", "184905.687000", "184905.687000", "184905.703000", "184905.703000", "184905.703000", "184905.703000", "184905.703000", "184905.703000", "184905.718000", "184905.718000", "184905.718000", "184905.718000", "184905.718000", "184905.718000", "184905.718000", "184905.734000", "184905.734000", "184905.734000", "184905.734000", "184905.734000", "184905.734000", "184905.734000", "184905.750000", "185005.687000", "185005.687000", "185005.687000", "185005.687000", "185005.687000", "185005.687000", "185005.687000", "185005.703000", "185005.703000", "185005.703000", "185005.703000", "185005.703000", "185005.703000", "185005.703000", "185005.718000", "185005.718000", "185005.718000", "185005.718000", "185005.718000", "185005.718000", "185005.718000", "185005.734000", "185005.734000", "185005.734000", "185005.734000", "185005.734000", "185005.734000", "185005.750000", "185105.687000", "185105.687000", "185105.687000", "185105.687000", "185105.687000", "185105.687000", "185105.687000", "185105.703000", "185105.703000", "185105.703000", "185105.703000", "185105.703000", "185105.703000", "185105.703000", "185105.718000", "185105.718000", "185105.718000", "185105.718000", "185105.718000", "185105.718000", "185105.718000", "185105.734000", "185105.734000", "185105.734000", "185105.734000", "185105.734000", "185105.734000", "185105.750000", "185105.750000", "185145.359000", "185145.359000", "185145.359000", "185145.359000", "185145.359000", "185145.375000", "185145.375000", "185145.375000", "185145.375000", "185145.375000", "185145.375000", "185145.375000", "185145.390000", "185145.390000", "185145.390000", "185145.390000", "185145.390000", "185145.390000", "185145.390000"],
      "DataSetTrailingPadding": [
        "\u0000\u0000\u0000\u0000\u0000\u0000\u0000\u0000\u0000\u0000\u0000\u0000\u0000\u0000\u0000\u0000\u0000\u0000\u0000\u0000\u0000\u0000\u0000\u0000\u0000\u0000\u0000\u0000\u0000\u0000\u0000\u0000\u0000\u0000\u0000\u0000\u0000\u0000\u0000\u0000\u0000\u0000\u0000\u0000\u0000\u0000\u0000\u0000\u0000\u0000\u0000\u0000\u0000\u0000\u0000\u0000\u0000\u0000\u0000\u0000\u0000\u0000\u0000\u0000\u0000\u0000\u0000\u0000\u0000\u0000\u0000\u0000\u0000\u0000\u0000\u0000\u0000\u0000\u0000\u0000\u0000\u0000\u0000\u0000\u0000\u0000\u0000\u0000\u0000\u0000\u0000\u0000\u0000\u0000\u0000\u0000\u0000\u0000\u0000\u0000\u0000\u0000\u0000\u0000\u0000\u0000\u0000\u0000\u0000\u0000\u0000\u0000\u0000\u0000\u0000\u0000\u0000\u0000\u0000\u0000\u0000\u0000\u0000\u0000\u0000\u0000\u0000\u0000\u0000\u0000\u0000\u0000\u0000\u0000\u0000\u0000\u0000\u0000\u0000\u0000\u0000\u0000\u0000\u0000\u0000\u0000\u0000\u0000\u0000\u0000\u0000\u0000\u0000\u0000\u0000\u0000\u0000\u0000\u0000\u0000\u0000\u0000\u0000\u0000\u0000\u0000\u0000\u0000\u0000\u0000\u0000\u0000\u0000\u0000\u0000\u0000\u0000\u0000\u0000\u0000\u0000\u0000\u0000\u0000\u0000\u0000\u0000\u0000\u0000\u0000\u0000\u0000\u0000\u0000\u0000\u0000\u0000\u0000\u0000\u0000\u0000\u0000\u0000\u0000\u0000\u0000\u0000\u0000\u0000\u0000\u0000\u0000\u0000\u0000\u0000\u0000\u0000\u0000\u0000\u0000\u0000\u0000\u0000\u0000\u0000\u0000\u0000\u0000\u0000\u0000\u0000\u0000\u0000\u0000\u0000\u0000\u0000\u0000\u0000\u0000\u0000\u0000\u0000\u0000\u0000\u0000\u0000\u0000\u0000\u0000\u0000\u0000\u0000\u0000\u0000\u0000\u0000\u0000\u0000\u0000\u0000\u0000\u0000\u0000\u0000\u0000\u0000\u0000\u0000\u0000\u0000\u0000\u0000\u0000\u0000\u0000\u0000\u0000\u0000\u0000",
