{
  "AcquisitionMatrixPE": 104,
  "AcquisitionNumber": 1,
  "AcquisitionTime": "16:16:35.727500",
  "BandwidthPerPixelPhaseEncode": 13.935,
  "BaseResolution": 104,
  "CoilString": "C:HEA;HEP",
  "ConversionSoftware": "dcm2niix",
  "ConversionSoftwareVersion": "v1.0.20210317",
  "DerivedVendorReportedEchoSpacing": 0.000690017,
  "DeviceSerialNumber": "35450",
  "DwellTime": 2.5e-06,
  "EchoTime": 0.0348,
  "EffectiveEchoSpacing": 0.000690017,
  "FlipAngle": 55,
  "ImageComments": "Unaliased MB8/PE3",
  "ImageOrientationPatientDICOM": [0.999455, 0.0011516, 0.0330027, -2.49611e-08, 0.999392, -0.0348722],
  "ImageType": [
    "ORIGINAL",
    "PRIMARY",
    "M",
    "MB",
    "ND",
    "MOSAIC"
],
  "ImagingFrequency": 123.235,
  "InPlanePhaseEncodingDirectionDICOM": "COL",
  "InstitutionAddress": "Univeristy Ave. 197,Newark,North East,US,07102-1814",
  "InstitutionName": "RUBIC",
  "InstitutionalDepartmentName": "Department",
  "MRAcquisitionType": "2D",
  "MagneticFieldStrength": 3,
  "Manufacturer": "Siemens",
  "ManufacturersModelName": "TrioTim",
  "Modality": "MR",
  "MultibandAccelerationFactor": 8,
  "PartialFourier": 0.875,
  "PatientPosition": "HFS",
  "PercentPhaseFOV": 100,
  "PercentSampling": 100,
  "PhaseEncodingDirection": "j-",
  "PhaseEncodingSteps": 91,
  "PhaseResolution": 1,
  "PixelBandwidth": 1923,
  "ProcedureStepDescription": "Cole^Michael",
  "ProtocolName": "cmrr_mbep2d_bold_2mm_MB8_Task_8x",
  "PulseSequenceDetails": "%CustomerSeq%\\cmrr_mbep2d_bold",
  "ReceiveCoilName": "32Ch_Head",
  "ReconMatrixPE": 104,
  "RepetitionTime": 0.785,
  "SAR": 0.122387,
  "ScanOptions": "PFP\\FS",
  "ScanningSequence": "EP",
  "SequenceName": "epfid2d1_104",
  "SequenceVariant": "SK\\SS",
  "SeriesDescription": "cmrr_mbep2d_bold_2mm_MB8_Task_8x",
  "SeriesNumber": 21,
  "ShimSetting": [2131, -432, -7335, 727, -145, -395, 180, -29],
  "SliceThickness": 2,
  "SliceTiming": [0, 0.4375, 0.0875, 0.525, 0.175, 0.6125, 0.2625, 0.7, 0.35, 0, 0.4375, 0.0875, 0.525, 0.175, 0.6125, 0.2625, 0.7, 0.35, 0, 0.4375, 0.0875, 0.525, 0.175, 0.6125, 0.2625, 0.7, 0.35, 0, 0.4375, 0.0875, 0.525, 0.175, 0.6125, 0.2625, 0.7, 0.35, 0, 0.4375, 0.0875, 0.525, 0.175, 0.6125, 0.2625, 0.7, 0.35, 0, 0.4375, 0.0875, 0.525, 0.175, 0.6125, 0.2625, 0.7, 0.35, 0, 0.4375, 0.0875, 0.525, 0.175, 0.6125, 0.2625, 0.7, 0.35, 0, 0.4375, 0.0875, 0.525, 0.175, 0.6125, 0.2625, 0.7, 0.35],
  "SoftwareVersions": "syngo MR B19",
  "SpacingBetweenSlices": 2,
  "StationName": "MRC35450",
  "TaskName": "cpro",
  "TotalReadoutTime": 0.0710717,
  "TxRefAmp": 322.289,
  "dcmmeta_affine": [
    [-1.9989092350006104, -4.9922274314440074e-08, 0.06604553759098053, 101.6417236328125],
    [-0.0023032010067254305, 1.9987835884094238, -0.06970629841089249, -82.3194351196289],
    [0.06600537151098251, 0.06974433362483978, 1.997693419456482, -97.9209213256836],
    [0.0, 0.0, 0.0, 1.0]
],
  "dcmmeta_reorient_transform": [
    [0.0, -1.0, 0.0, 103.0],
    [1.0, 0.0, 0.0, 0.0],
    [0.0, 0.0, 1.0, 0.0],
    [0.0, 0.0, 0.0, 1.0]
],
  "dcmmeta_shape": [104, 104, 72, 581],
  "dcmmeta_slice_dim": 2,
  "dcmmeta_version": 0.6,
  "global": {
    "const": {
      "AcquisitionMatrix": [104, 0, 0, 104],
      "AngioFlag": "N",
      "BitsAllocated": 16,
      "BitsStored": 12,
      "Columns": 936,
      "EchoNumbers": 1,
      "EchoTime": 34.8,
      "EchoTrainLength": 1,
      "FlipAngle": 55.0,
      "HighBit": 11,
      "ImageOrientationPatient": [0.99945459959621, 0.00115160049858, 0.0330026841677, -2.4961138e-08, 0.9993917810065, -0.034872167364],
      "ImagePositionPatient": [-933.18792789381, -956.00736340479, -89.181842500236],
      "ImageType": [
        "ORIGINAL",
        "PRIMARY",
        "M",
        "MB",
        "ND",
        "MOSAIC"
],
      "ImagedNucleus": "1H",
      "ImagingFrequency": 123.234906,
      "InPlanePhaseEncodingDirection": "COL",
      "MRAcquisitionType": "2D",
      "MagneticFieldStrength": 3.0,
      "Manufacturer": "SIEMENS",
      "ManufacturerModelName": "TrioTim",
      "Modality": "MR",
      "NumberOfAverages": 1.0,
      "NumberOfPhaseEncodingSteps": 91,
      "PercentPhaseFieldOfView": 100.0,
      "PercentSampling": 100.0,
      "PerformedProcedureStepStartTime": "145138.734000",
      "PhotometricInterpretation": "MONOCHROME2",
      "PixelBandwidth": 1923.0,
      "PixelRepresentation": 0,
      "PixelSpacing": [2.0, 2.0],
      "ProtocolName": "cmrr_mbep2d_bold_2mm_MB8_Task_8x",
      "RepetitionTime": 785.0,
      "Rows": 936,
      "SAR": 0.12238748232834,
      "SamplesPerPixel": 1,
      "ScanOptions": [
        "PFP",
        "FS"
],
      "ScanningSequence": "EP",
      "SequenceName": "epfid2d1_104",
      "SequenceVariant": [
        "SK",
        "SS"
],
      "SeriesDescription": "cmrr_mbep2d_bold_2mm_MB8_Task_8x",
      "SeriesNumber": 21,
      "SeriesTime": "173832.531000",
      "SliceLocation": -91.582405172427,
      "SliceThickness": 2.0,
      "SmallestImagePixelValue": 0,
      "SoftwareVersions": "syngo MR B19",
      "SpacingBetweenSlices": 2.0000000266374,
      "SpecificCharacterSet": "ISO_IR 100",
      "StudyID": "1",
      "StudyTime": "145138.703000",
      "TransmitCoilName": "Body",
      "VariableFlipAngleFlag": "N",
      "WindowCenterWidthExplanation": "Algo1",
      "dBdt": 0.0},
    "slices": {}
  },
  "time": {
    "samples": {
      "AcquisitionNumber": [1, 2, 3, 4, 5, 6, 7, 8, 9, 10, 11, 12, 13, 14, 15, 16, 17, 18, 19, 20, 21, 22, 23, 24, 25, 26, 27, 28, 29, 30, 31, 32, 33, 34, 35, 36, 37, 38, 39, 40, 41, 42, 43, 44, 45, 46, 47, 48, 49, 50, 51, 52, 53, 54, 55, 56, 57, 58, 59, 60, 61, 62, 63, 64, 65, 66, 67, 68, 69, 70, 71, 72, 73, 74, 75, 76, 77, 78, 79, 80, 81, 82, 83, 84, 85, 86, 87, 88, 89, 90, 91, 92, 93, 94, 95, 96, 97, 98, 99, 100, 101, 102, 103, 104, 105, 106, 107, 108, 109, 110, 111, 112, 113, 114, 115, 116, 117, 118, 119, 120, 121, 122, 123, 124, 125, 126, 127, 128, 129, 130, 131, 132, 133, 134, 135, 136, 137, 138, 139, 140, 141, 142, 143, 144, 145, 146, 147, 148, 149, 150, 151, 152, 153, 154, 155, 156, 157, 158, 159, 160, 161, 162, 163, 164, 165, 166, 167, 168, 169, 170, 171, 172, 173, 174, 175, 176, 177, 178, 179, 180, 181, 182, 183, 184, 185, 186, 187, 188, 189, 190, 191, 192, 193, 194, 195, 196, 197, 198, 199, 200, 201, 202, 203, 204, 205, 206, 207, 208, 209, 210, 211, 212, 213, 214, 215, 216, 217, 218, 219, 220, 221, 222, 223, 224, 225, 226, 227, 228, 229, 230, 231, 232, 233, 234, 235, 236, 237, 238, 239, 240, 241, 242, 243, 244, 245, 246, 247, 248, 249, 250, 251, 252, 253, 254, 255, 256, 257, 258, 259, 260, 261, 262, 263, 264, 265, 266, 267, 268, 269, 270, 271, 272, 273, 274, 275, 276, 277, 278, 279, 280, 281, 282, 283, 284, 285, 286, 287, 288, 289, 290, 291, 292, 293, 294, 295, 296, 297, 298, 299, 300, 301, 302, 303, 304, 305, 306, 307, 308, 309, 310, 311, 312, 313, 314, 315, 316, 317, 318, 319, 320, 321, 322, 323, 324, 325, 326, 327, 328, 329, 330, 331, 332, 333, 334, 335, 336, 337, 338, 339, 340, 341, 342, 343, 344, 345, 346, 347, 348, 349, 350, 351, 352, 353, 354, 355, 356, 357, 358, 359, 360, 361, 362, 363, 364, 365, 366, 367, 368, 369, 370, 371, 372, 373, 374, 375, 376, 377, 378, 379, 380, 381, 382, 383, 384, 385, 386, 387, 388, 389, 390, 391, 392, 393, 394, 395, 396, 397, 398, 399, 400, 401, 402, 403, 404, 405, 406, 407, 408, 409, 410, 411, 412, 413, 414, 415, 416, 417, 418, 419, 420, 421, 422, 423, 424, 425, 426, 427, 428, 429, 430, 431, 432, 433, 434, 435, 436, 437, 438, 439, 440, 441, 442, 443, 444, 445, 446, 447, 448, 449, 450, 451, 452, 453, 454, 455, 456, 457, 458, 459, 460, 461, 462, 463, 464, 465, 466, 467, 468, 469, 470, 471, 472, 473, 474, 475, 476, 477, 478, 479, 480, 481, 482, 483, 484, 485, 486, 487, 488, 489, 490, 491, 492, 493, 494, 495, 496, 497, 498, 499, 500, 501, 502, 503, 504, 505, 506, 507, 508, 509, 510, 511, 512, 513, 514, 515, 516, 517, 518, 519, 520, 521, 522, 523, 524, 525, 526, 527, 528, 529, 530, 531, 532, 533, 534, 535, 536, 537, 538, 539, 540, 541, 542, 543, 544, 545, 546, 547, 548, 549, 550, 551, 552, 553, 554, 555, 556, 557, 558, 559, 560, 561, 562, 563, 564, 565, 566, 567, 568, 569, 570, 571, 572, 573, 574, 575, 576, 577, 578, 579, 580, 581],
      "AcquisitionTime": ["161635.727500", "161636.515000", "161637.302500", "161638.092500", "161638.880000", "161639.667500", "161640.455000", "161641.245000", "161642.032500", "161642.820000", "161643.607500", "161644.397500", "161645.185000", "161645.972500", "161646.760000", "161647.550000", "161648.337500", "161649.125000", "161649.912500", "161650.702500", "161651.490000", "161652.277500", "161653.067500", "161653.855000", "161654.642500", "161655.430000", "161656.220000", "161657.007500", "161657.795000", "161658.582500", "161659.372500", "161700.160000", "161700.947500", "161701.735000", "161702.525000", "161703.312500", "161704.100000", "161704.887500", "161705.677500", "161706.465000", "161707.252500", "161708.040000", "161708.830000", "161709.617500", "161710.405000", "161711.195000", "161711.982500", "161712.770000", "161713.557500", "161714.347500", "161715.135000", "161715.922500", "161716.710000", "161717.500000", "161718.287500", "161719.075000", "161719.862500", "161720.652500", "161721.440000", "161722.227500", "161723.015000", "161723.805000", "161724.592500", "161725.380000", "161726.167500", "161726.957500", "161727.745000", "161728.532500", "161729.322500", "161730.110000", "161730.897500", "161731.685000", "161732.475000", "161733.262500", "161734.050000", "161734.837500", "161735.627500", "161736.415000", "161737.202500", "161737.990000", "161738.780000", "161739.567500", "161740.355000", "161741.142500", "161741.932500", "161742.720000", "161743.507500", "161744.295000", "161745.085000", "161745.872500", "161746.660000", "161747.450000", "161748.237500", "161749.025000", "161749.812500", "161750.602500", "161751.390000", "161752.177500", "161752.965000", "161753.755000", "161754.542500", "161755.330000", "161756.117500", "161756.907500", "161757.695000", "161758.482500", "161759.270000", "161800.060000", "161800.847500", "161801.635000", "161802.422500", "161803.212500", "161804.000000", "161804.787500", "161805.577500", "161806.365000", "161807.152500", "161807.940000", "161808.730000", "161809.517500", "161810.305000", "161811.092500", "161811.882500", "161812.670000", "161813.457500", "161814.245000", "161815.035000", "161815.822500", "161816.610000", "161817.397500", "161818.187500", "161818.975000", "161819.762500", "161820.550000", "161821.340000", "161822.127500", "161822.915000", "161823.705000", "161824.492500", "161825.280000", "161826.067500", "161826.857500", "161827.645000", "161828.432500", "161829.220000", "161830.010000", "161830.797500", "161831.585000", "161832.372500", "161833.162500", "161833.950000", "161834.737500", "161835.525000", "161836.315000", "161837.102500", "161837.890000", "161838.677500", "161839.467500", "161840.255000", "161841.042500", "161841.832500", "161842.620000", "161843.407500", "161844.195000", "161844.985000", "161845.772500", "161846.560000", "161847.347500", "161848.137500", "161848.925000", "161849.712500", "161850.500000", "161851.290000", "161852.077500", "161852.865000", "161853.652500", "161854.442500", "161855.230000", "161856.017500", "161856.805000", "161857.595000", "161858.382500", "161859.170000", "161859.960000", "161900.747500", "161901.535000", "161902.322500", "161903.112500", "161903.900000", "161904.687500", "161905.475000", "161906.265000", "161907.052500", "161907.840000", "161908.627500", "161909.417500", "161910.205000", "161910.992500", "161911.780000", "161912.570000", "161913.357500", "161914.145000", "161914.932500", "161915.722500", "161916.510000", "161917.297500", "161918.087500", "161918.875000", "161919.662500", "161920.450000", "161921.240000", "161922.027500", "161922.815000", "161923.602500", "161924.392500", "161925.180000", "161925.967500", "161926.755000", "161927.545000", "161928.332500", "161929.120000", "161929.907500", "161930.697500", "161931.485000", "161932.272500", "161933.060000", "161933.850000", "161934.637500", "161935.425000", "161936.215000", "161937.002500", "161937.790000", "161938.577500", "161939.367500", "161940.155000", "161940.942500", "161941.730000", "161942.520000", "161943.307500", "161944.095000", "161944.882500", "161945.672500", "161946.460000", "161947.247500", "161948.035000", "161948.825000", "161949.612500", "161950.400000", "161951.187500", "161951.977500", "161952.765000", "161953.552500", "161954.342500", "161955.130000", "161955.917500", "161956.705000", "161957.495000", "161958.282500", "161959.070000", "161959.857500", "162000.647500", "162001.435000", "162002.222500", "162003.010000", "162003.800000", "162004.587500", "162005.375000", "162006.162500", "162006.952500", "162007.740000", "162008.527500", "162009.317500", "162010.105000", "162010.892500", "162011.680000", "162012.470000", "162013.257500", "162014.045000", "162014.832500", "162015.622500", "162016.410000", "162017.197500", "162017.985000", "162018.775000", "162019.562500", "162020.350000", "162021.137500", "162021.927500", "162022.715000", "162023.502500", "162024.290000", "162025.080000", "162025.867500", "162026.655000", "162027.445000", "162028.232500", "162029.020000", "162029.807500", "162030.597500", "162031.385000", "162032.172500", "162032.960000", "162033.750000", "162034.537500", "162035.325000", "162036.112500", "162036.902500", "162037.690000", "162038.477500", "162039.265000", "162040.055000", "162040.842500", "162041.630000", "162042.417500", "162043.207500", "162043.995000", "162044.782500", "162045.572500", "162046.360000", "162047.147500", "162047.935000", "162048.725000", "162049.512500", "162050.300000", "162051.087500", "162051.877500", "162052.665000", "162053.452500", "162054.240000", "162055.030000", "162055.817500", "162056.605000", "162057.392500", "162058.182500", "162058.970000", "162059.757500", "162100.545000", "162101.335000", "162102.122500", "162102.910000", "162103.700000", "162104.487500", "162105.275000", "162106.062500", "162106.852500", "162107.640000", "162108.427500", "162109.215000", "162110.005000", "162110.792500", "162111.580000", "162112.367500", "162113.157500", "162113.945000", "162114.732500", "162115.520000", "162116.310000", "162117.097500", "162117.885000", "162118.672500", "162119.462500", "162120.250000", "162121.037500", "162121.827500", "162122.615000", "162123.402500", "162124.190000", "162124.980000", "162125.767500", "162126.555000", "162127.342500", "162128.132500", "162128.920000", "162129.707500", "162130.495000", "162131.285000", "162132.072500", "162132.860000", "162133.647500", "162134.437500", "162135.225000", "162136.012500", "162136.800000", "162137.590000", "162138.377500", "162139.165000", "162139.955000", "162140.742500", "162141.530000", "162142.317500", "162143.107500", "162143.895000", "162144.682500", "162145.470000", "162146.260000", "162147.047500", "162147.835000", "162148.622500", "162149.412500", "162150.200000", "162150.987500", "162151.775000", "162152.565000", "162153.352500", "162154.140000", "162154.927500", "162155.717500", "162156.505000", "162157.292500", "162158.082500", "162158.870000", "162159.657500", "162200.445000", "162201.235000", "162202.022500", "162202.810000", "162203.597500", "162204.387500", "162205.175000", "162205.962500", "162206.750000", "162207.540000", "162208.327500", "162209.115000", "162209.902500", "162210.692500", "162211.480000", "162212.267500", "162213.055000", "162213.845000", "162214.632500", "162215.420000", "162216.210000", "162216.997500", "162217.785000", "162218.572500", "162219.362500", "162220.150000", "162220.937500", "162221.725000", "162222.515000", "162223.302500", "162224.090000", "162224.877500", "162225.667500", "162226.455000", "162227.242500", "162228.030000", "162228.820000", "162229.607500", "162230.395000", "162231.182500", "162231.972500", "162232.760000", "162233.547500", "162234.337500", "162235.125000", "162235.912500", "162236.700000", "162237.490000", "162238.277500", "162239.065000", "162239.852500", "162240.642500", "162241.430000", "162242.217500", "162243.005000", "162243.795000", "162244.582500", "162245.370000", "162246.157500", "162246.947500", "162247.735000", "162248.522500", "162249.310000", "162250.100000", "162250.887500", "162251.675000", "162252.465000", "162253.252500", "162254.040000", "162254.827500", "162255.617500", "162256.405000", "162257.192500", "162257.980000", "162258.770000", "162259.557500", "162300.345000", "162301.132500", "162301.922500", "162302.710000", "162303.497500", "162304.285000", "162305.075000", "162305.862500", "162306.650000", "162307.437500", "162308.227500", "162309.015000", "162309.802500", "162310.592500", "162311.380000", "162312.167500", "162312.955000", "162313.745000", "162314.532500", "162315.320000", "162316.107500", "162316.897500", "162317.685000", "162318.472500", "162319.260000", "162320.050000", "162320.837500", "162321.625000", "162322.412500", "162323.202500", "162323.990000", "162324.777500", "162325.567500", "162326.355000", "162327.142500", "162327.930000", "162328.720000", "162329.507500", "162330.295000", "162331.082500", "162331.872500", "162332.660000", "162333.447500", "162334.235000", "162335.025000", "162335.812500", "162336.600000", "162337.387500", "162338.177500", "162338.965000", "162339.752500", "162340.540000", "162341.330000", "162342.117500", "162342.905000", "162343.695000", "162344.482500", "162345.270000", "162346.057500", "162346.847500", "162347.635000", "162348.422500", "162349.210000", "162350.000000", "162350.787500", "162351.575000", "162352.362500", "162353.152500", "162353.940000", "162354.727500", "162355.515000", "162356.305000", "162357.092500", "162357.880000", "162358.667500", "162359.457500", "162400.245000", "162401.032500", "162401.822500", "162402.610000", "162403.397500", "162404.185000", "162404.975000", "162405.762500", "162406.550000", "162407.337500", "162408.127500", "162408.915000", "162409.702500", "162410.490000", "162411.280000", "162412.067500", "162412.855000"],
      "ContentTime": ["173832.531000", "173832.546000", "173832.546000", "173832.546000", "173832.546000", "173932.500000", "173932.500000", "173932.515000", "173932.515000", "173932.515000", "173932.515000", "173932.515000", "173932.515000", "173932.515000", "173932.531000", "173932.531000", "173932.531000", "173932.531000", "173932.531000", "173932.531000", "173932.531000", "173932.546000", "173932.546000", "173932.546000", "173932.546000", "173932.546000", "173932.546000", "173932.562000", "173932.562000", "173932.562000", "173932.562000", "173932.562000", "173932.562000", "173932.562000", "174032.500000", "174032.500000", "174032.515000", "174032.515000", "174032.515000", "174032.515000", "174032.515000", "174032.515000", "174032.515000", "174032.531000", "174032.531000", "174032.531000", "174032.531000", "174032.531000", "174032.531000", "174032.531000", "174032.546000", "174032.546000", "174032.546000", "174032.546000", "174032.546000", "174032.546000", "174032.546000", "174032.562000", "174032.562000", "174032.562000", "174032.562000", "174032.562000", "174132.500000", "174132.500000", "174132.515000", "174132.515000", "174132.515000", "174132.515000", "174132.515000", "174132.515000", "174132.515000", "174132.531000", "174132.531000", "174132.531000", "174132.531000", "174132.531000", "174132.531000", "174132.531000", "174132.546000", "174132.546000", "174132.546000", "174132.546000", "174132.546000", "174132.546000", "174132.546000", "174132.562000", "174132.562000", "174132.562000", "174132.562000", "174132.562000", "174232.500000", "174232.515000", "174232.515000", "174232.515000", "174232.515000", "174232.515000", "174232.515000", "174232.515000", "174232.531000", "174232.531000", "174232.546000", "174232.546000", "174232.546000", "174232.546000", "174232.546000", "174232.546000", "174232.546000", "174232.562000", "174232.562000", "174232.562000", "174232.562000", "174232.562000", "174232.578000", "174232.578000", "174232.578000", "174232.578000", "174232.578000", "174232.578000", "174332.500000", "174332.500000", "174332.515000", "174332.515000", "174332.515000", "174332.515000", "174332.515000", "174332.515000", "174332.531000", "174332.531000", "174332.531000", "174332.531000", "174332.531000", "174332.531000", "174332.531000", "174332.546000", "174332.546000", "174332.546000", "174332.546000", "174332.546000", "174332.546000", "174332.562000", "174332.562000", "174332.562000", "174332.562000", "174332.562000", "174332.562000", "174332.562000", "174412.500000", "174412.500000", "174412.515000", "174412.515000", "174412.515000", "174412.515000", "174412.515000", "174412.515000", "174412.515000", "174412.531000", "174412.531000", "174412.531000", "174412.531000", "174412.531000", "174412.531000", "174412.531000", "174412.546000", "174412.546000", "174412.546000", "174512.500000", "174512.500000", "174512.515000", "174512.515000", "174512.515000", "174512.515000", "174512.515000", "174512.515000", "174512.515000", "174512.531000", "174512.531000", "174512.531000", "174512.531000", "174512.531000", "174512.546000", "174512.546000", "174512.546000", "174512.546000", "174512.546000", "174512.546000", "174512.562000", "174512.562000", "174512.562000", "174512.562000", "174512.562000", "174512.578000", "174512.578000", "174512.578000", "174612.500000", "174612.500000", "174612.515000", "174612.515000", "174612.515000", "174612.515000", "174612.515000", "174612.515000", "174612.531000", "174612.531000", "174612.531000", "174612.531000", "174612.531000", "174612.531000", "174612.531000", "174612.546000", "174612.546000", "174612.546000", "174612.546000", "174612.546000", "174612.546000", "174612.546000", "174612.562000", "174612.562000", "174612.562000", "174612.562000", "174612.562000", "174612.578000", "174612.578000", "174712.500000", "174712.500000", "174712.515000", "174712.515000", "174712.515000", "174712.515000", "174712.515000", "174712.515000", "174712.515000", "174712.531000", "174712.531000", "174712.531000", "174712.531000", "174712.531000", "174712.531000", "174712.546000", "174712.546000", "174712.546000", "174712.546000", "174712.546000", "174712.546000", "174712.546000", "174712.562000", "174712.562000", "174712.562000", "174712.562000", "174712.562000", "174712.562000", "174812.500000", "174812.500000", "174812.515000", "174812.515000", "174812.515000", "174812.515000", "174812.515000", "174812.515000", "174812.515000", "174812.531000", "174812.531000", "174812.531000", "174812.531000", "174812.531000", "174812.531000", "174812.546000", "174812.546000", "174812.546000", "174812.546000", "174812.546000", "174812.546000", "174812.546000", "174812.562000", "174812.562000", "174812.562000", "174812.562000", "174812.562000", "174812.562000", "174912.500000", "174912.500000", "174912.515000", "174912.515000", "174912.515000", "174912.515000", "174912.515000", "174912.515000", "174912.515000", "174912.531000", "174912.531000", "174912.531000", "174912.531000", "174912.531000", "174912.531000", "174912.546000", "174912.546000", "174912.546000", "174912.546000", "174912.546000", "174912.546000", "174912.546000", "174912.562000", "174912.562000", "174912.562000", "174912.562000", "174912.562000", "174912.562000", "174912.578000", "175012.500000", "175012.500000", "175012.515000", "175012.515000", "175012.515000", "175012.515000", "175012.515000", "175012.515000", "175012.515000", "175012.531000", "175012.531000", "175012.531000", "175012.531000", "175012.531000", "175012.531000", "175012.531000", "175012.546000", "175012.546000", "175012.546000", "175012.546000", "175012.546000", "175012.546000", "175012.562000", "175012.562000", "175012.562000", "175012.562000", "175012.562000", "175012.562000", "175112.500000", "175112.500000", "175112.515000", "175112.531000", "175112.531000", "175112.531000", "175112.531000", "175112.531000", "175112.531000", "175112.546000", "175112.546000", "175112.546000", "175112.546000", "175112.546000", "175112.546000", "175112.546000", "175112.562000", "175112.562000", "175112.562000", "175112.562000", "175112.562000", "175112.562000", "175112.562000", "175112.578000", "175112.578000", "175112.578000", "175112.578000", "175112.578000", "175212.500000", "175212.500000", "175212.515000", "175212.515000", "175212.515000", "175212.515000", "175212.515000", "175212.515000", "175212.515000", "175212.531000", "175212.531000", "175212.531000", "175212.531000", "175212.531000", "175212.546000", "175212.546000", "175212.546000", "175212.546000", "175212.546000", "175212.546000", "175212.546000", "175212.562000", "175212.562000", "175212.562000", "175212.562000", "175212.562000", "175212.562000", "175212.562000", "175312.500000", "175312.500000", "175312.515000", "175312.515000", "175312.515000", "175312.515000", "175312.515000", "175312.531000", "175312.531000", "175312.531000", "175312.531000", "175312.531000", "175312.531000", "175312.531000", "175312.546000", "175312.546000", "175312.546000", "175312.546000", "175312.546000", "175312.546000", "175312.546000", "175312.562000", "175312.562000", "175312.562000", "175312.562000", "175312.562000", "175312.562000", "175312.562000", "175312.578000", "175412.500000", "175412.500000", "175412.515000", "175412.515000", "175412.515000", "175412.515000", "175412.515000", "175412.515000", "175412.515000", "175412.531000", "175412.531000", "175412.531000", "175412.531000", "175412.531000", "175412.531000", "175412.531000", "175412.546000", "175412.546000", "175412.546000", "175412.546000", "175412.546000", "175412.546000", "175412.562000", "175412.562000", "175412.562000", "175412.562000", "175412.562000", "175412.578000", "175512.500000", "175512.500000", "175512.515000", "175512.515000", "175512.515000", "175512.515000", "175512.515000", "175512.515000", "175512.515000", "175512.531000", "175512.531000", "175512.531000", "175512.531000", "175512.531000", "175512.531000", "175512.531000", "175512.546000", "175512.546000", "175512.546000", "175512.546000", "175512.546000", "175512.546000", "175512.562000", "175512.562000", "175512.562000", "175512.562000", "175512.562000", "175512.562000", "175612.500000", "175612.500000", "175612.515000", "175612.515000", "175612.515000", "175612.515000", "175612.515000", "175612.515000", "175612.515000", "175612.531000", "175612.531000", "175612.531000", "175612.531000", "175612.531000", "175612.531000", "175612.546000", "175612.546000", "175612.546000", "175612.546000", "175612.546000", "175612.562000", "175612.562000", "175612.562000", "175612.562000", "175612.562000", "175612.562000", "175612.562000", "175612.578000", "175712.500000", "175712.500000", "175712.515000", "175712.515000", "175712.515000", "175712.515000", "175712.515000", "175712.515000", "175712.515000", "175712.531000", "175712.531000", "175712.531000", "175712.531000", "175712.531000", "175712.531000", "175712.531000", "175712.546000", "175712.546000", "175712.546000", "175712.546000", "175712.546000", "175712.562000", "175712.562000", "175712.562000", "175712.578000", "175712.578000", "175712.578000", "175712.578000", "175812.500000", "175812.500000", "175812.515000", "175812.515000", "175812.515000", "175812.515000", "175812.515000", "175812.515000", "175812.515000", "175812.531000", "175812.531000", "175812.531000", "175812.531000", "175812.531000", "175812.531000", "175812.546000", "175812.546000", "175812.546000", "175812.546000", "175812.546000", "175812.546000", "175812.546000", "175812.562000", "175812.562000", "175812.562000", "175812.562000", "175812.562000", "175812.562000", "175812.562000", "175854.281000", "175854.281000", "175854.281000", "175854.281000", "175854.281000", "175854.296000", "175854.296000", "175854.296000", "175854.296000", "175854.296000", "175854.296000", "175854.312000", "175854.312000", "175854.312000", "175854.312000", "175854.312000", "175854.312000", "175854.312000", "175854.328000", "175854.328000"],
      "DataSetTrailingPadding": [
        "\u0000\u0000\u0000\u0000\u0000\u0000\u0000\u0000\u0000\u0000\u0000\u0000\u0000\u0000\u0000\u0000\u0000\u0000\u0000\u0000\u0000\u0000\u0000\u0000\u0000\u0000\u0000\u0000\u0000\u0000\u0000\u0000\u0000\u0000\u0000\u0000\u0000\u0000\u0000\u0000\u0000\u0000\u0000\u0000\u0000\u0000\u0000\u0000\u0000\u0000\u0000\u0000\u0000\u0000\u0000\u0000\u0000\u0000\u0000\u0000\u0000\u0000\u0000\u0000\u0000\u0000\u0000\u0000\u0000\u0000\u0000\u0000\u0000\u0000\u0000\u0000\u0000\u0000\u0000\u0000\u0000\u0000\u0000\u0000\u0000\u0000\u0000\u0000\u0000\u0000\u0000\u0000\u0000\u0000\u0000\u0000\u0000\u0000",
        "\u0000\u0000\u0000\u0000\u0000\u0000\u0000\u0000\u0000\u0000\u0000\u0000\u0000\u0000\u0000\u0000\u0000\u0000\u0000\u0000\u0000\u0000\u0000\u0000\u0000\u0000\u0000\u0000\u0000\u0000\u0000\u0000\u0000\u0000\u0000\u0000\u0000\u0000\u0000\u0000\u0000\u0000\u0000\u0000\u0000\u0000\u0000\u0000\u0000\u0000\u0000\u0000\u0000\u0000\u0000\u0000\u0000\u0000\u0000\u0000\u0000\u0000\u0000\u0000\u0000\u0000\u0000\u0000\u0000\u0000\u0000\u0000\u0000\u0000\u0000\u0000\u0000\u0000\u0000\u0000\u0000\u0000\u0000\u0000\u0000\u0000\u0000\u0000\u0000\u0000\u0000\u0000\u0000\u0000\u0000\u0000\u0000\u0000",
        "\u0000\u0000\u0000\u0000\u0000\u0000\u0000\u0000\u0000\u0000\u0000\u0000\u0000\u0000\u0000\u0000\u0000\u0000\u0000\u0000\u0000\u0000\u0000\u0000\u0000\u0000\u0000\u0000\u0000\u0000\u0000\u0000\u0000\u0000\u0000\u0000\u0000\u0000\u0000\u0000\u0000\u0000\u0000\u0000\u0000\u0000\u0000\u0000\u0000\u0000\u0000\u0000\u0000\u0000\u0000\u0000\u0000\u0000\u0000\u0000\u0000\u0000\u0000\u0000\u0000\u0000\u0000\u0000\u0000\u0000\u0000\u0000\u0000\u0000\u0000\u0000\u0000\u0000\u0000\u0000\u0000\u0000\u0000\u0000\u0000\u0000\u0000\u0000\u0000\u0000\u0000\u0000\u0000\u0000\u0000\u0000",
