{
  "AcquisitionMatrixPE": 104,
  "AcquisitionNumber": 1,
  "AcquisitionTime": "16:24:46.742500",
  "BandwidthPerPixelPhaseEncode": 13.935,
  "BaseResolution": 104,
  "CoilString": "C:HEA;HEP",
  "ConversionSoftware": "dcm2niix",
  "ConversionSoftwareVersion": "v1.0.20210317",
  "DerivedVendorReportedEchoSpacing": 0.000690017,
  "DeviceSerialNumber": "35450",
  "DwellTime": 2.5e-06,
  "EchoTime": 0.0348,
  "EffectiveEchoSpacing": 0.000690017,
  "FlipAngle": 55,
  "ImageComments": "Unaliased MB8/PE3",
  "ImageOrientationPatientDICOM": [0.999455, 0.0011516, 0.0330027, -2.49611e-08, 0.999392, -0.0348722],
  "ImageType": [
    "ORIGINAL",
    "PRIMARY",
    "M",
    "MB",
    "ND",
    "MOSAIC"
],
  "ImagingFrequency": 123.235,
  "InPlanePhaseEncodingDirectionDICOM": "COL",
  "InstitutionAddress": "Univeristy Ave. 197,Newark,North East,US,07102-1814",
  "InstitutionName": "RUBIC",
  "InstitutionalDepartmentName": "Department",
  "MRAcquisitionType": "2D",
  "MagneticFieldStrength": 3,
  "Manufacturer": "Siemens",
  "ManufacturersModelName": "TrioTim",
  "Modality": "MR",
  "MultibandAccelerationFactor": 8,
  "PartialFourier": 0.875,
  "PatientPosition": "HFS",
  "PercentPhaseFOV": 100,
  "PercentSampling": 100,
  "PhaseEncodingDirection": "j-",
  "PhaseEncodingSteps": 91,
  "PhaseResolution": 1,
  "PixelBandwidth": 1923,
  "ProcedureStepDescription": "Cole^Michael",
  "ProtocolName": "cmrr_mbep2d_bold_2mm_MB8_Task_8x",
  "PulseSequenceDetails": "%CustomerSeq%\\cmrr_mbep2d_bold",
  "ReceiveCoilName": "32Ch_Head",
  "ReconMatrixPE": 104,
  "RepetitionTime": 0.785,
  "SAR": 0.122387,
  "ScanOptions": "PFP\\FS",
  "ScanningSequence": "EP",
  "SequenceName": "epfid2d1_104",
  "SequenceVariant": "SK\\SS",
  "SeriesDescription": "cmrr_mbep2d_bold_2mm_MB8_Task_8x",
  "SeriesNumber": 23,
  "ShimSetting": [2131, -432, -7335, 727, -145, -395, 180, -29],
  "SliceThickness": 2,
  "SliceTiming": [0, 0.44, 0.0875, 0.5275, 0.175, 0.615, 0.2625, 0.7025, 0.3525, 0, 0.44, 0.0875, 0.5275, 0.175, 0.615, 0.2625, 0.7025, 0.3525, 0, 0.44, 0.0875, 0.5275, 0.175, 0.615, 0.2625, 0.7025, 0.3525, 0, 0.44, 0.0875, 0.5275, 0.175, 0.615, 0.2625, 0.7025, 0.3525, 0, 0.44, 0.0875, 0.5275, 0.175, 0.615, 0.2625, 0.7025, 0.3525, 0, 0.44, 0.0875, 0.5275, 0.175, 0.615, 0.2625, 0.7025, 0.3525, 0, 0.44, 0.0875, 0.5275, 0.175, 0.615, 0.2625, 0.7025, 0.3525, 0, 0.44, 0.0875, 0.5275, 0.175, 0.615, 0.2625, 0.7025, 0.3525],
  "SoftwareVersions": "syngo MR B19",
  "SpacingBetweenSlices": 2,
  "StationName": "MRC35450",
  "TaskName": "cpro",
  "TotalReadoutTime": 0.0710717,
  "TxRefAmp": 322.289,
  "dcmmeta_affine": [
    [-1.9989092350006104, -4.9922274314440074e-08, 0.06604553759098053, 101.6417236328125],
    [-0.0023032010067254305, 1.9987835884094238, -0.06970629841089249, -82.3194351196289],
    [0.06600537151098251, 0.06974433362483978, 1.997693419456482, -97.9209213256836],
    [0.0, 0.0, 0.0, 1.0]
],
  "dcmmeta_reorient_transform": [
    [0.0, -1.0, 0.0, 103.0],
    [1.0, 0.0, 0.0, 0.0],
    [0.0, 0.0, 1.0, 0.0],
    [0.0, 0.0, 0.0, 1.0]
],
  "dcmmeta_shape": [104, 104, 72, 581],
  "dcmmeta_slice_dim": 2,
  "dcmmeta_version": 0.6,
  "global": {
    "const": {
      "AcquisitionMatrix": [104, 0, 0, 104],
      "AngioFlag": "N",
      "BitsAllocated": 16,
      "BitsStored": 12,
      "Columns": 936,
      "EchoNumbers": 1,
      "EchoTime": 34.8,
      "EchoTrainLength": 1,
      "FlipAngle": 55.0,
      "HighBit": 11,
      "ImageOrientationPatient": [0.99945459959621, 0.00115160049858, 0.0330026841677, -2.4961138e-08, 0.9993917810065, -0.034872167364],
      "ImagePositionPatient": [-933.18792789381, -956.00736340479, -89.181842500236],
      "ImageType": [
        "ORIGINAL",
        "PRIMARY",
        "M",
        "MB",
        "ND",
        "MOSAIC"
],
      "ImagedNucleus": "1H",
      "ImagingFrequency": 123.234906,
      "InPlanePhaseEncodingDirection": "COL",
      "MRAcquisitionType": "2D",
      "MagneticFieldStrength": 3.0,
      "Manufacturer": "SIEMENS",
      "ManufacturerModelName": "TrioTim",
      "Modality": "MR",
      "NumberOfAverages": 1.0,
      "NumberOfPhaseEncodingSteps": 91,
      "PercentPhaseFieldOfView": 100.0,
      "PercentSampling": 100.0,
      "PerformedProcedureStepStartTime": "145138.734000",
      "PhotometricInterpretation": "MONOCHROME2",
      "PixelBandwidth": 1923.0,
      "PixelRepresentation": 0,
      "PixelSpacing": [2.0, 2.0],
      "ProtocolName": "cmrr_mbep2d_bold_2mm_MB8_Task_8x",
      "RepetitionTime": 785.0,
      "Rows": 936,
      "SAR": 0.12238748232834,
      "SamplesPerPixel": 1,
      "ScanOptions": [
        "PFP",
        "FS"
],
      "ScanningSequence": "EP",
      "SequenceName": "epfid2d1_104",
      "SequenceVariant": [
        "SK",
        "SS"
],
      "SeriesDescription": "cmrr_mbep2d_bold_2mm_MB8_Task_8x",
      "SeriesNumber": 23,
      "SeriesTime": "175918.046000",
      "SliceLocation": -91.582405172427,
      "SliceThickness": 2.0,
      "SmallestImagePixelValue": 0,
      "SoftwareVersions": "syngo MR B19",
      "SpacingBetweenSlices": 2.0000000266374,
      "SpecificCharacterSet": "ISO_IR 100",
      "StudyID": "1",
      "StudyTime": "145138.703000",
      "TransmitCoilName": "Body",
      "VariableFlipAngleFlag": "N",
      "WindowCenterWidthExplanation": "Algo1",
      "dBdt": 0.0},
    "slices": {}
  },
  "time": {
    "samples": {
      "AcquisitionNumber": [1, 2, 3, 4, 5, 6, 7, 8, 9, 10, 11, 12, 13, 14, 15, 16, 17, 18, 19, 20, 21, 22, 23, 24, 25, 26, 27, 28, 29, 30, 31, 32, 33, 34, 35, 36, 37, 38, 39, 40, 41, 42, 43, 44, 45, 46, 47, 48, 49, 50, 51, 52, 53, 54, 55, 56, 57, 58, 59, 60, 61, 62, 63, 64, 65, 66, 67, 68, 69, 70, 71, 72, 73, 74, 75, 76, 77, 78, 79, 80, 81, 82, 83, 84, 85, 86, 87, 88, 89, 90, 91, 92, 93, 94, 95, 96, 97, 98, 99, 100, 101, 102, 103, 104, 105, 106, 107, 108, 109, 110, 111, 112, 113, 114, 115, 116, 117, 118, 119, 120, 121, 122, 123, 124, 125, 126, 127, 128, 129, 130, 131, 132, 133, 134, 135, 136, 137, 138, 139, 140, 141, 142, 143, 144, 145, 146, 147, 148, 149, 150, 151, 152, 153, 154, 155, 156, 157, 158, 159, 160, 161, 162, 163, 164, 165, 166, 167, 168, 169, 170, 171, 172, 173, 174, 175, 176, 177, 178, 179, 180, 181, 182, 183, 184, 185, 186, 187, 188, 189, 190, 191, 192, 193, 194, 195, 196, 197, 198, 199, 200, 201, 202, 203, 204, 205, 206, 207, 208, 209, 210, 211, 212, 213, 214, 215, 216, 217, 218, 219, 220, 221, 222, 223, 224, 225, 226, 227, 228, 229, 230, 231, 232, 233, 234, 235, 236, 237, 238, 239, 240, 241, 242, 243, 244, 245, 246, 247, 248, 249, 250, 251, 252, 253, 254, 255, 256, 257, 258, 259, 260, 261, 262, 263, 264, 265, 266, 267, 268, 269, 270, 271, 272, 273, 274, 275, 276, 277, 278, 279, 280, 281, 282, 283, 284, 285, 286, 287, 288, 289, 290, 291, 292, 293, 294, 295, 296, 297, 298, 299, 300, 301, 302, 303, 304, 305, 306, 307, 308, 309, 310, 311, 312, 313, 314, 315, 316, 317, 318, 319, 320, 321, 322, 323, 324, 325, 326, 327, 328, 329, 330, 331, 332, 333, 334, 335, 336, 337, 338, 339, 340, 341, 342, 343, 344, 345, 346, 347, 348, 349, 350, 351, 352, 353, 354, 355, 356, 357, 358, 359, 360, 361, 362, 363, 364, 365, 366, 367, 368, 369, 370, 371, 372, 373, 374, 375, 376, 377, 378, 379, 380, 381, 382, 383, 384, 385, 386, 387, 388, 389, 390, 391, 392, 393, 394, 395, 396, 397, 398, 399, 400, 401, 402, 403, 404, 405, 406, 407, 408, 409, 410, 411, 412, 413, 414, 415, 416, 417, 418, 419, 420, 421, 422, 423, 424, 425, 426, 427, 428, 429, 430, 431, 432, 433, 434, 435, 436, 437, 438, 439, 440, 441, 442, 443, 444, 445, 446, 447, 448, 449, 450, 451, 452, 453, 454, 455, 456, 457, 458, 459, 460, 461, 462, 463, 464, 465, 466, 467, 468, 469, 470, 471, 472, 473, 474, 475, 476, 477, 478, 479, 480, 481, 482, 483, 484, 485, 486, 487, 488, 489, 490, 491, 492, 493, 494, 495, 496, 497, 498, 499, 500, 501, 502, 503, 504, 505, 506, 507, 508, 509, 510, 511, 512, 513, 514, 515, 516, 517, 518, 519, 520, 521, 522, 523, 524, 525, 526, 527, 528, 529, 530, 531, 532, 533, 534, 535, 536, 537, 538, 539, 540, 541, 542, 543, 544, 545, 546, 547, 548, 549, 550, 551, 552, 553, 554, 555, 556, 557, 558, 559, 560, 561, 562, 563, 564, 565, 566, 567, 568, 569, 570, 571, 572, 573, 574, 575, 576, 577, 578, 579, 580, 581],
      "AcquisitionTime": ["162446.742500", "162447.532500", "162448.320000", "162449.107500", "162449.897500", "162450.685000", "162451.472500", "162452.260000", "162453.050000", "162453.837500", "162454.625000", "162455.412500", "162456.202500", "162456.990000", "162457.777500", "162458.565000", "162459.355000", "162500.142500", "162500.930000", "162501.717500", "162502.507500", "162503.295000", "162504.082500", "162504.870000", "162505.660000", "162506.447500", "162507.235000", "162508.025000", "162508.812500", "162509.600000", "162510.387500", "162511.177500", "162511.965000", "162512.752500", "162513.540000", "162514.330000", "162515.117500", "162515.905000", "162516.692500", "162517.482500", "162518.270000", "162519.057500", "162519.845000", "162520.635000", "162521.422500", "162522.210000", "162522.997500", "162523.787500", "162524.575000", "162525.362500", "162526.152500", "162526.940000", "162527.727500", "162528.515000", "162529.305000", "162530.092500", "162530.880000", "162531.667500", "162532.457500", "162533.245000", "162534.032500", "162534.820000", "162535.610000", "162536.397500", "162537.185000", "162537.972500", "162538.762500", "162539.550000", "162540.337500", "162541.125000", "162541.915000", "162542.702500", "162543.490000", "162544.280000", "162545.067500", "162545.855000", "162546.642500", "162547.432500", "162548.220000", "162549.007500", "162549.795000", "162550.585000", "162551.372500", "162552.160000", "162552.947500", "162553.737500", "162554.525000", "162555.312500", "162556.100000", "162556.890000", "162557.677500", "162558.465000", "162559.252500", "162600.042500", "162600.830000", "162601.617500", "162602.407500", "162603.195000", "162603.982500", "162604.770000", "162605.560000", "162606.347500", "162607.135000", "162607.922500", "162608.712500", "162609.500000", "162610.287500", "162611.075000", "162611.865000", "162612.652500", "162613.440000", "162614.227500", "162615.017500", "162615.805000", "162616.592500", "162617.380000", "162618.170000", "162618.957500", "162619.745000", "162620.535000", "162621.322500", "162622.110000", "162622.897500", "162623.687500", "162624.475000", "162625.262500", "162626.050000", "162626.840000", "162627.627500", "162628.415000", "162629.202500", "162629.992500", "162630.780000", "162631.567500", "162632.355000", "162633.145000", "162633.932500", "162634.720000", "162635.507500", "162636.297500", "162637.085000", "162637.872500", "162638.662500", "162639.450000", "162640.237500", "162641.025000", "162641.815000", "162642.602500", "162643.390000", "162644.177500", "162644.967500", "162645.755000", "162646.542500", "162647.330000", "162648.120000", "162648.907500", "162649.695000", "162650.482500", "162651.272500", "162652.060000", "162652.847500", "162653.635000", "162654.425000", "162655.212500", "162656.000000", "162656.790000", "162657.577500", "162658.365000", "162659.152500", "162659.942500", "162700.730000", "162701.517500", "162702.305000", "162703.095000", "162703.882500", "162704.670000", "162705.457500", "162706.247500", "162707.035000", "162707.822500", "162708.610000", "162709.400000", "162710.187500", "162710.975000", "162711.762500", "162712.552500", "162713.340000", "162714.127500", "162714.917500", "162715.705000", "162716.492500", "162717.280000", "162718.070000", "162718.857500", "162719.645000", "162720.432500", "162721.222500", "162722.010000", "162722.797500", "162723.585000", "162724.375000", "162725.162500", "162725.950000", "162726.737500", "162727.527500", "162728.315000", "162729.102500", "162729.890000", "162730.680000", "162731.467500", "162732.255000", "162733.045000", "162733.832500", "162734.620000", "162735.407500", "162736.197500", "162736.985000", "162737.772500", "162738.560000", "162739.350000", "162740.137500", "162740.925000", "162741.712500", "162742.502500", "162743.290000", "162744.077500", "162744.865000", "162745.655000", "162746.442500", "162747.230000", "162748.020000", "162748.807500", "162749.595000", "162750.382500", "162751.172500", "162751.960000", "162752.747500", "162753.535000", "162754.325000", "162755.112500", "162755.900000", "162756.687500", "162757.477500", "162758.265000", "162759.052500", "162759.840000", "162800.630000", "162801.417500", "162802.205000", "162802.992500", "162803.782500", "162804.570000", "162805.357500", "162806.147500", "162806.935000", "162807.722500", "162808.510000", "162809.300000", "162810.087500", "162810.875000", "162811.662500", "162812.452500", "162813.240000", "162814.027500", "162814.815000", "162815.605000", "162816.392500", "162817.180000", "162817.967500", "162818.757500", "162819.545000", "162820.332500", "162821.120000", "162821.910000", "162822.697500", "162823.485000", "162824.275000", "162825.062500", "162825.850000", "162826.637500", "162827.427500", "162828.215000", "162829.002500", "162829.790000", "162830.580000", "162831.367500", "162832.155000", "162832.942500", "162833.732500", "162834.520000", "162835.307500", "162836.095000", "162836.885000", "162837.672500", "162838.460000", "162839.247500", "162840.037500", "162840.825000", "162841.612500", "162842.402500", "162843.190000", "162843.977500", "162844.765000", "162845.555000", "162846.342500", "162847.130000", "162847.917500", "162848.707500", "162849.495000", "162850.282500", "162851.070000", "162851.860000", "162852.647500", "162853.435000", "162854.222500", "162855.012500", "162855.800000", "162856.587500", "162857.375000", "162858.165000", "162858.952500", "162859.740000", "162900.530000", "162901.317500", "162902.105000", "162902.892500", "162903.682500", "162904.470000", "162905.257500", "162906.045000", "162906.835000", "162907.622500", "162908.410000", "162909.197500", "162909.987500", "162910.775000", "162911.562500", "162912.350000", "162913.140000", "162913.927500", "162914.715000", "162915.502500", "162916.292500", "162917.080000", "162917.867500", "162918.657500", "162919.445000", "162920.232500", "162921.020000", "162921.810000", "162922.597500", "162923.385000", "162924.172500", "162924.962500", "162925.750000", "162926.537500", "162927.325000", "162928.115000", "162928.902500", "162929.690000", "162930.477500", "162931.267500", "162932.055000", "162932.842500", "162933.630000", "162934.420000", "162935.207500", "162935.995000", "162936.785000", "162937.572500", "162938.360000", "162939.147500", "162939.937500", "162940.725000", "162941.512500", "162942.300000", "162943.090000", "162943.877500", "162944.665000", "162945.452500", "162946.242500", "162947.030000", "162947.817500", "162948.605000", "162949.395000", "162950.182500", "162950.970000", "162951.757500", "162952.547500", "162953.335000", "162954.122500", "162954.912500", "162955.700000", "162956.487500", "162957.275000", "162958.065000", "162958.852500", "162959.640000", "163000.427500", "163001.217500", "163002.005000", "163002.792500", "163003.580000", "163004.370000", "163005.157500", "163005.945000", "163006.732500", "163007.522500", "163008.310000", "163009.097500", "163009.885000", "163010.675000", "163011.462500", "163012.250000", "163013.040000", "163013.827500", "163014.615000", "163015.402500", "163016.192500", "163016.980000", "163017.767500", "163018.555000", "163019.345000", "163020.132500", "163020.920000", "163021.707500", "163022.497500", "163023.285000", "163024.072500", "163024.860000", "163025.650000", "163026.437500", "163027.225000", "163028.012500", "163028.802500", "163029.590000", "163030.377500", "163031.167500", "163031.955000", "163032.742500", "163033.530000", "163034.320000", "163035.107500", "163035.895000", "163036.682500", "163037.472500", "163038.260000", "163039.047500", "163039.835000", "163040.625000", "163041.412500", "163042.200000", "163042.987500", "163043.777500", "163044.565000", "163045.352500", "163046.140000", "163046.930000", "163047.717500", "163048.505000", "163049.295000", "163050.082500", "163050.870000", "163051.657500", "163052.447500", "163053.235000", "163054.022500", "163054.810000", "163055.600000", "163056.387500", "163057.175000", "163057.962500", "163058.752500", "163059.540000", "163100.327500", "163101.115000", "163101.905000", "163102.692500", "163103.480000", "163104.270000", "163105.057500", "163105.845000", "163106.632500", "163107.422500", "163108.210000", "163108.997500", "163109.785000", "163110.575000", "163111.362500", "163112.150000", "163112.937500", "163113.727500", "163114.515000", "163115.302500", "163116.090000", "163116.880000", "163117.667500", "163118.455000", "163119.242500", "163120.032500", "163120.820000", "163121.607500", "163122.397500", "163123.185000", "163123.972500", "163124.760000", "163125.550000", "163126.337500", "163127.125000", "163127.912500", "163128.702500", "163129.490000", "163130.277500", "163131.065000", "163131.855000", "163132.642500", "163133.430000", "163134.217500", "163135.007500", "163135.795000", "163136.582500", "163137.370000", "163138.160000", "163138.947500", "163139.735000", "163140.525000", "163141.312500", "163142.100000", "163142.887500", "163143.677500", "163144.465000", "163145.252500", "163146.040000", "163146.830000", "163147.617500", "163148.405000", "163149.192500", "163149.982500", "163150.770000", "163151.557500", "163152.345000", "163153.135000", "163153.922500", "163154.710000", "163155.497500", "163156.287500", "163157.075000", "163157.862500", "163158.652500", "163159.440000", "163200.227500", "163201.015000", "163201.805000", "163202.592500", "163203.380000", "163204.167500", "163204.957500", "163205.745000", "163206.532500", "163207.320000", "163208.110000", "163208.897500", "163209.685000", "163210.472500", "163211.262500", "163212.050000", "163212.837500", "163213.625000", "163214.415000", "163215.202500", "163215.990000", "163216.780000", "163217.567500", "163218.355000", "163219.142500", "163219.932500", "163220.720000", "163221.507500", "163222.295000", "163223.085000", "163223.872500"],
      "ContentTime": ["175918.046000", "175918.046000", "175918.046000", "180018.015000", "180018.015000", "180018.031000", "180018.031000", "180018.031000", "180018.031000", "180018.031000", "180018.046000", "180018.046000", "180018.046000", "180018.046000", "180018.046000", "180018.046000", "180018.062000", "180018.062000", "180018.062000", "180018.062000", "180018.062000", "180018.062000", "180018.062000", "180018.062000", "180018.078000", "180018.078000", "180018.078000", "180018.078000", "180018.078000", "180018.078000", "180018.078000", "180118.015000", "180118.015000", "180118.031000", "180118.031000", "180118.031000", "180118.031000", "180118.031000", "180118.031000", "180118.031000", "180118.046000", "180118.046000", "180118.046000", "180118.046000", "180118.046000", "180118.046000", "180118.046000", "180118.062000", "180118.062000", "180118.062000", "180118.062000", "180118.062000", "180118.062000", "180118.078000", "180118.078000", "180118.078000", "180118.078000", "180118.078000", "180118.078000", "180118.078000", "180218.015000", "180218.015000", "180218.031000", "180218.031000", "180218.031000", "180218.031000", "180218.031000", "180218.031000", "180218.031000", "180218.046000", "180218.046000", "180218.046000", "180218.046000", "180218.046000", "180218.046000", "180218.046000", "180218.062000", "180218.062000", "180218.062000", "180218.062000", "180218.062000", "180218.062000", "180218.062000", "180218.078000", "180218.078000", "180218.078000", "180218.078000", "180218.078000", "180318.015000", "180318.015000", "180318.031000", "180318.031000", "180318.031000", "180318.031000", "180318.031000", "180318.031000", "180318.031000", "180318.046000", "180318.046000", "180318.046000", "180318.046000", "180318.046000", "180318.046000", "180318.046000", "180318.062000", "180318.062000", "180318.062000", "180318.062000", "180318.062000", "180318.062000", "180318.062000", "180318.078000", "180318.078000", "180318.078000", "180318.078000", "180318.078000", "180418.015000", "180418.015000", "180418.031000", "180418.031000", "180418.031000", "180418.031000", "180418.031000", "180418.031000", "180418.031000", "180418.046000", "180418.046000", "180418.046000", "180418.046000", "180418.046000", "180418.046000", "180418.046000", "180418.062000", "180418.062000", "180418.062000", "180418.062000", "180418.062000", "180418.062000", "180418.062000", "180418.078000", "180418.078000", "180418.078000", "180418.078000", "180418.078000", "180438.015000", "180438.015000", "180438.031000", "180438.031000", "180438.031000", "180438.031000", "180438.031000", "180438.031000", "180438.031000", "180538.015000", "180538.015000", "180538.031000", "180538.031000", "180538.031000", "180538.031000", "180538.031000", "180538.031000", "180538.031000", "180538.046000", "180538.046000", "180538.046000", "180538.046000", "180538.046000", "180538.046000", "180538.062000", "180538.062000", "180538.062000", "180538.062000", "180538.062000", "180538.062000", "180538.062000", "180538.078000", "180538.078000", "180538.078000", "180538.078000", "180538.078000", "180538.078000", "180638.015000", "180638.015000", "180638.031000", "180638.031000", "180638.031000", "180638.031000", "180638.031000", "180638.031000", "180638.031000", "180638.046000", "180638.046000", "180638.046000", "180638.046000", "180638.046000", "180638.046000", "180638.046000", "180638.062000", "180638.062000", "180638.062000", "180638.062000", "180638.062000", "180638.062000", "180638.078000", "180638.078000", "180638.078000", "180638.078000", "180638.093000", "180638.093000", "180638.093000", "180738.015000", "180738.015000", "180738.031000", "180738.031000", "180738.031000", "180738.031000", "180738.031000", "180738.031000", "180738.031000", "180738.046000", "180738.046000", "180738.046000", "180738.046000", "180738.046000", "180738.046000", "180738.046000", "180738.062000", "180738.062000", "180738.062000", "180738.062000", "180738.062000", "180738.062000", "180738.062000", "180738.078000", "180738.078000", "180738.078000", "180738.078000", "180738.078000", "180838.015000", "180838.015000", "180838.031000", "180838.031000", "180838.031000", "180838.031000", "180838.031000", "180838.031000", "180838.031000", "180838.046000", "180838.046000", "180838.046000", "180838.046000", "180838.046000", "180838.046000", "180838.046000", "180838.062000", "180838.062000", "180838.062000", "180838.062000", "180838.062000", "180838.062000", "180838.062000", "180838.078000", "180838.078000", "180838.078000", "180838.078000", "180838.078000", "180938.015000", "180938.015000", "180938.031000", "180938.031000", "180938.031000", "180938.031000", "180938.031000", "180938.031000", "180938.031000", "180938.046000", "180938.046000", "180938.046000", "180938.046000", "180938.046000", "180938.046000", "180938.062000", "180938.062000", "180938.062000", "180938.062000", "180938.062000", "180938.062000", "180938.062000", "180938.078000", "180938.078000", "180938.078000", "180938.078000", "180938.078000", "180938.078000", "181038.015000", "181038.015000", "181038.031000", "181038.031000", "181038.031000", "181038.031000", "181038.031000", "181038.031000", "181038.031000", "181038.046000", "181038.046000", "181038.046000", "181038.046000", "181038.046000", "181038.062000", "181038.062000", "181038.062000", "181038.062000", "181038.062000", "181038.062000", "181038.062000", "181038.078000", "181038.078000", "181038.078000", "181038.078000", "181038.078000", "181038.078000", "181038.078000", "181138.015000", "181138.015000", "181138.031000", "181138.031000", "181138.031000", "181138.031000", "181138.031000", "181138.031000", "181138.031000", "181138.046000", "181138.046000", "181138.046000", "181138.046000", "181138.046000", "181138.046000", "181138.046000", "181138.062000", "181138.062000", "181138.062000", "181138.062000", "181138.062000", "181138.062000", "181138.062000", "181138.078000", "181138.078000", "181138.078000", "181138.078000", "181138.078000", "181238.015000", "181238.015000", "181238.031000", "181238.031000", "181238.031000", "181238.031000", "181238.031000", "181238.031000", "181238.031000", "181238.046000", "181238.046000", "181238.046000", "181238.046000", "181238.046000", "181238.046000", "181238.046000", "181238.062000", "181238.062000", "181238.062000", "181238.062000", "181238.062000", "181238.062000", "181238.078000", "181238.078000", "181238.078000", "181238.078000", "181238.078000", "181238.078000", "181238.078000", "181338.015000", "181338.015000", "181338.031000", "181338.031000", "181338.031000", "181338.031000", "181338.046000", "181338.046000", "181338.046000", "181338.046000", "181338.046000", "181338.046000", "181338.046000", "181338.062000", "181338.062000", "181338.062000", "181338.062000", "181338.062000", "181338.062000", "181338.062000", "181338.078000", "181338.078000", "181338.078000", "181338.078000", "181338.078000", "181338.078000", "181338.078000", "181338.093000", "181438.015000", "181438.015000", "181438.031000", "181438.031000", "181438.031000", "181438.031000", "181438.031000", "181438.031000", "181438.046000", "181438.046000", "181438.046000", "181438.046000", "181438.046000", "181438.046000", "181438.046000", "181438.062000", "181438.062000", "181438.062000", "181438.062000", "181438.062000", "181438.062000", "181438.062000", "181438.078000", "181438.078000", "181438.078000", "181438.078000", "181438.078000", "181438.078000", "181538.015000", "181538.015000", "181538.031000", "181538.031000", "181538.031000", "181538.031000", "181538.031000", "181538.031000", "181538.031000", "181538.046000", "181538.046000", "181538.046000", "181538.046000", "181538.062000", "181538.062000", "181538.062000", "181538.062000", "181538.062000", "181538.062000", "181538.062000", "181538.078000", "181538.078000", "181538.078000", "181538.078000", "181538.078000", "181538.078000", "181538.078000", "181538.093000", "181638.015000", "181638.015000", "181638.031000", "181638.031000", "181638.031000", "181638.031000", "181638.031000", "181638.031000", "181638.031000", "181638.046000", "181638.046000", "181638.046000", "181638.046000", "181638.046000", "181638.046000", "181638.062000", "181638.062000", "181638.062000", "181638.062000", "181638.062000", "181638.062000", "181638.062000", "181638.078000", "181638.078000", "181638.078000", "181638.078000", "181638.078000", "181638.078000", "181738.015000", "181738.015000", "181738.031000", "181738.031000", "181738.031000", "181738.031000", "181738.031000", "181738.031000", "181738.031000", "181738.046000", "181738.046000", "181738.046000", "181738.046000", "181738.046000", "181738.046000", "181738.062000", "181738.062000", "181738.062000", "181738.062000", "181738.062000", "181738.062000", "181738.078000", "181738.078000", "181738.078000", "181738.078000", "181738.078000", "181738.078000", "181738.078000", "181838.015000", "181838.015000", "181838.031000", "181838.031000", "181838.031000", "181838.031000", "181838.031000", "181838.031000", "181838.031000", "181838.046000", "181838.046000", "181838.046000", "181838.046000", "181838.046000", "181838.046000", "181838.046000", "181838.062000", "181838.062000", "181838.062000", "181838.062000", "181838.062000", "181838.078000", "181838.078000", "181838.078000", "181838.078000", "181838.078000", "181838.078000", "181838.078000", "181938.015000", "181938.015000", "181938.031000", "181938.031000", "181938.031000", "181938.031000", "181938.031000", "181938.031000", "181938.031000", "181938.046000", "181938.046000", "181938.046000", "181938.046000", "181938.046000", "181938.046000", "181938.046000", "181938.062000", "181938.078000", "181938.078000", "181938.078000", "181938.078000", "181938.093000", "181938.093000", "181938.093000", "181938.093000", "181938.093000", "181938.109000", "181938.109000", "181948.078000", "181948.078000", "181948.093000", "181948.093000", "181948.093000", "181948.093000"],
      "DataSetTrailingPadding": [
        "\u0000\u0000\u0000\u0000\u0000\u0000\u0000\u0000\u0000\u0000\u0000\u0000\u0000\u0000\u0000\u0000\u0000\u0000\u0000\u0000\u0000\u0000\u0000\u0000\u0000\u0000\u0000\u0000\u0000\u0000\u0000\u0000\u0000\u0000\u0000\u0000\u0000\u0000\u0000\u0000\u0000\u0000\u0000\u0000\u0000\u0000\u0000\u0000\u0000\u0000\u0000\u0000\u0000\u0000\u0000\u0000\u0000\u0000\u0000\u0000\u0000\u0000\u0000\u0000\u0000\u0000\u0000\u0000\u0000\u0000\u0000\u0000\u0000\u0000\u0000\u0000\u0000\u0000\u0000\u0000\u0000\u0000\u0000\u0000\u0000\u0000\u0000\u0000\u0000\u0000\u0000\u0000\u0000\u0000\u0000\u0000\u0000\u0000",
        "\u0000\u0000\u0000\u0000\u0000\u0000\u0000\u0000\u0000\u0000\u0000\u0000\u0000\u0000\u0000\u0000\u0000\u0000\u0000\u0000\u0000\u0000\u0000\u0000\u0000\u0000\u0000\u0000\u0000\u0000\u0000\u0000\u0000\u0000\u0000\u0000\u0000\u0000\u0000\u0000\u0000\u0000\u0000\u0000\u0000\u0000\u0000\u0000\u0000\u0000\u0000\u0000\u0000\u0000\u0000\u0000\u0000\u0000\u0000\u0000\u0000\u0000\u0000\u0000\u0000\u0000\u0000\u0000\u0000\u0000\u0000\u0000\u0000\u0000\u0000\u0000\u0000\u0000\u0000\u0000\u0000\u0000\u0000\u0000\u0000\u0000\u0000\u0000\u0000\u0000\u0000\u0000\u0000\u0000\u0000\u0000",
        "\u0000\u0000\u0000\u0000\u0000\u0000\u0000\u0000\u0000\u0000\u0000\u0000\u0000\u0000\u0000\u0000\u0000\u0000\u0000\u0000\u0000\u0000\u0000\u0000\u0000\u0000\u0000\u0000\u0000\u0000\u0000\u0000\u0000\u0000\u0000\u0000\u0000\u0000\u0000\u0000\u0000\u0000\u0000\u0000\u0000\u0000\u0000\u0000\u0000\u0000\u0000\u0000\u0000\u0000\u0000\u0000\u0000\u0000\u0000\u0000\u0000\u0000\u0000\u0000\u0000\u0000\u0000\u0000\u0000\u0000\u0000\u0000\u0000\u0000\u0000\u0000\u0000\u0000\u0000\u0000\u0000\u0000\u0000\u0000\u0000\u0000\u0000\u0000\u0000\u0000\u0000\u0000\u0000\u0000\u0000\u0000\u0000\u0000",
