{
  "AcquisitionMatrixPE": 104,
  "AcquisitionNumber": 1,
  "AcquisitionTime": "17:37:4.772500",
  "BandwidthPerPixelPhaseEncode": 13.935,
  "BaseResolution": 104,
  "CoilString": "C:HEA;HEP",
  "ConversionSoftware": "dcm2niix",
  "ConversionSoftwareVersion": "v1.0.20210317",
  "DerivedVendorReportedEchoSpacing": 0.000690017,
  "DeviceSerialNumber": "35450",
  "DwellTime": 2.5e-06,
  "EchoTime": 0.0348,
  "EffectiveEchoSpacing": 0.000690017,
  "FlipAngle": 55,
  "ImageComments": "Unaliased MB8/PE3 (remote)",
  "ImageOrientationPatientDICOM": [1, 0, 0, 0, 0.996345, -0.0854169],
  "ImageType": [
    "ORIGINAL",
    "PRIMARY",
    "M",
    "MB",
    "ND",
    "MOSAIC"
],
  "ImagingFrequency": 123.235,
  "InPlanePhaseEncodingDirectionDICOM": "COL",
  "InstitutionAddress": "Univeristy Ave. 197,Newark,North East,US,07102-1814",
  "InstitutionName": "RUBIC",
  "InstitutionalDepartmentName": "Department",
  "MRAcquisitionType": "2D",
  "MagneticFieldStrength": 3,
  "Manufacturer": "Siemens",
  "ManufacturersModelName": "TrioTim",
  "Modality": "MR",
  "MultibandAccelerationFactor": 8,
  "PartialFourier": 0.875,
  "PatientPosition": "HFS",
  "PercentPhaseFOV": 100,
  "PercentSampling": 100,
  "PhaseEncodingDirection": "j-",
  "PhaseEncodingSteps": 91,
  "PhaseResolution": 1,
  "PixelBandwidth": 1923,
  "ProcedureStepDescription": "Cole^Michael",
  "ProtocolName": "cmrr_mbep2d_bold_2mm_MB8_Task_8x",
  "PulseSequenceDetails": "%CustomerSeq%\\cmrr_mbep2d_bold",
  "ReceiveCoilName": "32Ch_Head",
  "ReconMatrixPE": 104,
  "RepetitionTime": 0.785,
  "SAR": 0.12462,
  "ScanOptions": "PFP\\FS",
  "ScanningSequence": "EP",
  "SequenceName": "epfid2d1_104",
  "SequenceVariant": "SK\\SS",
  "SeriesDescription": "cmrr_mbep2d_bold_2mm_MB8_Task_8x",
  "SeriesNumber": 23,
  "ShimSetting": [2117, -337, -7324, 506, -64, -317, -341, 40],
  "SliceThickness": 2,
  "SliceTiming": [0, 0.44, 0.09, 0.5275, 0.1775, 0.615, 0.265, 0.7025, 0.3525, 0, 0.44, 0.09, 0.5275, 0.1775, 0.615, 0.265, 0.7025, 0.3525, 0, 0.44, 0.09, 0.5275, 0.1775, 0.615, 0.265, 0.7025, 0.3525, 0, 0.44, 0.09, 0.5275, 0.1775, 0.615, 0.265, 0.7025, 0.3525, 0, 0.44, 0.09, 0.5275, 0.1775, 0.615, 0.265, 0.7025, 0.3525, 0, 0.44, 0.09, 0.5275, 0.1775, 0.615, 0.265, 0.7025, 0.3525, 0, 0.44, 0.09, 0.5275, 0.1775, 0.615, 0.265, 0.7025, 0.3525, 0, 0.44, 0.09, 0.5275, 0.1775, 0.615, 0.265, 0.7025, 0.3525],
  "SoftwareVersions": "syngo MR B19",
  "SpacingBetweenSlices": 2,
  "StationName": "MRC35450",
  "TaskName": "cpro",
  "TotalReadoutTime": 0.0710717,
  "TxRefAmp": 367.684,
  "dcmmeta_affine": [
    [-2.0, 0.0, 0.0, 104.0],
    [0.0, 1.9926905632019043, -0.17083384096622467, -88.74421691894531],
    [0.0, 0.17083384096622467, 1.9926905632019043, -116.02446746826172],
    [0.0, 0.0, 0.0, 1.0]
],
  "dcmmeta_reorient_transform": [
    [0.0, -1.0, 0.0, 103.0],
    [1.0, 0.0, 0.0, 0.0],
    [0.0, 0.0, 1.0, 0.0],
    [0.0, 0.0, 0.0, 1.0]
],
  "dcmmeta_shape": [104, 104, 72, 581],
  "dcmmeta_slice_dim": 2,
  "dcmmeta_version": 0.6,
  "global": {
    "const": {
      "AcquisitionMatrix": [104, 0, 0, 104],
      "AngioFlag": "N",
      "BitsAllocated": 16,
      "BitsStored": 12,
      "Columns": 936,
      "EchoNumbers": 1,
      "EchoTime": 34.8,
      "EchoTrainLength": 1,
      "FlipAngle": 55.0,
      "HighBit": 11,
      "ImageOrientationPatient": [1.0, 0.0, 0.0, 0.0, 0.99634529631223, -0.0854169217223],
      "ImagePositionPatient": [-936.0, -945.46220058311, -27.361704322169],
      "ImageType": [
        "ORIGINAL",
        "PRIMARY",
        "M",
        "MB",
        "ND",
        "MOSAIC"
],
      "ImagedNucleus": "1H",
      "ImagingFrequency": 123.234562,
      "InPlanePhaseEncodingDirection": "COL",
      "MRAcquisitionType": "2D",
      "MagneticFieldStrength": 3.0,
      "Manufacturer": "SIEMENS",
      "ManufacturerModelName": "TrioTim",
      "Modality": "MR",
      "NumberOfAverages": 1.0,
      "NumberOfPhaseEncodingSteps": 91,
      "PercentPhaseFieldOfView": 100.0,
      "PercentSampling": 100.0,
      "PerformedProcedureStepStartTime": "153143.640000",
      "PhotometricInterpretation": "MONOCHROME2",
      "PixelBandwidth": 1923.0,
      "PixelRepresentation": 0,
      "PixelSpacing": [2.0, 2.0],
      "ProtocolName": "cmrr_mbep2d_bold_2mm_MB8_Task_8x",
      "RepetitionTime": 785.0,
      "Rows": 936,
      "SAR": 0.12461962131737,
      "SamplesPerPixel": 1,
      "ScanOptions": [
        "PFP",
        "FS"
],
      "ScanningSequence": "EP",
      "SequenceName": "epfid2d1_104",
      "SequenceVariant": [
        "SK",
        "SS"
],
      "SeriesDescription": "cmrr_mbep2d_bold_2mm_MB8_Task_8x",
      "SeriesNumber": 23,
      "SeriesTime": "173728.734000",
      "SliceLocation": -108.02017617904,
      "SliceThickness": 2.0,
      "SmallestImagePixelValue": 0,
      "SoftwareVersions": "syngo MR B19",
      "SpacingBetweenSlices": 1.9999999637998,
      "SpecificCharacterSet": "ISO_IR 100",
      "StudyID": "1",
      "StudyTime": "153143.578000",
      "TransmitCoilName": "Body",
      "VariableFlipAngleFlag": "N",
      "WindowCenterWidthExplanation": "Algo1",
      "dBdt": 0.0},
    "slices": {}
  },
  "time": {
    "samples": {
      "AcquisitionNumber": [1, 2, 3, 4, 5, 6, 7, 8, 9, 10, 11, 12, 13, 14, 15, 16, 17, 18, 19, 20, 21, 22, 23, 24, 25, 26, 27, 28, 29, 30, 31, 32, 33, 34, 35, 36, 37, 38, 39, 40, 41, 42, 43, 44, 45, 46, 47, 48, 49, 50, 51, 52, 53, 54, 55, 56, 57, 58, 59, 60, 61, 62, 63, 64, 65, 66, 67, 68, 69, 70, 71, 72, 73, 74, 75, 76, 77, 78, 79, 80, 81, 82, 83, 84, 85, 86, 87, 88, 89, 90, 91, 92, 93, 94, 95, 96, 97, 98, 99, 100, 101, 102, 103, 104, 105, 106, 107, 108, 109, 110, 111, 112, 113, 114, 115, 116, 117, 118, 119, 120, 121, 122, 123, 124, 125, 126, 127, 128, 129, 130, 131, 132, 133, 134, 135, 136, 137, 138, 139, 140, 141, 142, 143, 144, 145, 146, 147, 148, 149, 150, 151, 152, 153, 154, 155, 156, 157, 158, 159, 160, 161, 162, 163, 164, 165, 166, 167, 168, 169, 170, 171, 172, 173, 174, 175, 176, 177, 178, 179, 180, 181, 182, 183, 184, 185, 186, 187, 188, 189, 190, 191, 192, 193, 194, 195, 196, 197, 198, 199, 200, 201, 202, 203, 204, 205, 206, 207, 208, 209, 210, 211, 212, 213, 214, 215, 216, 217, 218, 219, 220, 221, 222, 223, 224, 225, 226, 227, 228, 229, 230, 231, 232, 233, 234, 235, 236, 237, 238, 239, 240, 241, 242, 243, 244, 245, 246, 247, 248, 249, 250, 251, 252, 253, 254, 255, 256, 257, 258, 259, 260, 261, 262, 263, 264, 265, 266, 267, 268, 269, 270, 271, 272, 273, 274, 275, 276, 277, 278, 279, 280, 281, 282, 283, 284, 285, 286, 287, 288, 289, 290, 291, 292, 293, 294, 295, 296, 297, 298, 299, 300, 301, 302, 303, 304, 305, 306, 307, 308, 309, 310, 311, 312, 313, 314, 315, 316, 317, 318, 319, 320, 321, 322, 323, 324, 325, 326, 327, 328, 329, 330, 331, 332, 333, 334, 335, 336, 337, 338, 339, 340, 341, 342, 343, 344, 345, 346, 347, 348, 349, 350, 351, 352, 353, 354, 355, 356, 357, 358, 359, 360, 361, 362, 363, 364, 365, 366, 367, 368, 369, 370, 371, 372, 373, 374, 375, 376, 377, 378, 379, 380, 381, 382, 383, 384, 385, 386, 387, 388, 389, 390, 391, 392, 393, 394, 395, 396, 397, 398, 399, 400, 401, 402, 403, 404, 405, 406, 407, 408, 409, 410, 411, 412, 413, 414, 415, 416, 417, 418, 419, 420, 421, 422, 423, 424, 425, 426, 427, 428, 429, 430, 431, 432, 433, 434, 435, 436, 437, 438, 439, 440, 441, 442, 443, 444, 445, 446, 447, 448, 449, 450, 451, 452, 453, 454, 455, 456, 457, 458, 459, 460, 461, 462, 463, 464, 465, 466, 467, 468, 469, 470, 471, 472, 473, 474, 475, 476, 477, 478, 479, 480, 481, 482, 483, 484, 485, 486, 487, 488, 489, 490, 491, 492, 493, 494, 495, 496, 497, 498, 499, 500, 501, 502, 503, 504, 505, 506, 507, 508, 509, 510, 511, 512, 513, 514, 515, 516, 517, 518, 519, 520, 521, 522, 523, 524, 525, 526, 527, 528, 529, 530, 531, 532, 533, 534, 535, 536, 537, 538, 539, 540, 541, 542, 543, 544, 545, 546, 547, 548, 549, 550, 551, 552, 553, 554, 555, 556, 557, 558, 559, 560, 561, 562, 563, 564, 565, 566, 567, 568, 569, 570, 571, 572, 573, 574, 575, 576, 577, 578, 579, 580, 581],
      "AcquisitionTime": ["173704.772500", "173705.562500", "173706.350000", "173707.137500", "173707.927500", "173708.715000", "173709.502500", "173710.290000", "173711.080000", "173711.867500", "173712.655000", "173713.442500", "173714.232500", "173715.020000", "173715.807500", "173716.595000", "173717.385000", "173718.172500", "173718.960000", "173719.747500", "173720.537500", "173721.325000", "173722.112500", "173722.902500", "173723.690000", "173724.477500", "173725.265000", "173726.055000", "173726.842500", "173727.630000", "173728.417500", "173729.207500", "173729.995000", "173730.782500", "173731.570000", "173732.360000", "173733.147500", "173733.935000", "173734.722500", "173735.512500", "173736.300000", "173737.087500", "173737.875000", "173738.665000", "173739.452500", "173740.240000", "173741.030000", "173741.817500", "173742.605000", "173743.392500", "173744.182500", "173744.970000", "173745.757500", "173746.545000", "173747.335000", "173748.122500", "173748.910000", "173749.697500", "173750.487500", "173751.275000", "173752.062500", "173752.850000", "173753.640000", "173754.427500", "173755.215000", "173756.002500", "173756.792500", "173757.580000", "173758.367500", "173759.157500", "173759.945000", "173800.732500", "173801.520000", "173802.310000", "173803.097500", "173803.885000", "173804.672500", "173805.462500", "173806.250000", "173807.037500", "173807.825000", "173808.615000", "173809.402500", "173810.190000", "173810.977500", "173811.767500", "173812.555000", "173813.342500", "173814.130000", "173814.920000", "173815.707500", "173816.495000", "173817.285000", "173818.072500", "173818.860000", "173819.647500", "173820.437500", "173821.225000", "173822.012500", "173822.800000", "173823.590000", "173824.377500", "173825.165000", "173825.952500", "173826.742500", "173827.530000", "173828.317500", "173829.105000", "173829.895000", "173830.682500", "173831.470000", "173832.257500", "173833.047500", "173833.835000", "173834.622500", "173835.412500", "173836.200000", "173836.987500", "173837.775000", "173838.565000", "173839.352500", "173840.140000", "173840.927500", "173841.717500", "173842.505000", "173843.292500", "173844.080000", "173844.870000", "173845.657500", "173846.445000", "173847.232500", "173848.022500", "173848.810000", "173849.597500", "173850.385000", "173851.175000", "173851.962500", "173852.750000", "173853.540000", "173854.327500", "173855.115000", "173855.902500", "173856.692500", "173857.480000", "173858.267500", "173859.055000", "173859.845000", "173900.632500", "173901.420000", "173902.207500", "173902.997500", "173903.785000", "173904.572500", "173905.360000", "173906.150000", "173906.937500", "173907.725000", "173908.512500", "173909.302500", "173910.090000", "173910.877500", "173911.667500", "173912.455000", "173913.242500", "173914.030000", "173914.820000", "173915.607500", "173916.395000", "173917.182500", "173917.972500", "173918.760000", "173919.547500", "173920.335000", "173921.125000", "173921.912500", "173922.700000", "173923.487500", "173924.277500", "173925.065000", "173925.852500", "173926.640000", "173927.430000", "173928.217500", "173929.005000", "173929.795000", "173930.582500", "173931.370000", "173932.157500", "173932.947500", "173933.735000", "173934.522500", "173935.310000", "173936.100000", "173936.887500", "173937.675000", "173938.462500", "173939.252500", "173940.040000", "173940.827500", "173941.615000", "173942.405000", "173943.192500", "173943.980000", "173944.767500", "173945.557500", "173946.345000", "173947.132500", "173947.922500", "173948.710000", "173949.497500", "173950.285000", "173951.075000", "173951.862500", "173952.650000", "173953.437500", "173954.227500", "173955.015000", "173955.802500", "173956.590000", "173957.380000", "173958.167500", "173958.955000", "173959.742500", "174000.532500", "174001.320000", "174002.107500", "174002.895000", "174003.685000", "174004.472500", "174005.260000", "174006.050000", "174006.837500", "174007.625000", "174008.412500", "174009.202500", "174009.990000", "174010.777500", "174011.565000", "174012.355000", "174013.142500", "174013.930000", "174014.717500", "174015.507500", "174016.295000", "174017.082500", "174017.870000", "174018.660000", "174019.447500", "174020.235000", "174021.022500", "174021.812500", "174022.600000", "174023.387500", "174024.177500", "174024.965000", "174025.752500", "174026.540000", "174027.330000", "174028.117500", "174028.905000", "174029.692500", "174030.482500", "174031.270000", "174032.057500", "174032.845000", "174033.635000", "174034.422500", "174035.210000", "174035.997500", "174036.787500", "174037.575000", "174038.362500", "174039.152500", "174039.940000", "174040.727500", "174041.515000", "174042.305000", "174043.092500", "174043.880000", "174044.667500", "174045.457500", "174046.245000", "174047.032500", "174047.820000", "174048.610000", "174049.397500", "174050.185000", "174050.972500", "174051.762500", "174052.550000", "174053.337500", "174054.125000", "174054.915000", "174055.702500", "174056.490000", "174057.280000", "174058.067500", "174058.855000", "174059.642500", "174100.432500", "174101.220000", "174102.007500", "174102.795000", "174103.585000", "174104.372500", "174105.160000", "174105.947500", "174106.737500", "174107.525000", "174108.312500", "174109.100000", "174109.890000", "174110.677500", "174111.465000", "174112.252500", "174113.042500", "174113.830000", "174114.617500", "174115.407500", "174116.195000", "174116.982500", "174117.770000", "174118.560000", "174119.347500", "174120.135000", "174120.922500", "174121.712500", "174122.500000", "174123.287500", "174124.075000", "174124.865000", "174125.652500", "174126.440000", "174127.227500", "174128.017500", "174128.805000", "174129.592500", "174130.380000", "174131.170000", "174131.957500", "174132.745000", "174133.535000", "174134.322500", "174135.110000", "174135.897500", "174136.687500", "174137.475000", "174138.262500", "174139.050000", "174139.840000", "174140.627500", "174141.415000", "174142.202500", "174142.992500", "174143.780000", "174144.567500", "174145.355000", "174146.145000", "174146.932500", "174147.720000", "174148.507500", "174149.297500", "174150.085000", "174150.872500", "174151.662500", "174152.450000", "174153.237500", "174154.025000", "174154.815000", "174155.602500", "174156.390000", "174157.177500", "174157.967500", "174158.755000", "174159.542500", "174200.330000", "174201.120000", "174201.907500", "174202.695000", "174203.482500", "174204.272500", "174205.060000", "174205.847500", "174206.635000", "174207.425000", "174208.212500", "174209.000000", "174209.790000", "174210.577500", "174211.365000", "174212.152500", "174212.942500", "174213.730000", "174214.517500", "174215.305000", "174216.095000", "174216.882500", "174217.670000", "174218.457500", "174219.247500", "174220.035000", "174220.822500", "174221.610000", "174222.400000", "174223.187500", "174223.975000", "174224.762500", "174225.552500", "174226.340000", "174227.127500", "174227.917500", "174228.705000", "174229.492500", "174230.280000", "174231.070000", "174231.857500", "174232.645000", "174233.432500", "174234.222500", "174235.010000", "174235.797500", "174236.585000", "174237.375000", "174238.162500", "174238.950000", "174239.737500", "174240.527500", "174241.315000", "174242.102500", "174242.890000", "174243.680000", "174244.467500", "174245.255000", "174246.045000", "174246.832500", "174247.620000", "174248.407500", "174249.197500", "174249.985000", "174250.772500", "174251.560000", "174252.350000", "174253.137500", "174253.925000", "174254.712500", "174255.502500", "174256.290000", "174257.077500", "174257.865000", "174258.655000", "174259.442500", "174300.230000", "174301.017500", "174301.807500", "174302.595000", "174303.382500", "174304.172500", "174304.960000", "174305.747500", "174306.535000", "174307.325000", "174308.112500", "174308.900000", "174309.687500", "174310.477500", "174311.265000", "174312.052500", "174312.840000", "174313.630000", "174314.417500", "174315.205000", "174315.992500", "174316.782500", "174317.570000", "174318.357500", "174319.145000", "174319.935000", "174320.722500", "174321.510000", "174322.300000", "174323.087500", "174323.875000", "174324.662500", "174325.452500", "174326.240000", "174327.027500", "174327.815000", "174328.605000", "174329.392500", "174330.180000", "174330.967500", "174331.757500", "174332.545000", "174333.332500", "174334.120000", "174334.910000", "174335.697500", "174336.485000", "174337.272500", "174338.062500", "174338.850000", "174339.637500", "174340.427500", "174341.215000", "174342.002500", "174342.790000", "174343.580000", "174344.367500", "174345.155000", "174345.942500", "174346.732500", "174347.520000", "174348.307500", "174349.095000", "174349.885000", "174350.672500", "174351.460000", "174352.247500", "174353.037500", "174353.825000", "174354.612500", "174355.402500", "174356.190000", "174356.977500", "174357.765000", "174358.555000", "174359.342500", "174400.130000", "174400.917500", "174401.707500", "174402.495000", "174403.282500", "174404.070000", "174404.860000", "174405.647500", "174406.435000", "174407.222500", "174408.012500", "174408.800000", "174409.587500", "174410.375000", "174411.165000", "174411.952500", "174412.740000", "174413.530000", "174414.317500", "174415.105000", "174415.892500", "174416.682500", "174417.470000", "174418.257500", "174419.045000", "174419.835000", "174420.622500", "174421.410000", "174422.197500", "174422.987500", "174423.775000", "174424.562500", "174425.350000", "174426.140000", "174426.927500", "174427.715000", "174428.502500", "174429.292500", "174430.080000", "174430.867500", "174431.657500", "174432.445000", "174433.232500", "174434.020000", "174434.810000", "174435.597500", "174436.385000", "174437.172500", "174437.962500", "174438.750000", "174439.537500", "174440.325000", "174441.115000", "174441.902500"],
      "ContentTime": ["173728.734000", "173728.734000", "173728.734000", "173728.734000", "173728.750000", "173728.750000", "173728.750000", "173728.750000", "173728.750000", "173728.750000", "173728.750000", "173728.765000", "173728.765000", "173728.765000", "173728.765000", "173728.765000", "173728.765000", "173728.765000", "173728.781000", "173728.781000", "173728.781000", "173728.781000", "173728.781000", "173728.781000", "173728.781000", "173728.796000", "173728.796000", "173748.703000", "173748.703000", "173748.703000", "173748.703000", "173748.718000", "173748.718000", "173748.718000", "173748.718000", "173748.718000", "173748.718000", "173748.718000", "173748.734000", "173748.734000", "173748.734000", "173748.734000", "173748.734000", "173748.734000", "173748.734000", "173748.750000", "173748.750000", "173748.750000", "173748.750000", "173748.750000", "173748.750000", "173748.765000", "173808.703000", "173808.703000", "173808.703000", "173808.703000", "173808.718000", "173808.718000", "173808.718000", "173808.718000", "173808.718000", "173808.718000", "173808.734000", "173808.734000", "173808.734000", "173808.734000", "173808.734000", "173808.734000", "173808.734000", "173808.750000", "173808.750000", "173808.750000", "173808.750000", "173808.750000", "173808.750000", "173808.765000", "173808.765000", "173808.765000", "173828.703000", "173828.703000", "173828.703000", "173828.703000", "173828.718000", "173828.718000", "173828.718000", "173828.718000", "173828.718000", "173828.718000", "173828.718000", "173828.734000", "173828.734000", "173828.734000", "173828.734000", "173828.734000", "173828.750000", "173828.750000", "173828.750000", "173828.750000", "173828.750000", "173828.750000", "173828.765000", "173828.765000", "173828.765000", "173848.703000", "173848.703000", "173848.703000", "173848.703000", "173848.718000", "173848.718000", "173848.718000", "173848.718000", "173848.718000", "173848.718000", "173848.734000", "173848.734000", "173848.734000", "173848.734000", "173848.734000", "173848.734000", "173848.734000", "173848.750000", "173848.750000", "173848.750000", "173848.750000", "173848.750000", "173848.750000", "173848.750000", "173848.765000", "173848.765000", "173908.703000", "173908.703000", "173908.703000", "173908.703000", "173908.718000", "173908.718000", "173908.718000", "173908.718000", "173908.718000", "173908.718000", "173908.718000", "173908.734000", "173908.734000", "173908.734000", "173908.734000", "173908.734000", "173908.734000", "173908.734000", "173908.750000", "173908.750000", "173908.750000", "173908.750000", "173908.750000", "173908.750000", "173908.750000", "173928.703000", "173928.703000", "173928.703000", "173928.703000", "173928.718000", "173928.718000", "173928.718000", "173928.718000", "173928.718000", "173928.718000", "173928.718000", "173928.734000", "173928.734000", "173928.734000", "173928.734000", "173928.734000", "173928.734000", "173928.750000", "173928.750000", "173928.750000", "173928.750000", "173928.750000", "173928.750000", "173928.750000", "173928.765000", "173928.765000", "173948.703000", "173948.703000", "173948.703000", "173948.703000", "173948.718000", "173948.718000", "173948.718000", "173948.718000", "173948.718000", "173948.718000", "173948.718000", "173948.734000", "173948.734000", "173948.734000", "173948.734000", "173948.734000", "173948.734000", "173948.734000", "173948.750000", "173948.750000", "173948.750000", "173948.750000", "173948.750000", "173948.750000", "173948.750000", "174008.703000", "174008.703000", "174008.703000", "174008.703000", "174008.718000", "174008.718000", "174008.718000", "174008.718000", "174008.718000", "174008.718000", "174008.718000", "174008.734000", "174008.734000", "174008.734000", "174008.734000", "174008.734000", "174008.734000", "174008.734000", "174008.750000", "174008.750000", "174008.750000", "174008.750000", "174008.750000", "174008.750000", "174008.750000", "174008.765000", "174028.703000", "174028.703000", "174028.703000", "174028.703000", "174028.718000", "174028.718000", "174028.718000", "174028.718000", "174028.718000", "174028.718000", "174028.718000", "174028.734000", "174028.734000", "174028.734000", "174028.734000", "174028.734000", "174028.734000", "174028.734000", "174028.750000", "174028.750000", "174028.750000", "174028.750000", "174028.750000", "174028.750000", "174028.750000", "174048.703000", "174048.703000", "174048.703000", "174048.718000", "174048.718000", "174048.718000", "174048.718000", "174048.718000", "174048.734000", "174048.734000", "174048.734000", "174048.734000", "174048.734000", "174048.734000", "174048.734000", "174048.734000", "174048.750000", "174048.750000", "174048.750000", "174048.750000", "174048.750000", "174048.750000", "174048.750000", "174048.765000", "174048.765000", "174048.765000", "174108.703000", "174108.703000", "174108.703000", "174108.703000", "174108.718000", "174108.718000", "174108.718000", "174108.718000", "174108.718000", "174108.718000", "174108.718000", "174108.734000", "174108.734000", "174108.734000", "174108.734000", "174108.734000", "174108.734000", "174108.734000", "174108.750000", "174108.750000", "174108.750000", "174108.750000", "174108.750000", "174108.765000", "174108.765000", "174128.703000", "174128.703000", "174128.703000", "174128.703000", "174128.718000", "174128.718000", "174128.718000", "174128.718000", "174128.718000", "174128.718000", "174128.734000", "174128.734000", "174128.734000", "174128.734000", "174128.734000", "174128.734000", "174128.734000", "174128.750000", "174128.750000", "174128.750000", "174128.750000", "174128.750000", "174128.750000", "174128.765000", "174128.765000", "174148.703000", "174148.703000", "174148.703000", "174148.703000", "174148.718000", "174148.718000", "174148.718000", "174148.718000", "174148.718000", "174148.718000", "174148.718000", "174148.734000", "174148.734000", "174148.734000", "174148.734000", "174148.734000", "174148.734000", "174148.734000", "174148.750000", "174148.750000", "174148.750000", "174148.750000", "174148.750000", "174148.750000", "174148.750000", "174148.765000", "174208.703000", "174208.703000", "174208.718000", "174208.718000", "174208.718000", "174208.718000", "174208.718000", "174208.718000", "174208.718000", "174208.734000", "174208.750000", "174208.750000", "174208.750000", "174208.750000", "174208.750000", "174208.765000", "174208.765000", "174208.765000", "174208.765000", "174208.765000", "174208.765000", "174208.765000", "174208.781000", "174208.781000", "174208.781000", "174228.703000", "174228.703000", "174228.718000", "174228.718000", "174228.718000", "174228.718000", "174228.718000", "174228.718000", "174228.718000", "174228.734000", "174228.734000", "174228.734000", "174228.734000", "174228.734000", "174228.734000", "174228.734000", "174228.734000", "174228.750000", "174228.750000", "174228.750000", "174228.750000", "174228.750000", "174228.765000", "174228.765000", "174228.765000", "174228.765000", "174248.703000", "174248.703000", "174248.703000", "174248.703000", "174248.718000", "174248.718000", "174248.718000", "174248.718000", "174248.718000", "174248.718000", "174248.718000", "174248.734000", "174248.734000", "174248.734000", "174248.734000", "174248.734000", "174248.734000", "174248.734000", "174248.750000", "174248.750000", "174248.750000", "174248.750000", "174248.750000", "174248.765000", "174248.765000", "174308.703000", "174308.703000", "174308.703000", "174308.703000", "174308.718000", "174308.718000", "174308.718000", "174308.718000", "174308.718000", "174308.734000", "174308.734000", "174308.734000", "174308.734000", "174308.734000", "174308.734000", "174308.734000", "174308.734000", "174308.750000", "174308.750000", "174308.750000", "174308.750000", "174308.750000", "174308.750000", "174308.750000", "174308.765000", "174308.765000", "174328.703000", "174328.703000", "174328.703000", "174328.703000", "174328.718000", "174328.718000", "174328.718000", "174328.718000", "174328.718000", "174328.734000", "174328.734000", "174328.734000", "174328.734000", "174328.734000", "174328.750000", "174328.750000", "174328.750000", "174328.750000", "174328.750000", "174328.750000", "174328.765000", "174328.765000", "174328.765000", "174328.765000", "174328.765000", "174348.703000", "174348.703000", "174348.703000", "174348.703000", "174348.718000", "174348.718000", "174348.718000", "174348.718000", "174348.718000", "174348.718000", "174348.718000", "174348.734000", "174348.734000", "174348.734000", "174348.734000", "174348.734000", "174348.734000", "174348.734000", "174348.750000", "174348.750000", "174348.750000", "174348.750000", "174348.750000", "174348.750000", "174348.765000", "174348.765000", "174408.703000", "174408.703000", "174408.703000", "174408.703000", "174408.718000", "174408.718000", "174408.718000", "174408.718000", "174408.718000", "174408.718000", "174408.718000", "174408.734000", "174408.734000", "174408.734000", "174408.734000", "174408.734000", "174408.734000", "174408.750000", "174408.750000", "174408.750000", "174408.750000", "174408.750000", "174408.750000", "174408.750000", "174408.765000", "174428.703000", "174428.703000", "174428.703000", "174428.703000", "174428.718000", "174428.718000", "174428.718000", "174428.718000", "174428.718000", "174428.718000", "174428.718000", "174428.734000", "174428.734000", "174428.734000", "174428.734000", "174428.734000", "174428.734000", "174428.734000", "174428.750000", "174428.750000", "174428.750000", "174428.750000", "174428.750000", "174428.765000", "174428.765000", "174428.765000", "174443.484000", "174443.484000", "174443.484000", "174443.500000", "174443.500000", "174443.500000", "174443.500000", "174443.500000", "174443.500000", "174443.500000", "174443.515000", "174443.515000", "174443.515000", "174443.515000", "174443.515000", "174443.515000", "174443.515000", "174443.531000", "174443.531000"],
