{
  "AcquisitionMatrixPE": 104,
  "AcquisitionNumber": 1,
  "AcquisitionTime": "17:20:52.707500",
  "BandwidthPerPixelPhaseEncode": 13.935,
  "BaseResolution": 104,
  "CoilString": "C:HEA;HEP",
  "ConversionSoftware": "dcm2niix",
  "ConversionSoftwareVersion": "v1.0.20210317",
  "DerivedVendorReportedEchoSpacing": 0.000690017,
  "DeviceSerialNumber": "35450",
  "DwellTime": 2.5e-06,
  "EchoTime": 0.0348,
  "EffectiveEchoSpacing": 0.000690017,
  "FlipAngle": 55,
  "ImageComments": "Unaliased MB8/PE3 (remote)",
  "ImageOrientationPatientDICOM": [1, 0, 0, 0, 0.996345, -0.0854169],
  "ImageType": [
    "ORIGINAL",
    "PRIMARY",
    "M",
    "MB",
    "ND",
    "MOSAIC"
],
  "ImagingFrequency": 123.235,
  "InPlanePhaseEncodingDirectionDICOM": "COL",
  "InstitutionAddress": "Univeristy Ave. 197,Newark,North East,US,07102-1814",
  "InstitutionName": "RUBIC",
  "InstitutionalDepartmentName": "Department",
  "MRAcquisitionType": "2D",
  "MagneticFieldStrength": 3,
  "Manufacturer": "Siemens",
  "ManufacturersModelName": "TrioTim",
  "Modality": "MR",
  "MultibandAccelerationFactor": 8,
  "PartialFourier": 0.875,
  "PatientPosition": "HFS",
  "PercentPhaseFOV": 100,
  "PercentSampling": 100,
  "PhaseEncodingDirection": "j-",
  "PhaseEncodingSteps": 91,
  "PhaseResolution": 1,
  "PixelBandwidth": 1923,
  "ProcedureStepDescription": "Cole^Michael",
  "ProtocolName": "cmrr_mbep2d_bold_2mm_MB8_Task_8x",
  "PulseSequenceDetails": "%CustomerSeq%\\cmrr_mbep2d_bold",
  "ReceiveCoilName": "32Ch_Head",
  "ReconMatrixPE": 104,
  "RepetitionTime": 0.785,
  "SAR": 0.12462,
  "ScanOptions": "PFP\\FS",
  "ScanningSequence": "EP",
  "SequenceName": "epfid2d1_104",
  "SequenceVariant": "SK\\SS",
  "SeriesDescription": "cmrr_mbep2d_bold_2mm_MB8_Task_8x",
  "SeriesNumber": 19,
  "ShimSetting": [2117, -337, -7324, 506, -64, -317, -341, 40],
  "SliceThickness": 2,
  "SliceTiming": [0, 0.4375, 0.0875, 0.525, 0.175, 0.6125, 0.2625, 0.7, 0.35, 0, 0.4375, 0.0875, 0.525, 0.175, 0.6125, 0.2625, 0.7, 0.35, 0, 0.4375, 0.0875, 0.525, 0.175, 0.6125, 0.2625, 0.7, 0.35, 0, 0.4375, 0.0875, 0.525, 0.175, 0.6125, 0.2625, 0.7, 0.35, 0, 0.4375, 0.0875, 0.525, 0.175, 0.6125, 0.2625, 0.7, 0.35, 0, 0.4375, 0.0875, 0.525, 0.175, 0.6125, 0.2625, 0.7, 0.35, 0, 0.4375, 0.0875, 0.525, 0.175, 0.6125, 0.2625, 0.7, 0.35, 0, 0.4375, 0.0875, 0.525, 0.175, 0.6125, 0.2625, 0.7, 0.35],
  "SoftwareVersions": "syngo MR B19",
  "SpacingBetweenSlices": 2,
  "StationName": "MRC35450",
  "TaskName": "cpro",
  "TotalReadoutTime": 0.0710717,
  "TxRefAmp": 367.684,
  "dcmmeta_affine": [
    [-2.0, 0.0, 0.0, 104.0],
    [0.0, 1.9926905632019043, -0.17083384096622467, -88.74421691894531],
    [0.0, 0.17083384096622467, 1.9926905632019043, -116.02446746826172],
    [0.0, 0.0, 0.0, 1.0]
],
  "dcmmeta_reorient_transform": [
    [0.0, -1.0, 0.0, 103.0],
    [1.0, 0.0, 0.0, 0.0],
    [0.0, 0.0, 1.0, 0.0],
    [0.0, 0.0, 0.0, 1.0]
],
  "dcmmeta_shape": [104, 104, 72, 581],
  "dcmmeta_slice_dim": 2,
  "dcmmeta_version": 0.6,
  "global": {
    "const": {
      "AcquisitionMatrix": [104, 0, 0, 104],
      "AngioFlag": "N",
      "BitsAllocated": 16,
      "BitsStored": 12,
      "Columns": 936,
      "EchoNumbers": 1,
      "EchoTime": 34.8,
      "EchoTrainLength": 1,
      "FlipAngle": 55.0,
      "HighBit": 11,
      "ImageOrientationPatient": [1.0, 0.0, 0.0, 0.0, 0.99634529631223, -0.0854169217223],
      "ImagePositionPatient": [-936.0, -945.46220058311, -27.361704322169],
      "ImageType": [
        "ORIGINAL",
        "PRIMARY",
        "M",
        "MB",
        "ND",
        "MOSAIC"
],
      "ImagedNucleus": "1H",
      "ImagingFrequency": 123.234562,
      "InPlanePhaseEncodingDirection": "COL",
      "MRAcquisitionType": "2D",
      "MagneticFieldStrength": 3.0,
      "Manufacturer": "SIEMENS",
      "ManufacturerModelName": "TrioTim",
      "Modality": "MR",
      "NumberOfAverages": 1.0,
      "NumberOfPhaseEncodingSteps": 91,
      "PercentPhaseFieldOfView": 100.0,
      "PercentSampling": 100.0,
      "PerformedProcedureStepStartTime": "153143.640000",
      "PhotometricInterpretation": "MONOCHROME2",
      "PixelBandwidth": 1923.0,
      "PixelRepresentation": 0,
      "PixelSpacing": [2.0, 2.0],
      "ProtocolName": "cmrr_mbep2d_bold_2mm_MB8_Task_8x",
      "RepetitionTime": 785.0,
      "Rows": 936,
      "SAR": 0.12461962131737,
      "SamplesPerPixel": 1,
      "ScanOptions": [
        "PFP",
        "FS"
],
      "ScanningSequence": "EP",
      "SequenceName": "epfid2d1_104",
      "SequenceVariant": [
        "SK",
        "SS"
],
      "SeriesDescription": "cmrr_mbep2d_bold_2mm_MB8_Task_8x",
      "SeriesNumber": 19,
      "SeriesTime": "172111.656000",
      "SliceLocation": -108.02017617904,
      "SliceThickness": 2.0,
      "SmallestImagePixelValue": 0,
      "SoftwareVersions": "syngo MR B19",
      "SpacingBetweenSlices": 1.9999999637998,
      "SpecificCharacterSet": "ISO_IR 100",
      "StudyID": "1",
      "StudyTime": "153143.578000",
      "TransmitCoilName": "Body",
      "VariableFlipAngleFlag": "N",
      "WindowCenterWidthExplanation": "Algo1",
      "dBdt": 0.0},
    "slices": {}
  },
  "time": {
    "samples": {
      "AcquisitionNumber": [1, 2, 3, 4, 5, 6, 7, 8, 9, 10, 11, 12, 13, 14, 15, 16, 17, 18, 19, 20, 21, 22, 23, 24, 25, 26, 27, 28, 29, 30, 31, 32, 33, 34, 35, 36, 37, 38, 39, 40, 41, 42, 43, 44, 45, 46, 47, 48, 49, 50, 51, 52, 53, 54, 55, 56, 57, 58, 59, 60, 61, 62, 63, 64, 65, 66, 67, 68, 69, 70, 71, 72, 73, 74, 75, 76, 77, 78, 79, 80, 81, 82, 83, 84, 85, 86, 87, 88, 89, 90, 91, 92, 93, 94, 95, 96, 97, 98, 99, 100, 101, 102, 103, 104, 105, 106, 107, 108, 109, 110, 111, 112, 113, 114, 115, 116, 117, 118, 119, 120, 121, 122, 123, 124, 125, 126, 127, 128, 129, 130, 131, 132, 133, 134, 135, 136, 137, 138, 139, 140, 141, 142, 143, 144, 145, 146, 147, 148, 149, 150, 151, 152, 153, 154, 155, 156, 157, 158, 159, 160, 161, 162, 163, 164, 165, 166, 167, 168, 169, 170, 171, 172, 173, 174, 175, 176, 177, 178, 179, 180, 181, 182, 183, 184, 185, 186, 187, 188, 189, 190, 191, 192, 193, 194, 195, 196, 197, 198, 199, 200, 201, 202, 203, 204, 205, 206, 207, 208, 209, 210, 211, 212, 213, 214, 215, 216, 217, 218, 219, 220, 221, 222, 223, 224, 225, 226, 227, 228, 229, 230, 231, 232, 233, 234, 235, 236, 237, 238, 239, 240, 241, 242, 243, 244, 245, 246, 247, 248, 249, 250, 251, 252, 253, 254, 255, 256, 257, 258, 259, 260, 261, 262, 263, 264, 265, 266, 267, 268, 269, 270, 271, 272, 273, 274, 275, 276, 277, 278, 279, 280, 281, 282, 283, 284, 285, 286, 287, 288, 289, 290, 291, 292, 293, 294, 295, 296, 297, 298, 299, 300, 301, 302, 303, 304, 305, 306, 307, 308, 309, 310, 311, 312, 313, 314, 315, 316, 317, 318, 319, 320, 321, 322, 323, 324, 325, 326, 327, 328, 329, 330, 331, 332, 333, 334, 335, 336, 337, 338, 339, 340, 341, 342, 343, 344, 345, 346, 347, 348, 349, 350, 351, 352, 353, 354, 355, 356, 357, 358, 359, 360, 361, 362, 363, 364, 365, 366, 367, 368, 369, 370, 371, 372, 373, 374, 375, 376, 377, 378, 379, 380, 381, 382, 383, 384, 385, 386, 387, 388, 389, 390, 391, 392, 393, 394, 395, 396, 397, 398, 399, 400, 401, 402, 403, 404, 405, 406, 407, 408, 409, 410, 411, 412, 413, 414, 415, 416, 417, 418, 419, 420, 421, 422, 423, 424, 425, 426, 427, 428, 429, 430, 431, 432, 433, 434, 435, 436, 437, 438, 439, 440, 441, 442, 443, 444, 445, 446, 447, 448, 449, 450, 451, 452, 453, 454, 455, 456, 457, 458, 459, 460, 461, 462, 463, 464, 465, 466, 467, 468, 469, 470, 471, 472, 473, 474, 475, 476, 477, 478, 479, 480, 481, 482, 483, 484, 485, 486, 487, 488, 489, 490, 491, 492, 493, 494, 495, 496, 497, 498, 499, 500, 501, 502, 503, 504, 505, 506, 507, 508, 509, 510, 511, 512, 513, 514, 515, 516, 517, 518, 519, 520, 521, 522, 523, 524, 525, 526, 527, 528, 529, 530, 531, 532, 533, 534, 535, 536, 537, 538, 539, 540, 541, 542, 543, 544, 545, 546, 547, 548, 549, 550, 551, 552, 553, 554, 555, 556, 557, 558, 559, 560, 561, 562, 563, 564, 565, 566, 567, 568, 569, 570, 571, 572, 573, 574, 575, 576, 577, 578, 579, 580, 581],
      "AcquisitionTime": ["172052.707500", "172053.495000", "172054.282500", "172055.070000", "172055.860000", "172056.647500", "172057.435000", "172058.222500", "172059.012500", "172059.800000", "172100.587500", "172101.375000", "172102.165000", "172102.952500", "172103.740000", "172104.530000", "172105.317500", "172106.105000", "172106.892500", "172107.682500", "172108.470000", "172109.257500", "172110.045000", "172110.835000", "172111.622500", "172112.410000", "172113.197500", "172113.987500", "172114.775000", "172115.562500", "172116.350000", "172117.140000", "172117.927500", "172118.715000", "172119.502500", "172120.292500", "172121.080000", "172121.867500", "172122.657500", "172123.445000", "172124.232500", "172125.020000", "172125.810000", "172126.597500", "172127.385000", "172128.172500", "172128.962500", "172129.750000", "172130.537500", "172131.325000", "172132.115000", "172132.902500", "172133.690000", "172134.477500", "172135.267500", "172136.055000", "172136.842500", "172137.630000", "172138.420000", "172139.207500", "172139.995000", "172140.785000", "172141.572500", "172142.360000", "172143.147500", "172143.937500", "172144.725000", "172145.512500", "172146.300000", "172147.090000", "172147.877500", "172148.665000", "172149.452500", "172150.242500", "172151.030000", "172151.817500", "172152.605000", "172153.395000", "172154.182500", "172154.970000", "172155.757500", "172156.547500", "172157.335000", "172158.122500", "172158.912500", "172159.700000", "172200.487500", "172201.275000", "172202.065000", "172202.852500", "172203.640000", "172204.427500", "172205.217500", "172206.005000", "172206.792500", "172207.580000", "172208.370000", "172209.157500", "172209.945000", "172210.732500", "172211.522500", "172212.310000", "172213.097500", "172213.885000", "172214.675000", "172215.462500", "172216.250000", "172217.040000", "172217.827500", "172218.615000", "172219.402500", "172220.192500", "172220.980000", "172221.767500", "172222.555000", "172223.345000", "172224.132500", "172224.920000", "172225.707500", "172226.497500", "172227.285000", "172228.072500", "172228.860000", "172229.650000", "172230.437500", "172231.225000", "172232.012500", "172232.802500", "172233.590000", "172234.377500", "172235.167500", "172235.955000", "172236.742500", "172237.530000", "172238.320000", "172239.107500", "172239.895000", "172240.682500", "172241.472500", "172242.260000", "172243.047500", "172243.835000", "172244.625000", "172245.412500", "172246.200000", "172246.987500", "172247.777500", "172248.565000", "172249.352500", "172250.140000", "172250.930000", "172251.717500", "172252.505000", "172253.295000", "172254.082500", "172254.870000", "172255.657500", "172256.447500", "172257.235000", "172258.022500", "172258.810000", "172259.600000", "172300.387500", "172301.175000", "172301.962500", "172302.752500", "172303.540000", "172304.327500", "172305.115000", "172305.905000", "172306.692500", "172307.480000", "172308.267500", "172309.057500", "172309.845000", "172310.632500", "172311.422500", "172312.210000", "172312.997500", "172313.785000", "172314.575000", "172315.362500", "172316.150000", "172316.937500", "172317.727500", "172318.515000", "172319.302500", "172320.090000", "172320.880000", "172321.667500", "172322.455000", "172323.242500", "172324.032500", "172324.820000", "172325.607500", "172326.395000", "172327.185000", "172327.972500", "172328.760000", "172329.550000", "172330.337500", "172331.125000", "172331.912500", "172332.702500", "172333.490000", "172334.277500", "172335.065000", "172335.855000", "172336.642500", "172337.430000", "172338.217500", "172339.007500", "172339.795000", "172340.582500", "172341.370000", "172342.160000", "172342.947500", "172343.735000", "172344.525000", "172345.312500", "172346.100000", "172346.887500", "172347.677500", "172348.465000", "172349.252500", "172350.040000", "172350.830000", "172351.617500", "172352.405000", "172353.192500", "172353.982500", "172354.770000", "172355.557500", "172356.345000", "172357.135000", "172357.922500", "172358.710000", "172359.497500", "172400.287500", "172401.075000", "172401.862500", "172402.652500", "172403.440000", "172404.227500", "172405.015000", "172405.805000", "172406.592500", "172407.380000", "172408.167500", "172408.957500", "172409.745000", "172410.532500", "172411.320000", "172412.110000", "172412.897500", "172413.685000", "172414.472500", "172415.262500", "172416.050000", "172416.837500", "172417.625000", "172418.415000", "172419.202500", "172419.990000", "172420.780000", "172421.567500", "172422.355000", "172423.142500", "172423.932500", "172424.720000", "172425.507500", "172426.295000", "172427.085000", "172427.872500", "172428.660000", "172429.447500", "172430.237500", "172431.025000", "172431.812500", "172432.600000", "172433.390000", "172434.177500", "172434.965000", "172435.752500", "172436.542500", "172437.330000", "172438.117500", "172438.907500", "172439.695000", "172440.482500", "172441.270000", "172442.060000", "172442.847500", "172443.635000", "172444.422500", "172445.212500", "172446.000000", "172446.787500", "172447.575000", "172448.365000", "172449.152500", "172449.940000", "172450.727500", "172451.517500", "172452.305000", "172453.092500", "172453.880000", "172454.670000", "172455.457500", "172456.245000", "172457.035000", "172457.822500", "172458.610000", "172459.397500", "172500.187500", "172500.975000", "172501.762500", "172502.550000", "172503.340000", "172504.127500", "172504.915000", "172505.702500", "172506.492500", "172507.280000", "172508.067500", "172508.855000", "172509.645000", "172510.432500", "172511.220000", "172512.007500", "172512.797500", "172513.585000", "172514.372500", "172515.162500", "172515.950000", "172516.737500", "172517.525000", "172518.315000", "172519.102500", "172519.890000", "172520.677500", "172521.467500", "172522.255000", "172523.042500", "172523.830000", "172524.620000", "172525.407500", "172526.195000", "172526.982500", "172527.772500", "172528.560000", "172529.347500", "172530.135000", "172530.925000", "172531.712500", "172532.500000", "172533.290000", "172534.077500", "172534.865000", "172535.652500", "172536.442500", "172537.230000", "172538.017500", "172538.805000", "172539.595000", "172540.382500", "172541.170000", "172541.957500", "172542.747500", "172543.535000", "172544.322500", "172545.110000", "172545.900000", "172546.687500", "172547.475000", "172548.262500", "172549.052500", "172549.840000", "172550.627500", "172551.417500", "172552.205000", "172552.992500", "172553.780000", "172554.570000", "172555.357500", "172556.145000", "172556.932500", "172557.722500", "172558.510000", "172559.297500", "172600.085000", "172600.875000", "172601.662500", "172602.450000", "172603.237500", "172604.027500", "172604.815000", "172605.602500", "172606.390000", "172607.180000", "172607.967500", "172608.755000", "172609.545000", "172610.332500", "172611.120000", "172611.907500", "172612.697500", "172613.485000", "172614.272500", "172615.060000", "172615.850000", "172616.637500", "172617.425000", "172618.212500", "172619.002500", "172619.790000", "172620.577500", "172621.365000", "172622.155000", "172622.942500", "172623.730000", "172624.517500", "172625.307500", "172626.095000", "172626.882500", "172627.672500", "172628.460000", "172629.247500", "172630.035000", "172630.825000", "172631.612500", "172632.400000", "172633.187500", "172633.977500", "172634.765000", "172635.552500", "172636.340000", "172637.130000", "172637.917500", "172638.705000", "172639.492500", "172640.282500", "172641.070000", "172641.857500", "172642.645000", "172643.435000", "172644.222500", "172645.010000", "172645.800000", "172646.587500", "172647.375000", "172648.162500", "172648.952500", "172649.740000", "172650.527500", "172651.315000", "172652.105000", "172652.892500", "172653.680000", "172654.467500", "172655.257500", "172656.045000", "172656.832500", "172657.620000", "172658.410000", "172659.197500", "172659.985000", "172700.775000", "172701.562500", "172702.350000", "172703.137500", "172703.927500", "172704.715000", "172705.502500", "172706.290000", "172707.080000", "172707.867500", "172708.655000", "172709.442500", "172710.232500", "172711.020000", "172711.807500", "172712.595000", "172713.385000", "172714.172500", "172714.960000", "172715.747500", "172716.537500", "172717.325000", "172718.112500", "172718.902500", "172719.690000", "172720.477500", "172721.265000", "172722.055000", "172722.842500", "172723.630000", "172724.417500", "172725.207500", "172725.995000", "172726.782500", "172727.570000", "172728.360000", "172729.147500", "172729.935000", "172730.722500", "172731.512500", "172732.300000", "172733.087500", "172733.875000", "172734.665000", "172735.452500", "172736.240000", "172737.030000", "172737.817500", "172738.605000", "172739.392500", "172740.182500", "172740.970000", "172741.757500", "172742.545000", "172743.335000", "172744.122500", "172744.910000", "172745.697500", "172746.487500", "172747.275000", "172748.062500", "172748.850000", "172749.640000", "172750.427500", "172751.215000", "172752.002500", "172752.792500", "172753.580000", "172754.367500", "172755.157500", "172755.945000", "172756.732500", "172757.520000", "172758.310000", "172759.097500", "172759.885000", "172800.672500", "172801.462500", "172802.250000", "172803.037500", "172803.825000", "172804.615000", "172805.402500", "172806.190000", "172806.977500", "172807.767500", "172808.555000", "172809.342500", "172810.130000", "172810.920000", "172811.707500", "172812.495000", "172813.285000", "172814.072500", "172814.860000", "172815.647500", "172816.437500", "172817.225000", "172818.012500", "172818.800000", "172819.590000", "172820.377500", "172821.165000", "172821.952500", "172822.742500", "172823.530000", "172824.317500", "172825.105000", "172825.895000", "172826.682500", "172827.470000", "172828.257500", "172829.047500", "172829.835000"],
      "ContentTime": ["172111.656000", "172111.656000", "172111.656000", "172111.671000", "172111.671000", "172111.671000", "172111.671000", "172111.671000", "172111.671000", "172111.671000", "172111.687000", "172111.687000", "172111.687000", "172111.687000", "172111.687000", "172111.687000", "172111.687000", "172111.703000", "172111.703000", "172111.703000", "172111.703000", "172131.625000", "172131.625000", "172131.625000", "172131.625000", "172131.640000", "172131.640000", "172131.640000", "172131.640000", "172131.640000", "172131.640000", "172131.640000", "172131.656000", "172131.656000", "172131.656000", "172131.656000", "172131.656000", "172131.656000", "172131.656000", "172131.671000", "172131.671000", "172131.671000", "172131.671000", "172131.671000", "172131.671000", "172131.671000", "172151.625000", "172151.625000", "172151.625000", "172151.625000", "172151.640000", "172151.640000", "172151.640000", "172151.640000", "172151.656000", "172151.656000", "172151.656000", "172151.656000", "172151.671000", "172151.671000", "172151.671000", "172151.671000", "172151.671000", "172151.687000", "172151.687000", "172151.687000", "172151.687000", "172151.687000", "172151.687000", "172151.687000", "172151.703000", "172211.625000", "172211.625000", "172211.625000", "172211.640000", "172211.640000", "172211.640000", "172211.640000", "172211.640000", "172211.656000", "172211.656000", "172211.656000", "172211.656000", "172211.656000", "172211.656000", "172211.656000", "172211.671000", "172211.671000", "172211.671000", "172211.671000", "172211.671000", "172211.671000", "172211.671000", "172211.687000", "172211.687000", "172211.687000", "172211.687000", "172231.625000", "172231.625000", "172231.625000", "172231.625000", "172231.640000", "172231.640000", "172231.640000", "172231.640000", "172231.640000", "172231.640000", "172231.640000", "172231.656000", "172231.656000", "172231.656000", "172231.656000", "172231.656000", "172231.656000", "172231.656000", "172231.671000", "172231.671000", "172231.671000", "172231.671000", "172231.671000", "172231.671000", "172231.671000", "172251.625000", "172251.625000", "172251.625000", "172251.625000", "172251.640000", "172251.640000", "172251.640000", "172251.640000", "172251.640000", "172251.640000", "172251.640000", "172251.656000", "172251.656000", "172251.656000", "172251.656000", "172251.656000", "172251.656000", "172251.656000", "172251.671000", "172251.671000", "172251.671000", "172251.671000", "172251.671000", "172251.671000", "172251.687000", "172251.687000", "172311.625000", "172311.625000", "172311.625000", "172311.625000", "172311.640000", "172311.640000", "172311.640000", "172311.640000", "172311.640000", "172311.640000", "172311.640000", "172311.656000", "172311.656000", "172311.656000", "172311.656000", "172311.656000", "172311.656000", "172311.656000", "172311.671000", "172311.671000", "172311.671000", "172311.671000", "172311.671000", "172311.671000", "172311.687000", "172331.625000", "172331.625000", "172331.625000", "172331.625000", "172331.640000", "172331.640000", "172331.640000", "172331.640000", "172331.640000", "172331.640000", "172331.640000", "172331.656000", "172331.656000", "172331.656000", "172331.656000", "172331.656000", "172331.656000", "172331.656000", "172331.671000", "172331.671000", "172331.671000", "172331.671000", "172331.671000", "172331.671000", "172331.671000", "172331.687000", "172351.625000", "172351.625000", "172351.625000", "172351.640000", "172351.640000", "172351.640000", "172351.640000", "172351.640000", "172351.640000", "172351.640000", "172351.656000", "172351.656000", "172351.656000", "172351.656000", "172351.656000", "172351.656000", "172351.656000", "172351.671000", "172351.671000", "172351.671000", "172351.671000", "172351.687000", "172351.687000", "172351.687000", "172351.687000", "172411.625000", "172411.625000", "172411.625000", "172411.625000", "172411.640000", "172411.640000", "172411.640000", "172411.640000", "172411.640000", "172411.640000", "172411.640000", "172411.656000", "172411.656000", "172411.656000", "172411.656000", "172411.656000", "172411.656000", "172411.671000", "172411.671000", "172411.671000", "172411.671000", "172411.671000", "172411.671000", "172411.671000", "172411.687000", "172411.687000", "172431.625000", "172431.625000", "172431.625000", "172431.640000", "172431.640000", "172431.640000", "172431.640000", "172431.640000", "172431.640000", "172431.656000", "172431.656000", "172431.656000", "172431.656000", "172431.656000", "172431.656000", "172431.656000", "172431.671000", "172431.671000", "172431.671000", "172431.671000", "172431.671000", "172431.671000", "172431.687000", "172431.687000", "172431.687000", "172451.625000", "172451.625000", "172451.625000", "172451.640000", "172451.640000", "172451.640000", "172451.640000", "172451.640000", "172451.640000", "172451.640000", "172451.656000", "172451.656000", "172451.656000", "172451.656000", "172451.656000", "172451.656000", "172451.656000", "172451.671000", "172451.671000", "172451.671000", "172451.671000", "172451.671000", "172451.671000", "172451.671000", "172451.687000", "172451.687000", "172511.625000", "172511.625000", "172511.625000", "172511.625000", "172511.640000", "172511.640000", "172511.640000", "172511.640000", "172511.640000", "172511.656000", "172511.656000", "172511.656000", "172511.656000", "172511.656000", "172511.656000", "172511.656000", "172511.671000", "172511.671000", "172511.671000", "172511.671000", "172511.687000", "172511.687000", "172511.687000", "172511.687000", "172511.687000", "172531.625000", "172531.625000", "172531.625000", "172531.625000", "172531.640000", "172531.640000", "172531.640000", "172531.640000", "172531.640000", "172531.656000", "172531.656000", "172531.656000", "172531.656000", "172531.656000", "172531.656000", "172531.656000", "172531.671000", "172531.671000", "172531.671000", "172531.671000", "172531.671000", "172531.671000", "172531.687000", "172531.687000", "172531.687000", "172531.687000", "172551.625000", "172551.625000", "172551.625000", "172551.625000", "172551.640000", "172551.640000", "172551.640000", "172551.640000", "172551.640000", "172551.640000", "172551.640000", "172551.656000", "172551.656000", "172551.656000", "172551.656000", "172551.656000", "172551.656000", "172551.656000", "172551.671000", "172551.671000", "172551.671000", "172551.671000", "172551.671000", "172551.671000", "172551.687000", "172611.625000", "172611.625000", "172611.625000", "172611.625000", "172611.640000", "172611.640000", "172611.640000", "172611.640000", "172611.640000", "172611.640000", "172611.640000", "172611.656000", "172611.656000", "172611.656000", "172611.656000", "172611.656000", "172611.656000", "172611.671000", "172611.671000", "172611.671000", "172611.671000", "172611.671000", "172611.671000", "172611.671000", "172611.687000", "172611.687000", "172631.625000", "172631.625000", "172631.625000", "172631.625000", "172631.640000", "172631.640000", "172631.640000", "172631.640000", "172631.640000", "172631.656000", "172631.656000", "172631.656000", "172631.656000", "172631.656000", "172631.656000", "172631.671000", "172631.671000", "172631.671000", "172631.671000", "172631.671000", "172631.671000", "172631.687000", "172631.687000", "172631.687000", "172631.687000", "172651.625000", "172651.625000", "172651.625000", "172651.625000", "172651.640000", "172651.640000", "172651.640000", "172651.640000", "172651.640000", "172651.640000", "172651.640000", "172651.656000", "172651.656000", "172651.656000", "172651.656000", "172651.656000", "172651.656000", "172651.656000", "172651.671000", "172651.671000", "172651.671000", "172651.671000", "172651.687000", "172651.687000", "172651.687000", "172651.687000", "172711.625000", "172711.625000", "172711.625000", "172711.625000", "172711.640000", "172711.640000", "172711.640000", "172711.640000", "172711.640000", "172711.640000", "172711.656000", "172711.656000", "172711.656000", "172711.656000", "172711.656000", "172711.656000", "172711.656000", "172711.671000", "172711.671000", "172711.671000", "172711.671000", "172711.671000", "172711.687000", "172711.687000", "172711.687000", "172731.625000", "172731.625000", "172731.625000", "172731.625000", "172731.640000", "172731.640000", "172731.640000", "172731.640000", "172731.640000", "172731.640000", "172731.656000", "172731.656000", "172731.656000", "172731.656000", "172731.656000", "172731.656000", "172731.656000", "172731.671000", "172731.671000", "172731.671000", "172731.671000", "172731.671000", "172731.687000", "172731.687000", "172731.687000", "172731.687000", "172751.625000", "172751.625000", "172751.625000", "172751.625000", "172751.640000", "172751.640000", "172751.640000", "172751.640000", "172751.640000", "172751.640000", "172751.640000", "172751.656000", "172751.656000", "172751.656000", "172751.656000", "172751.656000", "172751.656000", "172751.671000", "172751.671000", "172751.671000", "172751.671000", "172751.671000", "172751.671000", "172751.671000", "172751.687000", "172811.625000", "172811.625000", "172811.625000", "172811.625000", "172811.640000", "172811.640000", "172811.640000", "172811.640000", "172811.640000", "172811.656000", "172811.656000", "172811.656000", "172811.656000", "172811.656000", "172811.656000", "172811.656000", "172811.671000", "172811.671000", "172811.671000", "172811.671000", "172811.671000", "172811.671000", "172811.671000", "172811.687000", "172811.687000", "172811.687000", "172831.187000", "172831.187000", "172831.187000", "172831.187000", "172831.187000", "172831.203000", "172831.203000", "172831.203000", "172831.203000", "172831.203000", "172831.203000", "172831.203000", "172831.218000", "172831.218000", "172831.218000", "172831.218000", "172831.218000", "172831.218000", "172831.234000", "172831.234000", "172831.234000", "172831.234000", "172831.234000", "172831.234000", "172831.234000"],
