{
  "AcquisitionMatrixPE": 104,
  "AcquisitionNumber": 1,
  "AcquisitionTime": "17:12:50.632500",
  "BandwidthPerPixelPhaseEncode": 13.935,
  "BaseResolution": 104,
  "CoilString": "C:HEA;HEP",
  "ConversionSoftware": "dcm2niix",
  "ConversionSoftwareVersion": "v1.0.20210317",
  "DerivedVendorReportedEchoSpacing": 0.000690017,
  "DeviceSerialNumber": "35450",
  "DwellTime": 2.5e-06,
  "EchoTime": 0.0348,
  "EffectiveEchoSpacing": 0.000690017,
  "FlipAngle": 55,
  "ImageComments": "Unaliased MB8/PE3 (remote)",
  "ImageOrientationPatientDICOM": [1, 0, 0, 0, 0.996345, -0.0854169],
  "ImageType": [
    "ORIGINAL",
    "PRIMARY",
    "M",
    "MB",
    "ND",
    "MOSAIC"
],
  "ImagingFrequency": 123.235,
  "InPlanePhaseEncodingDirectionDICOM": "COL",
  "InstitutionAddress": "Univeristy Ave. 197,Newark,North East,US,07102-1814",
  "InstitutionName": "RUBIC",
  "InstitutionalDepartmentName": "Department",
  "MRAcquisitionType": "2D",
  "MagneticFieldStrength": 3,
  "Manufacturer": "Siemens",
  "ManufacturersModelName": "TrioTim",
  "Modality": "MR",
  "MultibandAccelerationFactor": 8,
  "PartialFourier": 0.875,
  "PatientPosition": "HFS",
  "PercentPhaseFOV": 100,
  "PercentSampling": 100,
  "PhaseEncodingDirection": "j-",
  "PhaseEncodingSteps": 91,
  "PhaseResolution": 1,
  "PixelBandwidth": 1923,
  "ProcedureStepDescription": "Cole^Michael",
  "ProtocolName": "cmrr_mbep2d_bold_2mm_MB8_Task_8x",
  "PulseSequenceDetails": "%CustomerSeq%\\cmrr_mbep2d_bold",
  "ReceiveCoilName": "32Ch_Head",
  "ReconMatrixPE": 104,
  "RepetitionTime": 0.785,
  "SAR": 0.127977,
  "ScanOptions": "PFP\\FS",
  "ScanningSequence": "EP",
  "SequenceName": "epfid2d1_104",
  "SequenceVariant": "SK\\SS",
  "SeriesDescription": "cmrr_mbep2d_bold_2mm_MB8_Task_8x",
  "SeriesNumber": 17,
  "ShimSetting": [2117, -337, -7324, 506, -64, -317, -341, 40],
  "SliceThickness": 2,
  "SliceTiming": [0, 0.4375, 0.0875, 0.525, 0.175, 0.6125, 0.2625, 0.7, 0.35, 0, 0.4375, 0.0875, 0.525, 0.175, 0.6125, 0.2625, 0.7, 0.35, 0, 0.4375, 0.0875, 0.525, 0.175, 0.6125, 0.2625, 0.7, 0.35, 0, 0.4375, 0.0875, 0.525, 0.175, 0.6125, 0.2625, 0.7, 0.35, 0, 0.4375, 0.0875, 0.525, 0.175, 0.6125, 0.2625, 0.7, 0.35, 0, 0.4375, 0.0875, 0.525, 0.175, 0.6125, 0.2625, 0.7, 0.35, 0, 0.4375, 0.0875, 0.525, 0.175, 0.6125, 0.2625, 0.7, 0.35, 0, 0.4375, 0.0875, 0.525, 0.175, 0.6125, 0.2625, 0.7, 0.35],
  "SoftwareVersions": "syngo MR B19",
  "SpacingBetweenSlices": 2,
  "StationName": "MRC35450",
  "TaskName": "cpro",
  "TotalReadoutTime": 0.0710717,
  "TxRefAmp": 367.684,
  "dcmmeta_affine": [
    [-2.0, 0.0, 0.0, 104.0],
    [0.0, 1.9926905632019043, -0.17083384096622467, -88.74421691894531],
    [0.0, 0.17083384096622467, 1.9926905632019043, -116.02446746826172],
    [0.0, 0.0, 0.0, 1.0]
],
  "dcmmeta_reorient_transform": [
    [0.0, -1.0, 0.0, 103.0],
    [1.0, 0.0, 0.0, 0.0],
    [0.0, 0.0, 1.0, 0.0],
    [0.0, 0.0, 0.0, 1.0]
],
  "dcmmeta_shape": [104, 104, 72, 581],
  "dcmmeta_slice_dim": 2,
  "dcmmeta_version": 0.6,
  "global": {
    "const": {
      "AcquisitionMatrix": [104, 0, 0, 104],
      "AngioFlag": "N",
      "BitsAllocated": 16,
      "BitsStored": 12,
      "Columns": 936,
      "EchoNumbers": 1,
      "EchoTime": 34.8,
      "EchoTrainLength": 1,
      "FlipAngle": 55.0,
      "HighBit": 11,
      "ImageOrientationPatient": [1.0, 0.0, 0.0, 0.0, 0.99634529631223, -0.0854169217223],
      "ImagePositionPatient": [-936.0, -945.46220058311, -27.361704322169],
      "ImageType": [
        "ORIGINAL",
        "PRIMARY",
        "M",
        "MB",
        "ND",
        "MOSAIC"
],
      "ImagedNucleus": "1H",
      "ImagingFrequency": 123.234562,
      "InPlanePhaseEncodingDirection": "COL",
      "MRAcquisitionType": "2D",
      "MagneticFieldStrength": 3.0,
      "Manufacturer": "SIEMENS",
      "ManufacturerModelName": "TrioTim",
      "Modality": "MR",
      "NumberOfAverages": 1.0,
      "NumberOfPhaseEncodingSteps": 91,
      "PercentPhaseFieldOfView": 100.0,
      "PercentSampling": 100.0,
      "PerformedProcedureStepStartTime": "153143.640000",
      "PhotometricInterpretation": "MONOCHROME2",
      "PixelBandwidth": 1923.0,
      "PixelRepresentation": 0,
      "PixelSpacing": [2.0, 2.0],
      "ProtocolName": "cmrr_mbep2d_bold_2mm_MB8_Task_8x",
      "RepetitionTime": 785.0,
      "Rows": 936,
      "SAR": 0.12797748418095,
      "SamplesPerPixel": 1,
      "ScanOptions": [
        "PFP",
        "FS"
],
      "ScanningSequence": "EP",
      "SequenceName": "epfid2d1_104",
      "SequenceVariant": [
        "SK",
        "SS"
],
      "SeriesDescription": "cmrr_mbep2d_bold_2mm_MB8_Task_8x",
      "SeriesNumber": 17,
      "SeriesTime": "171308.734000",
      "SliceLocation": -108.02017617904,
      "SliceThickness": 2.0,
      "SmallestImagePixelValue": 0,
      "SoftwareVersions": "syngo MR B19",
      "SpacingBetweenSlices": 1.9999999637998,
      "SpecificCharacterSet": "ISO_IR 100",
      "StudyID": "1",
      "StudyTime": "153143.578000",
      "TransmitCoilName": "Body",
      "VariableFlipAngleFlag": "N",
      "WindowCenterWidthExplanation": "Algo1",
      "dBdt": 0.0},
    "slices": {}
  },
  "time": {
    "samples": {
      "AcquisitionNumber": [1, 2, 3, 4, 5, 6, 7, 8, 9, 10, 11, 12, 13, 14, 15, 16, 17, 18, 19, 20, 21, 22, 23, 24, 25, 26, 27, 28, 29, 30, 31, 32, 33, 34, 35, 36, 37, 38, 39, 40, 41, 42, 43, 44, 45, 46, 47, 48, 49, 50, 51, 52, 53, 54, 55, 56, 57, 58, 59, 60, 61, 62, 63, 64, 65, 66, 67, 68, 69, 70, 71, 72, 73, 74, 75, 76, 77, 78, 79, 80, 81, 82, 83, 84, 85, 86, 87, 88, 89, 90, 91, 92, 93, 94, 95, 96, 97, 98, 99, 100, 101, 102, 103, 104, 105, 106, 107, 108, 109, 110, 111, 112, 113, 114, 115, 116, 117, 118, 119, 120, 121, 122, 123, 124, 125, 126, 127, 128, 129, 130, 131, 132, 133, 134, 135, 136, 137, 138, 139, 140, 141, 142, 143, 144, 145, 146, 147, 148, 149, 150, 151, 152, 153, 154, 155, 156, 157, 158, 159, 160, 161, 162, 163, 164, 165, 166, 167, 168, 169, 170, 171, 172, 173, 174, 175, 176, 177, 178, 179, 180, 181, 182, 183, 184, 185, 186, 187, 188, 189, 190, 191, 192, 193, 194, 195, 196, 197, 198, 199, 200, 201, 202, 203, 204, 205, 206, 207, 208, 209, 210, 211, 212, 213, 214, 215, 216, 217, 218, 219, 220, 221, 222, 223, 224, 225, 226, 227, 228, 229, 230, 231, 232, 233, 234, 235, 236, 237, 238, 239, 240, 241, 242, 243, 244, 245, 246, 247, 248, 249, 250, 251, 252, 253, 254, 255, 256, 257, 258, 259, 260, 261, 262, 263, 264, 265, 266, 267, 268, 269, 270, 271, 272, 273, 274, 275, 276, 277, 278, 279, 280, 281, 282, 283, 284, 285, 286, 287, 288, 289, 290, 291, 292, 293, 294, 295, 296, 297, 298, 299, 300, 301, 302, 303, 304, 305, 306, 307, 308, 309, 310, 311, 312, 313, 314, 315, 316, 317, 318, 319, 320, 321, 322, 323, 324, 325, 326, 327, 328, 329, 330, 331, 332, 333, 334, 335, 336, 337, 338, 339, 340, 341, 342, 343, 344, 345, 346, 347, 348, 349, 350, 351, 352, 353, 354, 355, 356, 357, 358, 359, 360, 361, 362, 363, 364, 365, 366, 367, 368, 369, 370, 371, 372, 373, 374, 375, 376, 377, 378, 379, 380, 381, 382, 383, 384, 385, 386, 387, 388, 389, 390, 391, 392, 393, 394, 395, 396, 397, 398, 399, 400, 401, 402, 403, 404, 405, 406, 407, 408, 409, 410, 411, 412, 413, 414, 415, 416, 417, 418, 419, 420, 421, 422, 423, 424, 425, 426, 427, 428, 429, 430, 431, 432, 433, 434, 435, 436, 437, 438, 439, 440, 441, 442, 443, 444, 445, 446, 447, 448, 449, 450, 451, 452, 453, 454, 455, 456, 457, 458, 459, 460, 461, 462, 463, 464, 465, 466, 467, 468, 469, 470, 471, 472, 473, 474, 475, 476, 477, 478, 479, 480, 481, 482, 483, 484, 485, 486, 487, 488, 489, 490, 491, 492, 493, 494, 495, 496, 497, 498, 499, 500, 501, 502, 503, 504, 505, 506, 507, 508, 509, 510, 511, 512, 513, 514, 515, 516, 517, 518, 519, 520, 521, 522, 523, 524, 525, 526, 527, 528, 529, 530, 531, 532, 533, 534, 535, 536, 537, 538, 539, 540, 541, 542, 543, 544, 545, 546, 547, 548, 549, 550, 551, 552, 553, 554, 555, 556, 557, 558, 559, 560, 561, 562, 563, 564, 565, 566, 567, 568, 569, 570, 571, 572, 573, 574, 575, 576, 577, 578, 579, 580, 581],
      "AcquisitionTime": ["171250.632500", "171251.420000", "171252.210000", "171252.997500", "171253.785000", "171254.572500", "171255.362500", "171256.150000", "171256.937500", "171257.725000", "171258.515000", "171259.302500", "171300.090000", "171300.877500", "171301.667500", "171302.455000", "171303.242500", "171304.032500", "171304.820000", "171305.607500", "171306.395000", "171307.185000", "171307.972500", "171308.760000", "171309.547500", "171310.337500", "171311.125000", "171311.912500", "171312.700000", "171313.490000", "171314.277500", "171315.065000", "171315.852500", "171316.642500", "171317.430000", "171318.217500", "171319.005000", "171319.795000", "171320.582500", "171321.370000", "171322.160000", "171322.947500", "171323.735000", "171324.522500", "171325.312500", "171326.100000", "171326.887500", "171327.675000", "171328.465000", "171329.252500", "171330.040000", "171330.827500", "171331.617500", "171332.405000", "171333.192500", "171333.980000", "171334.770000", "171335.557500", "171336.345000", "171337.135000", "171337.922500", "171338.710000", "171339.497500", "171340.287500", "171341.075000", "171341.862500", "171342.650000", "171343.440000", "171344.227500", "171345.015000", "171345.802500", "171346.592500", "171347.380000", "171348.167500", "171348.955000", "171349.745000", "171350.532500", "171351.320000", "171352.107500", "171352.897500", "171353.685000", "171354.472500", "171355.262500", "171356.050000", "171356.837500", "171357.625000", "171358.415000", "171359.202500", "171359.990000", "171400.777500", "171401.567500", "171402.355000", "171403.142500", "171403.930000", "171404.720000", "171405.507500", "171406.295000", "171407.082500", "171407.872500", "171408.660000", "171409.447500", "171410.235000", "171411.025000", "171411.812500", "171412.600000", "171413.390000", "171414.177500", "171414.965000", "171415.752500", "171416.542500", "171417.330000", "171418.117500", "171418.905000", "171419.695000", "171420.482500", "171421.270000", "171422.057500", "171422.847500", "171423.635000", "171424.422500", "171425.210000", "171426.000000", "171426.787500", "171427.575000", "171428.362500", "171429.152500", "171429.940000", "171430.727500", "171431.517500", "171432.305000", "171433.092500", "171433.880000", "171434.670000", "171435.457500", "171436.245000", "171437.032500", "171437.822500", "171438.610000", "171439.397500", "171440.185000", "171440.975000", "171441.762500", "171442.550000", "171443.337500", "171444.127500", "171444.915000", "171445.702500", "171446.490000", "171447.280000", "171448.067500", "171448.855000", "171449.645000", "171450.432500", "171451.220000", "171452.007500", "171452.797500", "171453.585000", "171454.372500", "171455.160000", "171455.950000", "171456.737500", "171457.525000", "171458.312500", "171459.102500", "171459.890000", "171500.677500", "171501.465000", "171502.255000", "171503.042500", "171503.830000", "171504.617500", "171505.407500", "171506.195000", "171506.982500", "171507.772500", "171508.560000", "171509.347500", "171510.135000", "171510.925000", "171511.712500", "171512.500000", "171513.287500", "171514.077500", "171514.865000", "171515.652500", "171516.440000", "171517.230000", "171518.017500", "171518.805000", "171519.592500", "171520.382500", "171521.170000", "171521.957500", "171522.745000", "171523.535000", "171524.322500", "171525.110000", "171525.900000", "171526.687500", "171527.475000", "171528.262500", "171529.052500", "171529.840000", "171530.627500", "171531.415000", "171532.205000", "171532.992500", "171533.780000", "171534.567500", "171535.357500", "171536.145000", "171536.932500", "171537.720000", "171538.510000", "171539.297500", "171540.085000", "171540.872500", "171541.662500", "171542.450000", "171543.237500", "171544.027500", "171544.815000", "171545.602500", "171546.390000", "171547.180000", "171547.967500", "171548.755000", "171549.542500", "171550.332500", "171551.120000", "171551.907500", "171552.695000", "171553.485000", "171554.272500", "171555.060000", "171555.847500", "171556.637500", "171557.425000", "171558.212500", "171559.000000", "171559.790000", "171600.577500", "171601.365000", "171602.155000", "171602.942500", "171603.730000", "171604.517500", "171605.307500", "171606.095000", "171606.882500", "171607.670000", "171608.460000", "171609.247500", "171610.035000", "171610.822500", "171611.612500", "171612.400000", "171613.187500", "171613.975000", "171614.765000", "171615.552500", "171616.340000", "171617.127500", "171617.917500", "171618.705000", "171619.492500", "171620.282500", "171621.070000", "171621.857500", "171622.645000", "171623.435000", "171624.222500", "171625.010000", "171625.797500", "171626.587500", "171627.375000", "171628.162500", "171628.950000", "171629.740000", "171630.527500", "171631.315000", "171632.102500", "171632.892500", "171633.680000", "171634.467500", "171635.255000", "171636.045000", "171636.832500", "171637.620000", "171638.410000", "171639.197500", "171639.985000", "171640.772500", "171641.562500", "171642.350000", "171643.137500", "171643.925000", "171644.715000", "171645.502500", "171646.290000", "171647.077500", "171647.867500", "171648.655000", "171649.442500", "171650.230000", "171651.020000", "171651.807500", "171652.595000", "171653.385000", "171654.172500", "171654.960000", "171655.747500", "171656.537500", "171657.325000", "171658.112500", "171658.900000", "171659.690000", "171700.477500", "171701.265000", "171702.052500", "171702.842500", "171703.630000", "171704.417500", "171705.205000", "171705.995000", "171706.782500", "171707.570000", "171708.357500", "171709.147500", "171709.935000", "171710.722500", "171711.512500", "171712.300000", "171713.087500", "171713.875000", "171714.665000", "171715.452500", "171716.240000", "171717.027500", "171717.817500", "171718.605000", "171719.392500", "171720.180000", "171720.970000", "171721.757500", "171722.545000", "171723.332500", "171724.122500", "171724.910000", "171725.697500", "171726.485000", "171727.275000", "171728.062500", "171728.850000", "171729.640000", "171730.427500", "171731.215000", "171732.002500", "171732.792500", "171733.580000", "171734.367500", "171735.155000", "171735.945000", "171736.732500", "171737.520000", "171738.307500", "171739.097500", "171739.885000", "171740.672500", "171741.460000", "171742.250000", "171743.037500", "171743.825000", "171744.612500", "171745.402500", "171746.190000", "171746.977500", "171747.767500", "171748.555000", "171749.342500", "171750.130000", "171750.920000", "171751.707500", "171752.495000", "171753.282500", "171754.072500", "171754.860000", "171755.647500", "171756.435000", "171757.225000", "171758.012500", "171758.800000", "171759.587500", "171800.377500", "171801.165000", "171801.952500", "171802.740000", "171803.530000", "171804.317500", "171805.105000", "171805.895000", "171806.682500", "171807.470000", "171808.257500", "171809.047500", "171809.835000", "171810.622500", "171811.410000", "171812.200000", "171812.987500", "171813.775000", "171814.562500", "171815.352500", "171816.140000", "171816.927500", "171817.715000", "171818.505000", "171819.292500", "171820.080000", "171820.867500", "171821.657500", "171822.445000", "171823.232500", "171824.022500", "171824.810000", "171825.597500", "171826.385000", "171827.175000", "171827.962500", "171828.750000", "171829.537500", "171830.327500", "171831.115000", "171831.902500", "171832.690000", "171833.480000", "171834.267500", "171835.055000", "171835.842500", "171836.632500", "171837.420000", "171838.207500", "171838.995000", "171839.785000", "171840.572500", "171841.360000", "171842.150000", "171842.937500", "171843.725000", "171844.512500", "171845.302500", "171846.090000", "171846.877500", "171847.665000", "171848.455000", "171849.242500", "171850.030000", "171850.817500", "171851.607500", "171852.395000", "171853.182500", "171853.970000", "171854.760000", "171855.547500", "171856.335000", "171857.122500", "171857.912500", "171858.700000", "171859.487500", "171900.277500", "171901.065000", "171901.852500", "171902.640000", "171903.430000", "171904.217500", "171905.005000", "171905.792500", "171906.582500", "171907.370000", "171908.157500", "171908.945000", "171909.735000", "171910.522500", "171911.310000", "171912.097500", "171912.887500", "171913.675000", "171914.462500", "171915.250000", "171916.040000", "171916.827500", "171917.615000", "171918.405000", "171919.192500", "171919.980000", "171920.767500", "171921.557500", "171922.345000", "171923.132500", "171923.920000", "171924.710000", "171925.497500", "171926.285000", "171927.072500", "171927.862500", "171928.650000", "171929.437500", "171930.225000", "171931.015000", "171931.802500", "171932.590000", "171933.377500", "171934.167500", "171934.955000", "171935.742500", "171936.532500", "171937.320000", "171938.107500", "171938.895000", "171939.685000", "171940.472500", "171941.260000", "171942.047500", "171942.837500", "171943.625000", "171944.412500", "171945.200000", "171945.990000", "171946.777500", "171947.565000", "171948.352500", "171949.142500", "171949.930000", "171950.717500", "171951.505000", "171952.295000", "171953.082500", "171953.870000", "171954.660000", "171955.447500", "171956.235000", "171957.022500", "171957.812500", "171958.600000", "171959.387500", "172000.175000", "172000.965000", "172001.752500", "172002.540000", "172003.327500", "172004.117500", "172004.905000", "172005.692500", "172006.480000", "172007.270000", "172008.057500", "172008.845000", "172009.635000", "172010.422500", "172011.210000", "172011.997500", "172012.787500", "172013.575000", "172014.362500", "172015.150000", "172015.940000", "172016.727500", "172017.515000", "172018.302500", "172019.092500", "172019.880000", "172020.667500", "172021.455000", "172022.245000", "172023.032500", "172023.820000", "172024.607500", "172025.397500", "172026.185000", "172026.972500", "172027.762500"],
      "ContentTime": ["171308.734000", "171308.734000", "171308.734000", "171308.734000", "171308.734000", "171308.750000", "171308.750000", "171308.750000", "171308.750000", "171308.750000", "171308.750000", "171308.750000", "171308.765000", "171308.765000", "171308.765000", "171308.765000", "171308.765000", "171308.765000", "171308.765000", "171308.781000", "171328.703000", "171328.703000", "171328.703000", "171328.703000", "171328.718000", "171328.718000", "171328.718000", "171328.718000", "171328.718000", "171328.718000", "171328.718000", "171328.734000", "171328.734000", "171328.734000", "171328.734000", "171328.734000", "171328.734000", "171328.734000", "171328.734000", "171328.750000", "171328.750000", "171328.750000", "171328.750000", "171328.750000", "171328.750000", "171328.750000", "171348.703000", "171348.703000", "171348.703000", "171348.703000", "171348.718000", "171348.718000", "171348.718000", "171348.718000", "171348.718000", "171348.718000", "171348.718000", "171348.734000", "171348.734000", "171348.734000", "171348.734000", "171348.734000", "171348.734000", "171348.734000", "171348.750000", "171348.750000", "171348.750000", "171348.750000", "171348.750000", "171348.750000", "171348.750000", "171408.703000", "171408.703000", "171408.703000", "171408.703000", "171408.718000", "171408.718000", "171408.734000", "171408.750000", "171408.750000", "171408.750000", "171408.750000", "171408.750000", "171408.750000", "171408.765000", "171408.765000", "171408.765000", "171408.765000", "171408.765000", "171408.765000", "171408.765000", "171408.781000", "171408.781000", "171408.781000", "171408.781000", "171408.781000", "171428.703000", "171428.703000", "171428.703000", "171428.703000", "171428.718000", "171428.718000", "171428.718000", "171428.718000", "171428.718000", "171428.718000", "171428.718000", "171428.734000", "171428.734000", "171428.734000", "171428.734000", "171428.734000", "171428.734000", "171428.734000", "171428.750000", "171428.750000", "171428.750000", "171428.750000", "171428.750000", "171428.750000", "171428.750000", "171428.765000", "171448.703000", "171448.703000", "171448.703000", "171448.703000", "171448.718000", "171448.718000", "171448.718000", "171448.718000", "171448.718000", "171448.718000", "171448.718000", "171448.734000", "171448.734000", "171448.734000", "171448.734000", "171448.750000", "171448.750000", "171448.750000", "171448.750000", "171448.750000", "171448.765000", "171448.765000", "171448.765000", "171448.765000", "171448.765000", "171508.703000", "171508.703000", "171508.703000", "171508.703000", "171508.718000", "171508.718000", "171508.718000", "171508.718000", "171508.718000", "171508.718000", "171508.718000", "171508.734000", "171508.734000", "171508.734000", "171508.734000", "171508.734000", "171508.734000", "171508.734000", "171508.750000", "171508.750000", "171508.750000", "171508.750000", "171508.750000", "171508.750000", "171508.750000", "171508.765000", "171528.703000", "171528.703000", "171528.703000", "171528.703000", "171528.718000", "171528.718000", "171528.718000", "171528.734000", "171528.734000", "171528.734000", "171528.734000", "171528.734000", "171528.734000", "171528.734000", "171528.750000", "171528.750000", "171528.750000", "171528.750000", "171528.750000", "171528.750000", "171528.750000", "171528.765000", "171528.765000", "171528.765000", "171528.765000", "171548.703000", "171548.703000", "171548.703000", "171548.703000", "171548.718000", "171548.718000", "171548.718000", "171548.718000", "171548.718000", "171548.718000", "171548.718000", "171548.734000", "171548.734000", "171548.734000", "171548.734000", "171548.734000", "171548.734000", "171548.734000", "171548.750000", "171548.750000", "171548.750000", "171548.750000", "171548.750000", "171548.750000", "171548.750000", "171548.765000", "171608.703000", "171608.703000", "171608.703000", "171608.703000", "171608.718000", "171608.718000", "171608.718000", "171608.718000", "171608.718000", "171608.718000", "171608.718000", "171608.734000", "171608.734000", "171608.734000", "171608.734000", "171608.734000", "171608.734000", "171608.734000", "171608.750000", "171608.750000", "171608.750000", "171608.750000", "171608.750000", "171608.750000", "171608.750000", "171628.703000", "171628.703000", "171628.703000", "171628.703000", "171628.718000", "171628.718000", "171628.718000", "171628.718000", "171628.718000", "171628.718000", "171628.718000", "171628.734000", "171628.734000", "171628.734000", "171628.734000", "171628.734000", "171628.734000", "171628.734000", "171628.750000", "171628.750000", "171628.750000", "171628.750000", "171628.750000", "171628.750000", "171628.765000", "171628.765000", "171648.703000", "171648.703000", "171648.703000", "171648.703000", "171648.718000", "171648.718000", "171648.718000", "171648.718000", "171648.718000", "171648.734000", "171648.734000", "171648.734000", "171648.734000", "171648.734000", "171648.734000", "171648.734000", "171648.750000", "171648.750000", "171648.750000", "171648.750000", "171648.750000", "171648.750000", "171648.750000", "171648.765000", "171648.765000", "171708.703000", "171708.703000", "171708.703000", "171708.703000", "171708.718000", "171708.718000", "171708.718000", "171708.734000", "171708.734000", "171708.734000", "171708.734000", "171708.734000", "171708.750000", "171708.750000", "171708.750000", "171708.750000", "171708.750000", "171708.750000", "171708.750000", "171708.750000", "171708.765000", "171708.765000", "171708.765000", "171708.765000", "171708.765000", "171708.765000", "171728.703000", "171728.703000", "171728.703000", "171728.703000", "171728.718000", "171728.718000", "171728.718000", "171728.718000", "171728.718000", "171728.718000", "171728.718000", "171728.734000", "171728.734000", "171728.734000", "171728.734000", "171728.734000", "171728.734000", "171728.750000", "171728.750000", "171728.750000", "171728.750000", "171728.750000", "171728.750000", "171728.765000", "171728.765000", "171748.703000", "171748.703000", "171748.703000", "171748.703000", "171748.718000", "171748.718000", "171748.718000", "171748.718000", "171748.718000", "171748.718000", "171748.718000", "171748.734000", "171748.734000", "171748.734000", "171748.734000", "171748.734000", "171748.734000", "171748.734000", "171748.750000", "171748.750000", "171748.750000", "171748.750000", "171748.750000", "171748.750000", "171748.765000", "171748.765000", "171808.703000", "171808.703000", "171808.703000", "171808.703000", "171808.718000", "171808.718000", "171808.718000", "171808.718000", "171808.718000", "171808.718000", "171808.718000", "171808.734000", "171808.734000", "171808.734000", "171808.734000", "171808.734000", "171808.734000", "171808.734000", "171808.750000", "171808.750000", "171808.750000", "171808.750000", "171808.750000", "171808.750000", "171808.750000", "171828.703000", "171828.703000", "171828.703000", "171828.703000", "171828.718000", "171828.718000", "171828.718000", "171828.718000", "171828.718000", "171828.718000", "171828.718000", "171828.734000", "171828.734000", "171828.734000", "171828.734000", "171828.734000", "171828.734000", "171828.734000", "171828.750000", "171828.750000", "171828.750000", "171828.750000", "171828.765000", "171828.765000", "171828.765000", "171828.765000", "171848.703000", "171848.703000", "171848.703000", "171848.703000", "171848.718000", "171848.718000", "171848.718000", "171848.718000", "171848.718000", "171848.718000", "171848.718000", "171848.734000", "171848.734000", "171848.734000", "171848.734000", "171848.734000", "171848.734000", "171848.750000", "171848.750000", "171848.750000", "171848.750000", "171848.750000", "171848.750000", "171848.750000", "171848.765000", "171908.703000", "171908.703000", "171908.703000", "171908.703000", "171908.718000", "171908.718000", "171908.718000", "171908.718000", "171908.718000", "171908.718000", "171908.718000", "171908.734000", "171908.734000", "171908.734000", "171908.734000", "171908.734000", "171908.734000", "171908.734000", "171908.750000", "171908.750000", "171908.750000", "171908.750000", "171908.750000", "171908.750000", "171908.765000", "171908.765000", "171928.703000", "171928.703000", "171928.703000", "171928.703000", "171928.718000", "171928.718000", "171928.718000", "171928.718000", "171928.718000", "171928.718000", "171928.718000", "171928.734000", "171928.734000", "171928.734000", "171928.734000", "171928.734000", "171928.734000", "171928.734000", "171928.750000", "171928.750000", "171928.750000", "171928.750000", "171928.750000", "171928.750000", "171928.750000", "171948.703000", "171948.703000", "171948.703000", "171948.703000", "171948.718000", "171948.718000", "171948.718000", "171948.718000", "171948.718000", "171948.718000", "171948.718000", "171948.734000", "171948.734000", "171948.734000", "171948.734000", "171948.734000", "171948.750000", "171948.750000", "171948.750000", "171948.750000", "171948.750000", "171948.750000", "171948.750000", "171948.765000", "171948.765000", "171948.765000", "172008.703000", "172008.703000", "172008.703000", "172008.703000", "172008.718000", "172008.718000", "172008.718000", "172008.718000", "172008.718000", "172008.718000", "172008.718000", "172008.734000", "172008.734000", "172008.734000", "172008.734000", "172008.734000", "172008.734000", "172008.750000", "172008.750000", "172008.750000", "172008.750000", "172008.750000", "172008.765000", "172008.765000", "172008.765000", "172028.718000", "172028.718000", "172028.718000", "172028.718000", "172028.718000", "172028.718000", "172028.718000", "172028.734000", "172028.734000", "172028.734000", "172028.734000", "172028.734000", "172028.734000", "172028.734000", "172028.750000", "172028.750000", "172028.750000", "172028.750000", "172028.750000", "172028.750000", "172028.765000", "172028.765000", "172028.765000", "172028.765000", "172028.765000", "172028.765000"],
