{
  "AcquisitionMatrixPE": 104,
  "AcquisitionNumber": 1,
  "AcquisitionTime": "18:01:15.690000",
  "BandwidthPerPixelPhaseEncode": 13.935,
  "BaseResolution": 104,
  "CoilString": "C:HEA;HEP",
  "ConversionSoftware": "dcm2niix",
  "ConversionSoftwareVersion": "v1.0.20210317",
  "DerivedVendorReportedEchoSpacing": 0.000690017,
  "DeviceSerialNumber": "35450",
  "DwellTime": 2.5e-06,
  "EchoTime": 0.0348,
  "EffectiveEchoSpacing": 0.000690017,
  "FlipAngle": 55,
  "ImageComments": "Unaliased MB8/PE3 (remote)",
  "ImageOrientationPatientDICOM": [1, 0, 0, 0, 0.996345, -0.0854169],
  "ImageType": [
    "ORIGINAL",
    "PRIMARY",
    "M",
    "MB",
    "ND",
    "MOSAIC"
],
  "ImagingFrequency": 123.235,
  "InPlanePhaseEncodingDirectionDICOM": "COL",
  "InstitutionAddress": "Univeristy Ave. 197,Newark,North East,US,07102-1814",
  "InstitutionName": "RUBIC",
  "InstitutionalDepartmentName": "Department",
  "MRAcquisitionType": "2D",
  "MagneticFieldStrength": 3,
  "Manufacturer": "Siemens",
  "ManufacturersModelName": "TrioTim",
  "Modality": "MR",
  "MultibandAccelerationFactor": 8,
  "PartialFourier": 0.875,
  "PatientPosition": "HFS",
  "PercentPhaseFOV": 100,
  "PercentSampling": 100,
  "PhaseEncodingDirection": "j-",
  "PhaseEncodingSteps": 91,
  "PhaseResolution": 1,
  "PixelBandwidth": 1923,
  "ProcedureStepDescription": "Cole^Michael",
  "ProtocolName": "cmrr_mbep2d_bold_2mm_MB8_Task_8x",
  "PulseSequenceDetails": "%CustomerSeq%\\cmrr_mbep2d_bold",
  "ReceiveCoilName": "32Ch_Head",
  "ReconMatrixPE": 104,
  "RepetitionTime": 0.785,
  "SAR": 0.12462,
  "ScanOptions": "PFP\\FS",
  "ScanningSequence": "EP",
  "SequenceName": "epfid2d1_104",
  "SequenceVariant": "SK\\SS",
  "SeriesDescription": "cmrr_mbep2d_bold_2mm_MB8_Task_8x",
  "SeriesNumber": 29,
  "ShimSetting": [2117, -337, -7324, 506, -64, -317, -341, 40],
  "SliceThickness": 2,
  "SliceTiming": [0, 0.4375, 0.0875, 0.525, 0.175, 0.6125, 0.2625, 0.7, 0.35, 0, 0.4375, 0.0875, 0.525, 0.175, 0.6125, 0.2625, 0.7, 0.35, 0, 0.4375, 0.0875, 0.525, 0.175, 0.6125, 0.2625, 0.7, 0.35, 0, 0.4375, 0.0875, 0.525, 0.175, 0.6125, 0.2625, 0.7, 0.35, 0, 0.4375, 0.0875, 0.525, 0.175, 0.6125, 0.2625, 0.7, 0.35, 0, 0.4375, 0.0875, 0.525, 0.175, 0.6125, 0.2625, 0.7, 0.35, 0, 0.4375, 0.0875, 0.525, 0.175, 0.6125, 0.2625, 0.7, 0.35, 0, 0.4375, 0.0875, 0.525, 0.175, 0.6125, 0.2625, 0.7, 0.35],
  "SoftwareVersions": "syngo MR B19",
  "SpacingBetweenSlices": 2,
  "StationName": "MRC35450",
  "TaskName": "cpro",
  "TotalReadoutTime": 0.0710717,
  "TxRefAmp": 367.684,
  "dcmmeta_affine": [
    [-2.0, 0.0, 0.0, 104.0],
    [0.0, 1.9926905632019043, -0.17083384096622467, -88.74421691894531],
    [0.0, 0.17083384096622467, 1.9926905632019043, -116.02446746826172],
    [0.0, 0.0, 0.0, 1.0]
],
  "dcmmeta_reorient_transform": [
    [0.0, -1.0, 0.0, 103.0],
    [1.0, 0.0, 0.0, 0.0],
    [0.0, 0.0, 1.0, 0.0],
    [0.0, 0.0, 0.0, 1.0]
],
  "dcmmeta_shape": [104, 104, 72, 581],
  "dcmmeta_slice_dim": 2,
  "dcmmeta_version": 0.6,
  "global": {
    "const": {
      "AcquisitionMatrix": [104, 0, 0, 104],
      "AngioFlag": "N",
      "BitsAllocated": 16,
      "BitsStored": 12,
      "Columns": 936,
      "EchoNumbers": 1,
      "EchoTime": 34.8,
      "EchoTrainLength": 1,
      "FlipAngle": 55.0,
      "HighBit": 11,
      "ImageOrientationPatient": [1.0, 0.0, 0.0, 0.0, 0.99634529631223, -0.0854169217223],
      "ImagePositionPatient": [-936.0, -945.46220058311, -27.361704322169],
      "ImageType": [
        "ORIGINAL",
        "PRIMARY",
        "M",
        "MB",
        "ND",
        "MOSAIC"
],
      "ImagedNucleus": "1H",
      "ImagingFrequency": 123.234562,
      "InPlanePhaseEncodingDirection": "COL",
      "MRAcquisitionType": "2D",
      "MagneticFieldStrength": 3.0,
      "Manufacturer": "SIEMENS",
      "ManufacturerModelName": "TrioTim",
      "Modality": "MR",
      "NumberOfAverages": 1.0,
      "NumberOfPhaseEncodingSteps": 91,
      "PercentPhaseFieldOfView": 100.0,
      "PercentSampling": 100.0,
      "PerformedProcedureStepStartTime": "153143.640000",
      "PhotometricInterpretation": "MONOCHROME2",
      "PixelBandwidth": 1923.0,
      "PixelRepresentation": 0,
      "PixelSpacing": [2.0, 2.0],
      "ProtocolName": "cmrr_mbep2d_bold_2mm_MB8_Task_8x",
      "RepetitionTime": 785.0,
      "Rows": 936,
      "SAR": 0.12461962131737,
      "SamplesPerPixel": 1,
      "ScanOptions": [
        "PFP",
        "FS"
],
      "ScanningSequence": "EP",
      "SequenceName": "epfid2d1_104",
      "SequenceVariant": [
        "SK",
        "SS"
],
      "SeriesDescription": "cmrr_mbep2d_bold_2mm_MB8_Task_8x",
      "SeriesNumber": 29,
      "SeriesTime": "180148.734000",
      "SliceLocation": -108.02017617904,
      "SliceThickness": 2.0,
      "SmallestImagePixelValue": 0,
      "SoftwareVersions": "syngo MR B19",
      "SpacingBetweenSlices": 1.9999999637998,
      "SpecificCharacterSet": "ISO_IR 100",
      "StudyID": "1",
      "StudyTime": "153143.578000",
      "TransmitCoilName": "Body",
      "VariableFlipAngleFlag": "N",
      "WindowCenterWidthExplanation": "Algo1",
      "dBdt": 0.0},
    "slices": {}
  },
  "time": {
    "samples": {
      "AcquisitionNumber": [1, 2, 3, 4, 5, 6, 7, 8, 9, 10, 11, 12, 13, 14, 15, 16, 17, 18, 19, 20, 21, 22, 23, 24, 25, 26, 27, 28, 29, 30, 31, 32, 33, 34, 35, 36, 37, 38, 39, 40, 41, 42, 43, 44, 45, 46, 47, 48, 49, 50, 51, 52, 53, 54, 55, 56, 57, 58, 59, 60, 61, 62, 63, 64, 65, 66, 67, 68, 69, 70, 71, 72, 73, 74, 75, 76, 77, 78, 79, 80, 81, 82, 83, 84, 85, 86, 87, 88, 89, 90, 91, 92, 93, 94, 95, 96, 97, 98, 99, 100, 101, 102, 103, 104, 105, 106, 107, 108, 109, 110, 111, 112, 113, 114, 115, 116, 117, 118, 119, 120, 121, 122, 123, 124, 125, 126, 127, 128, 129, 130, 131, 132, 133, 134, 135, 136, 137, 138, 139, 140, 141, 142, 143, 144, 145, 146, 147, 148, 149, 150, 151, 152, 153, 154, 155, 156, 157, 158, 159, 160, 161, 162, 163, 164, 165, 166, 167, 168, 169, 170, 171, 172, 173, 174, 175, 176, 177, 178, 179, 180, 181, 182, 183, 184, 185, 186, 187, 188, 189, 190, 191, 192, 193, 194, 195, 196, 197, 198, 199, 200, 201, 202, 203, 204, 205, 206, 207, 208, 209, 210, 211, 212, 213, 214, 215, 216, 217, 218, 219, 220, 221, 222, 223, 224, 225, 226, 227, 228, 229, 230, 231, 232, 233, 234, 235, 236, 237, 238, 239, 240, 241, 242, 243, 244, 245, 246, 247, 248, 249, 250, 251, 252, 253, 254, 255, 256, 257, 258, 259, 260, 261, 262, 263, 264, 265, 266, 267, 268, 269, 270, 271, 272, 273, 274, 275, 276, 277, 278, 279, 280, 281, 282, 283, 284, 285, 286, 287, 288, 289, 290, 291, 292, 293, 294, 295, 296, 297, 298, 299, 300, 301, 302, 303, 304, 305, 306, 307, 308, 309, 310, 311, 312, 313, 314, 315, 316, 317, 318, 319, 320, 321, 322, 323, 324, 325, 326, 327, 328, 329, 330, 331, 332, 333, 334, 335, 336, 337, 338, 339, 340, 341, 342, 343, 344, 345, 346, 347, 348, 349, 350, 351, 352, 353, 354, 355, 356, 357, 358, 359, 360, 361, 362, 363, 364, 365, 366, 367, 368, 369, 370, 371, 372, 373, 374, 375, 376, 377, 378, 379, 380, 381, 382, 383, 384, 385, 386, 387, 388, 389, 390, 391, 392, 393, 394, 395, 396, 397, 398, 399, 400, 401, 402, 403, 404, 405, 406, 407, 408, 409, 410, 411, 412, 413, 414, 415, 416, 417, 418, 419, 420, 421, 422, 423, 424, 425, 426, 427, 428, 429, 430, 431, 432, 433, 434, 435, 436, 437, 438, 439, 440, 441, 442, 443, 444, 445, 446, 447, 448, 449, 450, 451, 452, 453, 454, 455, 456, 457, 458, 459, 460, 461, 462, 463, 464, 465, 466, 467, 468, 469, 470, 471, 472, 473, 474, 475, 476, 477, 478, 479, 480, 481, 482, 483, 484, 485, 486, 487, 488, 489, 490, 491, 492, 493, 494, 495, 496, 497, 498, 499, 500, 501, 502, 503, 504, 505, 506, 507, 508, 509, 510, 511, 512, 513, 514, 515, 516, 517, 518, 519, 520, 521, 522, 523, 524, 525, 526, 527, 528, 529, 530, 531, 532, 533, 534, 535, 536, 537, 538, 539, 540, 541, 542, 543, 544, 545, 546, 547, 548, 549, 550, 551, 552, 553, 554, 555, 556, 557, 558, 559, 560, 561, 562, 563, 564, 565, 566, 567, 568, 569, 570, 571, 572, 573, 574, 575, 576, 577, 578, 579, 580, 581],
      "AcquisitionTime": ["180115.690000", "180116.477500", "180117.265000", "180118.055000", "180118.842500", "180119.630000", "180120.417500", "180121.207500", "180121.995000", "180122.782500", "180123.570000", "180124.360000", "180125.147500", "180125.935000", "180126.725000", "180127.512500", "180128.300000", "180129.087500", "180129.877500", "180130.665000", "180131.452500", "180132.240000", "180133.030000", "180133.817500", "180134.605000", "180135.392500", "180136.182500", "180136.970000", "180137.757500", "180138.545000", "180139.335000", "180140.122500", "180140.910000", "180141.697500", "180142.487500", "180143.275000", "180144.062500", "180144.852500", "180145.640000", "180146.427500", "180147.215000", "180148.005000", "180148.792500", "180149.580000", "180150.367500", "180151.157500", "180151.945000", "180152.732500", "180153.520000", "180154.310000", "180155.097500", "180155.885000", "180156.672500", "180157.462500", "180158.250000", "180159.037500", "180159.825000", "180200.615000", "180201.402500", "180202.190000", "180202.980000", "180203.767500", "180204.555000", "180205.342500", "180206.132500", "180206.920000", "180207.707500", "180208.495000", "180209.285000", "180210.072500", "180210.860000", "180211.647500", "180212.437500", "180213.225000", "180214.012500", "180214.800000", "180215.590000", "180216.377500", "180217.165000", "180217.952500", "180218.742500", "180219.530000", "180220.317500", "180221.107500", "180221.895000", "180222.682500", "180223.470000", "180224.260000", "180225.047500", "180225.835000", "180226.622500", "180227.412500", "180228.200000", "180228.987500", "180229.775000", "180230.565000", "180231.352500", "180232.140000", "180232.927500", "180233.717500", "180234.505000", "180235.292500", "180236.080000", "180236.870000", "180237.657500", "180238.445000", "180239.235000", "180240.022500", "180240.810000", "180241.597500", "180242.387500", "180243.175000", "180243.962500", "180244.750000", "180245.540000", "180246.327500", "180247.115000", "180247.902500", "180248.692500", "180249.480000", "180250.267500", "180251.055000", "180251.845000", "180252.632500", "180253.420000", "180254.207500", "180254.997500", "180255.785000", "180256.572500", "180257.362500", "180258.150000", "180258.937500", "180259.725000", "180300.515000", "180301.302500", "180302.090000", "180302.877500", "180303.667500", "180304.455000", "180305.242500", "180306.030000", "180306.820000", "180307.607500", "180308.395000", "180309.182500", "180309.972500", "180310.760000", "180311.547500", "180312.337500", "180313.125000", "180313.912500", "180314.700000", "180315.490000", "180316.277500", "180317.065000", "180317.852500", "180318.642500", "180319.430000", "180320.217500", "180321.005000", "180321.795000", "180322.582500", "180323.370000", "180324.157500", "180324.947500", "180325.735000", "180326.522500", "180327.310000", "180328.100000", "180328.887500", "180329.675000", "180330.465000", "180331.252500", "180332.040000", "180332.827500", "180333.617500", "180334.405000", "180335.192500", "180335.980000", "180336.770000", "180337.557500", "180338.345000", "180339.132500", "180339.922500", "180340.710000", "180341.497500", "180342.285000", "180343.075000", "180343.862500", "180344.650000", "180345.437500", "180346.227500", "180347.015000", "180347.802500", "180348.592500", "180349.380000", "180350.167500", "180350.955000", "180351.745000", "180352.532500", "180353.320000", "180354.107500", "180354.897500", "180355.685000", "180356.472500", "180357.260000", "180358.050000", "180358.837500", "180359.625000", "180400.412500", "180401.202500", "180401.990000", "180402.777500", "180403.565000", "180404.355000", "180405.142500", "180405.930000", "180406.720000", "180407.507500", "180408.295000", "180409.082500", "180409.872500", "180410.660000", "180411.447500", "180412.235000", "180413.025000", "180413.812500", "180414.600000", "180415.387500", "180416.177500", "180416.965000", "180417.752500", "180418.540000", "180419.330000", "180420.117500", "180420.905000", "180421.692500", "180422.482500", "180423.270000", "180424.057500", "180424.847500", "180425.635000", "180426.422500", "180427.210000", "180428.000000", "180428.787500", "180429.575000", "180430.362500", "180431.152500", "180431.940000", "180432.727500", "180433.515000", "180434.305000", "180435.092500", "180435.880000", "180436.667500", "180437.457500", "180438.245000", "180439.032500", "180439.820000", "180440.610000", "180441.397500", "180442.185000", "180442.975000", "180443.762500", "180444.550000", "180445.337500", "180446.127500", "180446.915000", "180447.702500", "180448.490000", "180449.280000", "180450.067500", "180450.855000", "180451.642500", "180452.432500", "180453.220000", "180454.007500", "180454.795000", "180455.585000", "180456.372500", "180457.160000", "180457.947500", "180458.737500", "180459.525000", "180500.312500", "180501.102500", "180501.890000", "180502.677500", "180503.465000", "180504.255000", "180505.042500", "180505.830000", "180506.617500", "180507.407500", "180508.195000", "180508.982500", "180509.770000", "180510.560000", "180511.347500", "180512.135000", "180512.922500", "180513.712500", "180514.500000", "180515.287500", "180516.075000", "180516.865000", "180517.652500", "180518.440000", "180519.230000", "180520.017500", "180520.805000", "180521.592500", "180522.382500", "180523.170000", "180523.957500", "180524.745000", "180525.535000", "180526.322500", "180527.110000", "180527.897500", "180528.687500", "180529.475000", "180530.262500", "180531.050000", "180531.840000", "180532.627500", "180533.415000", "180534.202500", "180534.992500", "180535.780000", "180536.567500", "180537.357500", "180538.145000", "180538.932500", "180539.720000", "180540.510000", "180541.297500", "180542.085000", "180542.872500", "180543.662500", "180544.450000", "180545.237500", "180546.025000", "180546.815000", "180547.602500", "180548.390000", "180549.177500", "180549.967500", "180550.755000", "180551.542500", "180552.330000", "180553.120000", "180553.907500", "180554.695000", "180555.485000", "180556.272500", "180557.060000", "180557.847500", "180558.637500", "180559.425000", "180600.212500", "180601.000000", "180601.790000", "180602.577500", "180603.365000", "180604.152500", "180604.942500", "180605.730000", "180606.517500", "180607.305000", "180608.095000", "180608.882500", "180609.670000", "180610.457500", "180611.247500", "180612.035000", "180612.822500", "180613.612500", "180614.400000", "180615.187500", "180615.975000", "180616.765000", "180617.552500", "180618.340000", "180619.127500", "180619.917500", "180620.705000", "180621.492500", "180622.280000", "180623.070000", "180623.857500", "180624.645000", "180625.432500", "180626.222500", "180627.010000", "180627.797500", "180628.587500", "180629.375000", "180630.162500", "180630.950000", "180631.740000", "180632.527500", "180633.315000", "180634.102500", "180634.892500", "180635.680000", "180636.467500", "180637.255000", "180638.045000", "180638.832500", "180639.620000", "180640.407500", "180641.197500", "180641.985000", "180642.772500", "180643.560000", "180644.350000", "180645.137500", "180645.925000", "180646.715000", "180647.502500", "180648.290000", "180649.077500", "180649.867500", "180650.655000", "180651.442500", "180652.230000", "180653.020000", "180653.807500", "180654.595000", "180655.382500", "180656.172500", "180656.960000", "180657.747500", "180658.535000", "180659.325000", "180700.112500", "180700.900000", "180701.687500", "180702.477500", "180703.265000", "180704.052500", "180704.842500", "180705.630000", "180706.417500", "180707.205000", "180707.995000", "180708.782500", "180709.570000", "180710.357500", "180711.147500", "180711.935000", "180712.722500", "180713.510000", "180714.300000", "180715.087500", "180715.875000", "180716.662500", "180717.452500", "180718.240000", "180719.027500", "180719.815000", "180720.605000", "180721.392500", "180722.180000", "180722.970000", "180723.757500", "180724.545000", "180725.332500", "180726.122500", "180726.910000", "180727.697500", "180728.485000", "180729.275000", "180730.062500", "180730.850000", "180731.637500", "180732.427500", "180733.215000", "180734.002500", "180734.790000", "180735.580000", "180736.367500", "180737.155000", "180737.942500", "180738.732500", "180739.520000", "180740.307500", "180741.097500", "180741.885000", "180742.672500", "180743.460000", "180744.250000", "180745.037500", "180745.825000", "180746.612500", "180747.402500", "180748.190000", "180748.977500", "180749.765000", "180750.555000", "180751.342500", "180752.130000", "180752.917500", "180753.707500", "180754.495000", "180755.282500", "180756.070000", "180756.860000", "180757.647500", "180758.435000", "180759.225000", "180800.012500", "180800.800000", "180801.587500", "180802.377500", "180803.165000", "180803.952500", "180804.740000", "180805.530000", "180806.317500", "180807.105000", "180807.892500", "180808.682500", "180809.470000", "180810.257500", "180811.045000", "180811.835000", "180812.622500", "180813.410000", "180814.197500", "180814.987500", "180815.775000", "180816.562500", "180817.352500", "180818.140000", "180818.927500", "180819.715000", "180820.505000", "180821.292500", "180822.080000", "180822.867500", "180823.657500", "180824.445000", "180825.232500", "180826.020000", "180826.810000", "180827.597500", "180828.385000", "180829.172500", "180829.962500", "180830.750000", "180831.537500", "180832.325000", "180833.115000", "180833.902500", "180834.690000", "180835.480000", "180836.267500", "180837.055000", "180837.842500", "180838.632500", "180839.420000", "180840.207500", "180840.995000", "180841.785000", "180842.572500", "180843.360000", "180844.147500", "180844.937500", "180845.725000", "180846.512500", "180847.300000", "180848.090000", "180848.877500", "180849.665000", "180850.452500", "180851.242500", "180852.030000", "180852.817500"],
      "ContentTime": ["180148.734000", "180148.734000", "180148.734000", "180148.750000", "180148.750000", "180148.750000", "180148.750000", "180148.750000", "180148.750000", "180148.750000", "180148.765000", "180148.765000", "180148.765000", "180148.765000", "180148.765000", "180148.765000", "180148.765000", "180148.781000", "180148.781000", "180148.781000", "180148.781000", "180148.781000", "180148.781000", "180148.781000", "180148.796000", "180148.796000", "180148.796000", "180148.796000", "180148.796000", "180148.796000", "180148.796000", "180148.812000", "180148.812000", "180148.812000", "180148.812000", "180148.812000", "180148.812000", "180148.812000", "180148.828000", "180208.703000", "180208.703000", "180208.703000", "180208.703000", "180208.718000", "180208.718000", "180208.718000", "180208.718000", "180208.718000", "180208.718000", "180208.718000", "180208.734000", "180208.734000", "180208.734000", "180208.734000", "180208.734000", "180208.734000", "180208.734000", "180208.750000", "180208.750000", "180208.750000", "180208.750000", "180208.750000", "180208.750000", "180208.750000", "180228.703000", "180228.703000", "180228.703000", "180228.703000", "180228.718000", "180228.718000", "180228.718000", "180228.718000", "180228.718000", "180228.718000", "180228.718000", "180228.734000", "180228.734000", "180228.734000", "180228.734000", "180228.734000", "180228.734000", "180228.734000", "180228.750000", "180228.750000", "180228.750000", "180228.750000", "180228.750000", "180228.750000", "180228.750000", "180248.703000", "180248.703000", "180248.703000", "180248.703000", "180248.718000", "180248.718000", "180248.718000", "180248.718000", "180248.718000", "180248.718000", "180248.734000", "180248.734000", "180248.734000", "180248.734000", "180248.734000", "180248.750000", "180248.750000", "180248.750000", "180248.750000", "180248.750000", "180248.750000", "180248.750000", "180248.765000", "180248.765000", "180248.765000", "180248.765000", "180308.703000", "180308.703000", "180308.703000", "180308.718000", "180308.718000", "180308.718000", "180308.718000", "180308.718000", "180308.734000", "180308.734000", "180308.734000", "180308.734000", "180308.734000", "180308.734000", "180308.750000", "180308.750000", "180308.750000", "180308.750000", "180308.750000", "180308.750000", "180308.750000", "180308.765000", "180308.765000", "180308.765000", "180308.765000", "180328.703000", "180328.703000", "180328.703000", "180328.703000", "180328.718000", "180328.718000", "180328.718000", "180328.718000", "180328.718000", "180328.718000", "180328.718000", "180328.734000", "180328.734000", "180328.734000", "180328.734000", "180328.734000", "180328.734000", "180328.734000", "180328.750000", "180328.750000", "180328.750000", "180328.750000", "180328.750000", "180328.750000", "180328.750000", "180328.765000", "180348.703000", "180348.703000", "180348.703000", "180348.703000", "180348.718000", "180348.718000", "180348.718000", "180348.718000", "180348.718000", "180348.718000", "180348.718000", "180348.734000", "180348.734000", "180348.734000", "180348.734000", "180348.734000", "180348.734000", "180348.734000", "180348.750000", "180348.750000", "180348.750000", "180348.750000", "180348.750000", "180348.750000", "180348.750000", "180408.703000", "180408.703000", "180408.703000", "180408.703000", "180408.718000", "180408.718000", "180408.718000", "180408.718000", "180408.718000", "180408.734000", "180408.734000", "180408.734000", "180408.734000", "180408.734000", "180408.734000", "180408.734000", "180408.750000", "180408.750000", "180408.750000", "180408.750000", "180408.750000", "180408.765000", "180408.765000", "180408.765000", "180408.765000", "180408.765000", "180428.703000", "180428.703000", "180428.703000", "180428.703000", "180428.718000", "180428.718000", "180428.718000", "180428.718000", "180428.718000", "180428.718000", "180428.718000", "180428.734000", "180428.734000", "180428.734000", "180428.734000", "180428.734000", "180428.750000", "180428.750000", "180428.750000", "180428.750000", "180428.750000", "180428.750000", "180428.765000", "180428.765000", "180428.765000", "180448.703000", "180448.703000", "180448.703000", "180448.703000", "180448.718000", "180448.718000", "180448.718000", "180448.718000", "180448.718000", "180448.718000", "180448.718000", "180448.734000", "180448.734000", "180448.734000", "180448.734000", "180448.734000", "180448.734000", "180448.734000", "180448.750000", "180448.750000", "180448.750000", "180448.750000", "180448.750000", "180448.750000", "180448.750000", "180448.765000", "180508.703000", "180508.703000", "180508.703000", "180508.703000", "180508.718000", "180508.718000", "180508.718000", "180508.718000", "180508.718000", "180508.718000", "180508.718000", "180508.734000", "180508.734000", "180508.734000", "180508.734000", "180508.734000", "180508.734000", "180508.734000", "180508.750000", "180508.750000", "180508.750000", "180508.750000", "180508.750000", "180508.750000", "180508.765000", "180528.703000", "180528.718000", "180528.718000", "180528.718000", "180528.718000", "180528.718000", "180528.718000", "180528.718000", "180528.734000", "180528.734000", "180528.734000", "180528.734000", "180528.734000", "180528.734000", "180528.734000", "180528.750000", "180528.750000", "180528.750000", "180528.750000", "180528.750000", "180528.750000", "180528.750000", "180528.765000", "180528.765000", "180528.765000", "180528.765000", "180548.703000", "180548.703000", "180548.703000", "180548.703000", "180548.718000", "180548.718000", "180548.718000", "180548.718000", "180548.718000", "180548.734000", "180548.734000", "180548.734000", "180548.734000", "180548.734000", "180548.734000", "180548.734000", "180548.750000", "180548.750000", "180548.750000", "180548.750000", "180548.750000", "180548.750000", "180548.765000", "180548.765000", "180548.765000", "180608.703000", "180608.703000", "180608.703000", "180608.703000", "180608.718000", "180608.718000", "180608.718000", "180608.718000", "180608.718000", "180608.718000", "180608.718000", "180608.734000", "180608.734000", "180608.734000", "180608.734000", "180608.734000", "180608.734000", "180608.734000", "180608.750000", "180608.750000", "180608.750000", "180608.750000", "180608.750000", "180608.750000", "180608.750000", "180608.765000", "180628.703000", "180628.703000", "180628.703000", "180628.703000", "180628.718000", "180628.718000", "180628.718000", "180628.718000", "180628.718000", "180628.718000", "180628.718000", "180628.734000", "180628.734000", "180628.734000", "180628.734000", "180628.734000", "180628.734000", "180628.734000", "180628.750000", "180628.750000", "180628.750000", "180628.750000", "180628.750000", "180628.750000", "180628.750000", "180648.703000", "180648.703000", "180648.703000", "180648.703000", "180648.718000", "180648.718000", "180648.718000", "180648.718000", "180648.718000", "180648.718000", "180648.718000", "180648.734000", "180648.734000", "180648.734000", "180648.734000", "180648.734000", "180648.734000", "180648.734000", "180648.750000", "180648.750000", "180648.750000", "180648.750000", "180648.750000", "180648.750000", "180648.750000", "180648.765000", "180708.703000", "180708.703000", "180708.703000", "180708.703000", "180708.718000", "180708.718000", "180708.718000", "180708.718000", "180708.718000", "180708.718000", "180708.718000", "180708.734000", "180708.734000", "180708.734000", "180708.734000", "180708.734000", "180708.734000", "180708.750000", "180708.750000", "180708.750000", "180708.750000", "180708.750000", "180708.750000", "180708.750000", "180708.765000", "180728.703000", "180728.703000", "180728.703000", "180728.703000", "180728.718000", "180728.718000", "180728.718000", "180728.718000", "180728.718000", "180728.718000", "180728.718000", "180728.734000", "180728.734000", "180728.734000", "180728.734000", "180728.734000", "180728.734000", "180728.734000", "180728.750000", "180728.750000", "180728.750000", "180728.750000", "180728.750000", "180728.750000", "180728.750000", "180728.765000", "180748.703000", "180748.703000", "180748.703000", "180748.703000", "180748.718000", "180748.718000", "180748.718000", "180748.718000", "180748.718000", "180748.718000", "180748.718000", "180748.734000", "180748.734000", "180748.734000", "180748.734000", "180748.734000", "180748.734000", "180748.734000", "180748.750000", "180748.750000", "180748.750000", "180748.750000", "180748.750000", "180748.750000", "180748.750000", "180808.703000", "180808.703000", "180808.703000", "180808.703000", "180808.718000", "180808.718000", "180808.718000", "180808.718000", "180808.718000", "180808.718000", "180808.718000", "180808.734000", "180808.734000", "180808.734000", "180808.734000", "180808.734000", "180808.734000", "180808.734000", "180808.750000", "180808.750000", "180808.750000", "180808.750000", "180808.750000", "180808.750000", "180808.750000", "180808.765000", "180828.703000", "180828.703000", "180828.703000", "180828.718000", "180828.718000", "180828.718000", "180828.718000", "180828.718000", "180828.718000", "180828.734000", "180828.734000", "180828.734000", "180828.734000", "180828.734000", "180828.734000", "180828.734000", "180828.750000", "180828.750000", "180828.750000", "180828.750000", "180828.750000", "180828.765000", "180828.765000", "180828.765000", "180828.765000", "180848.703000", "180848.703000", "180848.703000", "180848.703000", "180848.718000", "180848.718000", "180848.718000", "180848.718000", "180848.718000", "180848.718000", "180848.718000", "180848.734000", "180848.734000", "180848.734000", "180848.734000", "180848.750000", "180848.750000", "180848.750000", "180848.750000", "180848.750000", "180848.750000", "180848.765000", "180848.765000", "180848.765000", "180848.765000", "180848.765000", "180854.109000", "180854.109000", "180854.109000", "180854.109000", "180854.109000", "180854.125000", "180854.125000"],
