{
  "AcquisitionMatrixPE": 104,
  "AcquisitionNumber": 1,
  "AcquisitionTime": "16:19:56.912500",
  "BandwidthPerPixelPhaseEncode": 13.935,
  "BaseResolution": 104,
  "CoilString": "C:HEA;HEP",
  "ConversionSoftware": "dcm2niix",
  "ConversionSoftwareVersion": "v1.0.20210317",
  "DerivedVendorReportedEchoSpacing": 0.000690017,
  "DeviceSerialNumber": "35450",
  "DwellTime": 2.5e-06,
  "EchoTime": 0.0348,
  "EffectiveEchoSpacing": 0.000690017,
  "FlipAngle": 55,
  "ImageComments": "Unaliased MB8/PE3 (remote)",
  "ImageOrientationPatientDICOM": [1, 0, 0, 0, 0.994881, -0.101056],
  "ImageType": [
    "ORIGINAL",
    "PRIMARY",
    "M",
    "MB",
    "ND",
    "MOSAIC"
],
  "ImagingFrequency": 123.235,
  "InPlanePhaseEncodingDirectionDICOM": "COL",
  "InstitutionAddress": "Univeristy Ave. 197,Newark,North East,US,07102-1814",
  "InstitutionName": "RUBIC",
  "InstitutionalDepartmentName": "Department",
  "MRAcquisitionType": "2D",
  "MagneticFieldStrength": 3,
  "Manufacturer": "Siemens",
  "ManufacturersModelName": "TrioTim",
  "Modality": "MR",
  "MultibandAccelerationFactor": 8,
  "PartialFourier": 0.875,
  "PatientPosition": "HFS",
  "PercentPhaseFOV": 100,
  "PercentSampling": 100,
  "PhaseEncodingDirection": "j-",
  "PhaseEncodingSteps": 91,
  "PhaseResolution": 1,
  "PixelBandwidth": 1923,
  "ProcedureStepDescription": "Cole^Michael",
  "ProtocolName": "cmrr_mbep2d_bold_2mm_MB8_Rest",
  "PulseSequenceDetails": "%CustomerSeq%\\cmrr_mbep2d_bold",
  "ReceiveCoilName": "32Ch_Head",
  "ReconMatrixPE": 104,
  "RepetitionTime": 0.785,
  "SAR": 0.125427,
  "ScanOptions": "PFP\\FS",
  "ScanningSequence": "EP",
  "SequenceName": "epfid2d1_104",
  "SequenceVariant": "SK\\SS",
  "SeriesDescription": "cmrr_mbep2d_bold_2mm_MB8_Rest",
  "SeriesNumber": 9,
  "ShimSetting": [2118, -335, -7321, 496, -67, -329, -331, 39],
  "SliceThickness": 2,
  "SliceTiming": [0, 0.4375, 0.0875, 0.525, 0.175, 0.6125, 0.2625, 0.7, 0.35, 0, 0.4375, 0.0875, 0.525, 0.175, 0.6125, 0.2625, 0.7, 0.35, 0, 0.4375, 0.0875, 0.525, 0.175, 0.6125, 0.2625, 0.7, 0.35, 0, 0.4375, 0.0875, 0.525, 0.175, 0.6125, 0.2625, 0.7, 0.35, 0, 0.4375, 0.0875, 0.525, 0.175, 0.6125, 0.2625, 0.7, 0.35, 0, 0.4375, 0.0875, 0.525, 0.175, 0.6125, 0.2625, 0.7, 0.35, 0, 0.4375, 0.0875, 0.525, 0.175, 0.6125, 0.2625, 0.7, 0.35, 0, 0.4375, 0.0875, 0.525, 0.175, 0.6125, 0.2625, 0.7, 0.35],
  "SoftwareVersions": "syngo MR B19",
  "SpacingBetweenSlices": 2,
  "StationName": "MRC35450",
  "TaskName": "rest",
  "TotalReadoutTime": 0.0710717,
  "TxRefAmp": 367.684,
  "dcmmeta_affine": [
    [-2.0, 0.0, 0.0, 104.0],
    [0.0, 1.989761471748352, -0.2021125853061676, -91.20355987548828],
    [0.0, 0.2021125853061676, 1.9897613525390625, -119.37525939941406],
    [0.0, 0.0, 0.0, 1.0]
],
  "dcmmeta_reorient_transform": [
    [0.0, -1.0, 0.0, 103.0],
    [1.0, 0.0, 0.0, 0.0],
    [0.0, 0.0, 1.0, 0.0],
    [0.0, 0.0, 0.0, 1.0]
],
  "dcmmeta_shape": [104, 104, 72, 1070],
  "dcmmeta_slice_dim": 2,
  "dcmmeta_version": 0.6,
  "global": {
    "const": {
      "AcquisitionMatrix": [104, 0, 0, 104],
      "AngioFlag": "N",
      "BitsAllocated": 16,
      "BitsStored": 12,
      "Columns": 936,
      "EchoNumbers": 1,
      "EchoTime": 34.8,
      "EchoTrainLength": 1,
      "FlipAngle": 55.0,
      "HighBit": 11,
      "ImageOrientationPatient": [1.0, 0.0, 0.0, 0.0, 0.99488070921592, -0.1010562933717],
      "ImagePositionPatient": [-936.0, -941.48261483745, -14.478829545718],
      "ImageType": [
        "ORIGINAL",
        "PRIMARY",
        "M",
        "MB",
        "ND",
        "MOSAIC"
],
      "ImagedNucleus": "1H",
      "ImagingFrequency": 123.234512,
      "InPlanePhaseEncodingDirection": "COL",
      "MRAcquisitionType": "2D",
      "MagneticFieldStrength": 3.0,
      "Manufacturer": "SIEMENS",
      "ManufacturerModelName": "TrioTim",
      "Modality": "MR",
      "NumberOfAverages": 1.0,
      "NumberOfPhaseEncodingSteps": 91,
      "PercentPhaseFieldOfView": 100.0,
      "PercentSampling": 100.0,
      "PerformedProcedureStepStartTime": "153143.640000",
      "PhotometricInterpretation": "MONOCHROME2",
      "PixelBandwidth": 1923.0,
      "PixelRepresentation": 0,
      "PixelSpacing": [2.0, 2.0],
      "ProtocolName": "cmrr_mbep2d_bold_2mm_MB8_Rest",
      "RepetitionTime": 785.0,
      "Rows": 936,
      "SAR": 0.12542737075805,
      "SamplesPerPixel": 1,
      "ScanOptions": [
        "PFP",
        "FS"
],
      "ScanningSequence": "EP",
      "SequenceName": "epfid2d1_104",
      "SequenceVariant": [
        "SK",
        "SS"
],
      "SeriesDescription": "cmrr_mbep2d_bold_2mm_MB8_Rest",
      "SeriesNumber": 9,
      "SeriesTime": "162031.656000",
      "SliceLocation": -109.5474515364,
      "SliceThickness": 2.0,
      "SmallestImagePixelValue": 0,
      "SoftwareVersions": "syngo MR B19",
      "SpacingBetweenSlices": 1.9999999358688,
      "SpecificCharacterSet": "ISO_IR 100",
      "StudyID": "1",
      "StudyTime": "153143.578000",
      "TransmitCoilName": "Body",
      "VariableFlipAngleFlag": "N",
      "WindowCenterWidthExplanation": "Algo1",
      "dBdt": 0.0},
    "slices": {}
  },
  "time": {
    "samples": {
      "AcquisitionNumber": [1, 2, 3, 4, 5, 6, 7, 8, 9, 10, 11, 12, 13, 14, 15, 16, 17, 18, 19, 20, 21, 22, 23, 24, 25, 26, 27, 28, 29, 30, 31, 32, 33, 34, 35, 36, 37, 38, 39, 40, 41, 42, 43, 44, 45, 46, 47, 48, 49, 50, 51, 52, 53, 54, 55, 56, 57, 58, 59, 60, 61, 62, 63, 64, 65, 66, 67, 68, 69, 70, 71, 72, 73, 74, 75, 76, 77, 78, 79, 80, 81, 82, 83, 84, 85, 86, 87, 88, 89, 90, 91, 92, 93, 94, 95, 96, 97, 98, 99, 100, 101, 102, 103, 104, 105, 106, 107, 108, 109, 110, 111, 112, 113, 114, 115, 116, 117, 118, 119, 120, 121, 122, 123, 124, 125, 126, 127, 128, 129, 130, 131, 132, 133, 134, 135, 136, 137, 138, 139, 140, 141, 142, 143, 144, 145, 146, 147, 148, 149, 150, 151, 152, 153, 154, 155, 156, 157, 158, 159, 160, 161, 162, 163, 164, 165, 166, 167, 168, 169, 170, 171, 172, 173, 174, 175, 176, 177, 178, 179, 180, 181, 182, 183, 184, 185, 186, 187, 188, 189, 190, 191, 192, 193, 194, 195, 196, 197, 198, 199, 200, 201, 202, 203, 204, 205, 206, 207, 208, 209, 210, 211, 212, 213, 214, 215, 216, 217, 218, 219, 220, 221, 222, 223, 224, 225, 226, 227, 228, 229, 230, 231, 232, 233, 234, 235, 236, 237, 238, 239, 240, 241, 242, 243, 244, 245, 246, 247, 248, 249, 250, 251, 252, 253, 254, 255, 256, 257, 258, 259, 260, 261, 262, 263, 264, 265, 266, 267, 268, 269, 270, 271, 272, 273, 274, 275, 276, 277, 278, 279, 280, 281, 282, 283, 284, 285, 286, 287, 288, 289, 290, 291, 292, 293, 294, 295, 296, 297, 298, 299, 300, 301, 302, 303, 304, 305, 306, 307, 308, 309, 310, 311, 312, 313, 314, 315, 316, 317, 318, 319, 320, 321, 322, 323, 324, 325, 326, 327, 328, 329, 330, 331, 332, 333, 334, 335, 336, 337, 338, 339, 340, 341, 342, 343, 344, 345, 346, 347, 348, 349, 350, 351, 352, 353, 354, 355, 356, 357, 358, 359, 360, 361, 362, 363, 364, 365, 366, 367, 368, 369, 370, 371, 372, 373, 374, 375, 376, 377, 378, 379, 380, 381, 382, 383, 384, 385, 386, 387, 388, 389, 390, 391, 392, 393, 394, 395, 396, 397, 398, 399, 400, 401, 402, 403, 404, 405, 406, 407, 408, 409, 410, 411, 412, 413, 414, 415, 416, 417, 418, 419, 420, 421, 422, 423, 424, 425, 426, 427, 428, 429, 430, 431, 432, 433, 434, 435, 436, 437, 438, 439, 440, 441, 442, 443, 444, 445, 446, 447, 448, 449, 450, 451, 452, 453, 454, 455, 456, 457, 458, 459, 460, 461, 462, 463, 464, 465, 466, 467, 468, 469, 470, 471, 472, 473, 474, 475, 476, 477, 478, 479, 480, 481, 482, 483, 484, 485, 486, 487, 488, 489, 490, 491, 492, 493, 494, 495, 496, 497, 498, 499, 500, 501, 502, 503, 504, 505, 506, 507, 508, 509, 510, 511, 512, 513, 514, 515, 516, 517, 518, 519, 520, 521, 522, 523, 524, 525, 526, 527, 528, 529, 530, 531, 532, 533, 534, 535, 536, 537, 538, 539, 540, 541, 542, 543, 544, 545, 546, 547, 548, 549, 550, 551, 552, 553, 554, 555, 556, 557, 558, 559, 560, 561, 562, 563, 564, 565, 566, 567, 568, 569, 570, 571, 572, 573, 574, 575, 576, 577, 578, 579, 580, 581, 582, 583, 584, 585, 586, 587, 588, 589, 590, 591, 592, 593, 594, 595, 596, 597, 598, 599, 600, 601, 602, 603, 604, 605, 606, 607, 608, 609, 610, 611, 612, 613, 614, 615, 616, 617, 618, 619, 620, 621, 622, 623, 624, 625, 626, 627, 628, 629, 630, 631, 632, 633, 634, 635, 636, 637, 638, 639, 640, 641, 642, 643, 644, 645, 646, 647, 648, 649, 650, 651, 652, 653, 654, 655, 656, 657, 658, 659, 660, 661, 662, 663, 664, 665, 666, 667, 668, 669, 670, 671, 672, 673, 674, 675, 676, 677, 678, 679, 680, 681, 682, 683, 684, 685, 686, 687, 688, 689, 690, 691, 692, 693, 694, 695, 696, 697, 698, 699, 700, 701, 702, 703, 704, 705, 706, 707, 708, 709, 710, 711, 712, 713, 714, 715, 716, 717, 718, 719, 720, 721, 722, 723, 724, 725, 726, 727, 728, 729, 730, 731, 732, 733, 734, 735, 736, 737, 738, 739, 740, 741, 742, 743, 744, 745, 746, 747, 748, 749, 750, 751, 752, 753, 754, 755, 756, 757, 758, 759, 760, 761, 762, 763, 764, 765, 766, 767, 768, 769, 770, 771, 772, 773, 774, 775, 776, 777, 778, 779, 780, 781, 782, 783, 784, 785, 786, 787, 788, 789, 790, 791, 792, 793, 794, 795, 796, 797, 798, 799, 800, 801, 802, 803, 804, 805, 806, 807, 808, 809, 810, 811, 812, 813, 814, 815, 816, 817, 818, 819, 820, 821, 822, 823, 824, 825, 826, 827, 828, 829, 830, 831, 832, 833, 834, 835, 836, 837, 838, 839, 840, 841, 842, 843, 844, 845, 846, 847, 848, 849, 850, 851, 852, 853, 854, 855, 856, 857, 858, 859, 860, 861, 862, 863, 864, 865, 866, 867, 868, 869, 870, 871, 872, 873, 874, 875, 876, 877, 878, 879, 880, 881, 882, 883, 884, 885, 886, 887, 888, 889, 890, 891, 892, 893, 894, 895, 896, 897, 898, 899, 900, 901, 902, 903, 904, 905, 906, 907, 908, 909, 910, 911, 912, 913, 914, 915, 916, 917, 918, 919, 920, 921, 922, 923, 924, 925, 926, 927, 928, 929, 930, 931, 932, 933, 934, 935, 936, 937, 938, 939, 940, 941, 942, 943, 944, 945, 946, 947, 948, 949, 950, 951, 952, 953, 954, 955, 956, 957, 958, 959, 960, 961, 962, 963, 964, 965, 966, 967, 968, 969, 970, 971, 972, 973, 974, 975, 976, 977, 978, 979, 980, 981, 982, 983, 984, 985, 986, 987, 988, 989, 990, 991, 992, 993, 994, 995, 996, 997, 998, 999, 1000, 1001, 1002, 1003, 1004, 1005, 1006, 1007, 1008, 1009, 1010, 1011, 1012, 1013, 1014, 1015, 1016, 1017, 1018, 1019, 1020, 1021, 1022, 1023, 1024, 1025, 1026, 1027, 1028, 1029, 1030, 1031, 1032, 1033, 1034, 1035, 1036, 1037, 1038, 1039, 1040, 1041, 1042, 1043, 1044, 1045, 1046, 1047, 1048, 1049, 1050, 1051, 1052, 1053, 1054, 1055, 1056, 1057, 1058, 1059, 1060, 1061, 1062, 1063, 1064, 1065, 1066, 1067, 1068, 1069, 1070],
      "AcquisitionTime": ["161956.912500", "161957.700000", "161958.487500", "161959.275000", "162000.065000", "162000.852500", "162001.640000", "162002.430000", "162003.217500", "162004.005000", "162004.792500", "162005.582500", "162006.370000", "162007.157500", "162007.945000", "162008.735000", "162009.522500", "162010.310000", "162011.097500", "162011.887500", "162012.675000", "162013.462500", "162014.250000", "162015.040000", "162015.827500", "162016.615000", "162017.402500", "162018.192500", "162018.980000", "162019.767500", "162020.557500", "162021.345000", "162022.132500", "162022.920000", "162023.710000", "162024.497500", "162025.285000", "162026.072500", "162026.862500", "162027.650000", "162028.437500", "162029.225000", "162030.015000", "162030.802500", "162031.590000", "162032.377500", "162033.167500", "162033.955000", "162034.742500", "162035.530000", "162036.320000", "162037.107500", "162037.895000", "162038.685000", "162039.472500", "162040.260000", "162041.047500", "162041.837500", "162042.625000", "162043.412500", "162044.200000", "162044.990000", "162045.777500", "162046.565000", "162047.352500", "162048.142500", "162048.930000", "162049.717500", "162050.505000", "162051.295000", "162052.082500", "162052.870000", "162053.660000", "162054.447500", "162055.235000", "162056.022500", "162056.812500", "162057.600000", "162058.387500", "162059.175000", "162059.965000", "162100.752500", "162101.540000", "162102.327500", "162103.117500", "162103.905000", "162104.692500", "162105.480000", "162106.270000", "162107.057500", "162107.845000", "162108.632500", "162109.422500", "162110.210000", "162110.997500", "162111.787500", "162112.575000", "162113.362500", "162114.150000", "162114.940000", "162115.727500", "162116.515000", "162117.302500", "162118.092500", "162118.880000", "162119.667500", "162120.455000", "162121.245000", "162122.032500", "162122.820000", "162123.607500", "162124.397500", "162125.185000", "162125.972500", "162126.760000", "162127.550000", "162128.337500", "162129.125000", "162129.915000", "162130.702500", "162131.490000", "162132.277500", "162133.067500", "162133.855000", "162134.642500", "162135.430000", "162136.220000", "162137.007500", "162137.795000", "162138.582500", "162139.372500", "162140.160000", "162140.947500", "162141.735000", "162142.525000", "162143.312500", "162144.100000", "162144.887500", "162145.677500", "162146.465000", "162147.252500", "162148.042500", "162148.830000", "162149.617500", "162150.405000", "162151.195000", "162151.982500", "162152.770000", "162153.557500", "162154.347500", "162155.135000", "162155.922500", "162156.710000", "162157.500000", "162158.287500", "162159.075000", "162159.862500", "162200.652500", "162201.440000", "162202.227500", "162203.015000", "162203.805000", "162204.592500", "162205.380000", "162206.170000", "162206.957500", "162207.745000", "162208.532500", "162209.322500", "162210.110000", "162210.897500", "162211.685000", "162212.475000", "162213.262500", "162214.050000", "162214.837500", "162215.627500", "162216.415000", "162217.202500", "162217.990000", "162218.780000", "162219.567500", "162220.355000", "162221.142500", "162221.932500", "162222.720000", "162223.507500", "162224.297500", "162225.085000", "162225.872500", "162226.660000", "162227.450000", "162228.237500", "162229.025000", "162229.812500", "162230.602500", "162231.390000", "162232.177500", "162232.965000", "162233.755000", "162234.542500", "162235.330000", "162236.117500", "162236.907500", "162237.695000", "162238.482500", "162239.270000", "162240.060000", "162240.847500", "162241.635000", "162242.425000", "162243.212500", "162244.000000", "162244.787500", "162245.577500", "162246.365000", "162247.152500", "162247.940000", "162248.730000", "162249.517500", "162250.305000", "162251.092500", "162251.882500", "162252.670000", "162253.457500", "162254.245000", "162255.035000", "162255.822500", "162256.610000", "162257.397500", "162258.187500", "162258.975000", "162259.762500", "162300.552500", "162301.340000", "162302.127500", "162302.915000", "162303.705000", "162304.492500", "162305.280000", "162306.067500", "162306.857500", "162307.645000", "162308.432500", "162309.220000", "162310.010000", "162310.797500", "162311.585000", "162312.372500", "162313.162500", "162313.950000", "162314.737500", "162315.525000", "162316.315000", "162317.102500", "162317.890000", "162318.680000", "162319.467500", "162320.255000", "162321.042500", "162321.832500", "162322.620000", "162323.407500", "162324.195000", "162324.985000", "162325.772500", "162326.560000", "162327.347500", "162328.137500", "162328.925000", "162329.712500", "162330.500000", "162331.290000", "162332.077500", "162332.865000", "162333.652500", "162334.442500", "162335.230000", "162336.017500", "162336.807500", "162337.595000", "162338.382500", "162339.170000", "162339.960000", "162340.747500", "162341.535000", "162342.322500", "162343.112500", "162343.900000", "162344.687500", "162345.475000", "162346.265000", "162347.052500", "162347.840000", "162348.627500", "162349.417500", "162350.205000", "162350.992500", "162351.780000", "162352.570000", "162353.357500", "162354.145000", "162354.935000", "162355.722500", "162356.510000", "162357.297500", "162358.087500", "162358.875000", "162359.662500", "162400.450000", "162401.240000", "162402.027500", "162402.815000", "162403.602500", "162404.392500", "162405.180000", "162405.967500", "162406.755000", "162407.545000", "162408.332500", "162409.120000", "162409.910000", "162410.697500", "162411.485000", "162412.272500", "162413.062500", "162413.850000", "162414.637500", "162415.425000", "162416.215000", "162417.002500", "162417.790000", "162418.577500", "162419.367500", "162420.155000", "162420.942500", "162421.730000", "162422.520000", "162423.307500", "162424.095000", "162424.882500", "162425.672500", "162426.460000", "162427.247500", "162428.037500", "162428.825000", "162429.612500", "162430.400000", "162431.190000", "162431.977500", "162432.765000", "162433.552500", "162434.342500", "162435.130000", "162435.917500", "162436.705000", "162437.495000", "162438.282500", "162439.070000", "162439.857500", "162440.647500", "162441.435000", "162442.222500", "162443.010000", "162443.800000", "162444.587500", "162445.375000", "162446.165000", "162446.952500", "162447.740000", "162448.527500", "162449.317500", "162450.105000", "162450.892500", "162451.680000", "162452.470000", "162453.257500", "162454.045000", "162454.832500", "162455.622500", "162456.410000", "162457.197500", "162457.985000", "162458.775000", "162459.562500", "162500.350000", "162501.137500", "162501.927500", "162502.715000", "162503.502500", "162504.292500", "162505.080000", "162505.867500", "162506.655000", "162507.445000", "162508.232500", "162509.020000", "162509.807500", "162510.597500", "162511.385000", "162512.172500", "162512.960000", "162513.750000", "162514.537500", "162515.325000", "162516.112500", "162516.902500", "162517.690000", "162518.477500", "162519.265000", "162520.055000", "162520.842500", "162521.630000", "162522.420000", "162523.207500", "162523.995000", "162524.782500", "162525.572500", "162526.360000", "162527.147500", "162527.935000", "162528.725000", "162529.512500", "162530.300000", "162531.087500", "162531.877500", "162532.665000", "162533.452500", "162534.240000", "162535.030000", "162535.817500", "162536.605000", "162537.392500", "162538.182500", "162538.970000", "162539.757500", "162540.547500", "162541.335000", "162542.122500", "162542.910000", "162543.700000", "162544.487500", "162545.275000", "162546.062500", "162546.852500", "162547.640000", "162548.427500", "162549.215000", "162550.005000", "162550.792500", "162551.580000", "162552.367500", "162553.157500", "162553.945000", "162554.732500", "162555.520000", "162556.310000", "162557.097500", "162557.885000", "162558.675000", "162559.462500", "162600.250000", "162601.037500", "162601.827500", "162602.615000", "162603.402500", "162604.190000", "162604.980000", "162605.767500", "162606.555000", "162607.342500", "162608.132500", "162608.920000", "162609.707500", "162610.495000", "162611.285000", "162612.072500", "162612.860000", "162613.647500", "162614.437500", "162615.225000", "162616.012500", "162616.802500", "162617.590000", "162618.377500", "162619.165000", "162619.955000", "162620.742500", "162621.530000", "162622.317500", "162623.107500", "162623.895000", "162624.682500", "162625.470000", "162626.260000", "162627.047500", "162627.835000", "162628.622500", "162629.412500", "162630.200000", "162630.987500", "162631.775000", "162632.565000", "162633.352500", "162634.140000", "162634.930000", "162635.717500", "162636.505000", "162637.292500", "162638.082500", "162638.870000", "162639.657500", "162640.445000", "162641.235000", "162642.022500", "162642.810000", "162643.597500", "162644.387500", "162645.175000", "162645.962500", "162646.750000", "162647.540000", "162648.327500", "162649.115000", "162649.902500", "162650.692500", "162651.480000", "162652.267500", "162653.057500", "162653.845000", "162654.632500", "162655.420000", "162656.210000", "162656.997500", "162657.785000", "162658.572500", "162659.362500", "162700.150000", "162700.937500", "162701.725000", "162702.515000", "162703.302500", "162704.090000", "162704.877500", "162705.667500", "162706.455000", "162707.242500", "162708.030000", "162708.820000", "162709.607500", "162710.395000", "162711.185000", "162711.972500", "162712.760000", "162713.547500", "162714.337500", "162715.125000", "162715.912500", "162716.700000", "162717.490000", "162718.277500", "162719.065000", "162719.852500", "162720.642500", "162721.430000", "162722.217500", "162723.005000", "162723.795000", "162724.582500", "162725.370000", "162726.160000", "162726.947500", "162727.735000", "162728.522500", "162729.312500", "162730.100000", "162730.887500", "162731.675000", "162732.465000", "162733.252500", "162734.040000", "162734.827500", "162735.617500", "162736.405000", "162737.192500", "162737.980000", "162738.770000", "162739.557500", "162740.345000", "162741.132500", "162741.922500", "162742.710000", "162743.497500", "162744.287500", "162745.075000", "162745.862500", "162746.650000", "162747.440000", "162748.227500", "162749.015000", "162749.802500", "162750.592500", "162751.380000", "162752.167500", "162752.955000", "162753.745000", "162754.532500", "162755.320000", "162756.107500", "162756.897500", "162757.685000", "162758.472500", "162759.260000", "162800.050000", "162800.837500", "162801.625000", "162802.415000", "162803.202500", "162803.990000", "162804.777500", "162805.567500", "162806.355000", "162807.142500", "162807.930000", "162808.720000", "162809.507500", "162810.295000", "162811.082500", "162811.872500", "162812.660000", "162813.447500", "162814.235000", "162815.025000", "162815.812500", "162816.600000", "162817.387500", "162818.177500", "162818.965000", "162819.752500", "162820.542500", "162821.330000", "162822.117500", "162822.905000", "162823.695000", "162824.482500", "162825.270000", "162826.057500", "162826.847500", "162827.635000", "162828.422500", "162829.210000", "162830.000000", "162830.787500", "162831.575000", "162832.362500", "162833.152500", "162833.940000", "162834.727500", "162835.515000", "162836.305000", "162837.092500", "162837.880000", "162838.670000", "162839.457500", "162840.245000", "162841.032500", "162841.822500", "162842.610000", "162843.397500", "162844.185000", "162844.975000", "162845.762500", "162846.550000", "162847.337500", "162848.127500", "162848.915000", "162849.702500", "162850.490000", "162851.280000", "162852.067500", "162852.855000", "162853.642500", "162854.432500", "162855.220000", "162856.007500", "162856.797500", "162857.585000", "162858.372500", "162859.160000", "162859.950000", "162900.737500", "162901.525000", "162902.312500", "162903.102500", "162903.890000", "162904.677500", "162905.465000", "162906.255000", "162907.042500", "162907.830000", "162908.617500", "162909.407500", "162910.195000", "162910.982500", "162911.770000", "162912.560000", "162913.347500", "162914.135000", "162914.925000", "162915.712500", "162916.500000", "162917.287500", "162918.077500", "162918.865000", "162919.652500", "162920.440000", "162921.230000", "162922.017500", "162922.805000", "162923.592500", "162924.382500", "162925.170000", "162925.957500", "162926.745000", "162927.535000", "162928.322500", "162929.110000", "162929.897500", "162930.687500", "162931.475000", "162932.262500", "162933.052500", "162933.840000", "162934.627500", "162935.415000", "162936.205000", "162936.992500", "162937.780000", "162938.567500", "162939.357500", "162940.145000", "162940.932500", "162941.720000", "162942.510000", "162943.297500", "162944.085000", "162944.872500", "162945.662500", "162946.450000", "162947.237500", "162948.025000", "162948.815000", "162949.602500", "162950.390000", "162951.180000", "162951.967500", "162952.755000", "162953.542500", "162954.332500", "162955.120000", "162955.907500", "162956.695000", "162957.485000", "162958.272500", "162959.060000", "162959.847500", "163000.637500", "163001.425000", "163002.212500", "163003.000000", "163003.790000", "163004.577500", "163005.365000", "163006.152500", "163006.942500", "163007.730000", "163008.517500", "163009.307500", "163010.095000", "163010.882500", "163011.670000", "163012.460000", "163013.247500", "163014.035000", "163014.822500", "163015.612500", "163016.400000", "163017.187500", "163017.975000", "163018.765000", "163019.552500", "163020.340000", "163021.127500", "163021.917500", "163022.705000", "163023.492500", "163024.280000", "163025.070000", "163025.857500", "163026.645000", "163027.435000", "163028.222500", "163029.010000", "163029.797500", "163030.587500", "163031.375000", "163032.162500", "163032.950000", "163033.740000", "163034.527500", "163035.315000", "163036.102500", "163036.892500", "163037.680000", "163038.467500", "163039.255000", "163040.045000", "163040.832500", "163041.620000", "163042.410000", "163043.197500", "163043.985000", "163044.772500", "163045.562500", "163046.350000", "163047.137500", "163047.925000", "163048.715000", "163049.502500", "163050.290000", "163051.077500", "163051.867500", "163052.655000", "163053.442500", "163054.230000", "163055.020000", "163055.807500", "163056.595000", "163057.382500", "163058.172500", "163058.960000", "163059.747500", "163100.537500", "163101.325000", "163102.112500", "163102.900000", "163103.690000", "163104.477500", "163105.265000", "163106.052500", "163106.842500", "163107.630000", "163108.417500", "163109.205000", "163109.995000", "163110.782500", "163111.570000", "163112.357500", "163113.147500", "163113.935000", "163114.722500", "163115.510000", "163116.300000", "163117.087500", "163117.875000", "163118.665000", "163119.452500", "163120.240000", "163121.027500", "163121.817500", "163122.605000", "163123.392500", "163124.180000", "163124.970000", "163125.757500", "163126.545000", "163127.332500", "163128.122500", "163128.910000", "163129.697500", "163130.485000", "163131.275000", "163132.062500", "163132.850000", "163133.637500", "163134.427500", "163135.215000", "163136.002500", "163136.792500", "163137.580000", "163138.367500", "163139.155000", "163139.945000", "163140.732500", "163141.520000", "163142.307500", "163143.097500", "163143.885000", "163144.672500", "163145.460000", "163146.250000", "163147.037500", "163147.825000", "163148.612500", "163149.402500", "163150.190000", "163150.977500", "163151.765000", "163152.555000", "163153.342500", "163154.130000", "163154.920000", "163155.707500", "163156.495000", "163157.282500", "163158.072500", "163158.860000", "163159.647500", "163200.435000", "163201.225000", "163202.012500", "163202.800000", "163203.587500", "163204.377500", "163205.165000", "163205.952500", "163206.740000", "163207.530000", "163208.317500", "163209.105000", "163209.892500", "163210.682500", "163211.470000", "163212.257500", "163213.047500", "163213.835000", "163214.622500", "163215.410000", "163216.200000", "163216.987500", "163217.775000", "163218.562500", "163219.352500", "163220.140000", "163220.927500", "163221.715000", "163222.505000", "163223.292500", "163224.080000", "163224.867500", "163225.657500", "163226.445000", "163227.232500", "163228.020000", "163228.810000", "163229.597500", "163230.385000", "163231.175000", "163231.962500", "163232.750000", "163233.537500", "163234.327500", "163235.115000", "163235.902500", "163236.690000", "163237.480000", "163238.267500", "163239.055000", "163239.842500", "163240.632500", "163241.420000", "163242.207500", "163242.995000", "163243.785000", "163244.572500", "163245.360000", "163246.147500", "163246.937500", "163247.725000", "163248.512500", "163249.302500", "163250.090000", "163250.877500", "163251.665000", "163252.455000", "163253.242500", "163254.030000", "163254.817500", "163255.607500", "163256.395000", "163257.182500", "163257.970000", "163258.760000", "163259.547500", "163300.335000", "163301.122500", "163301.912500", "163302.700000", "163303.487500", "163304.275000", "163305.065000", "163305.852500", "163306.640000", "163307.430000", "163308.217500", "163309.005000", "163309.792500", "163310.582500", "163311.370000", "163312.157500", "163312.945000", "163313.735000", "163314.522500", "163315.310000", "163316.097500", "163316.887500", "163317.675000", "163318.462500", "163319.250000", "163320.040000", "163320.827500", "163321.615000", "163322.402500", "163323.192500", "163323.980000", "163324.767500", "163325.557500", "163326.345000", "163327.132500", "163327.920000", "163328.710000", "163329.497500", "163330.285000", "163331.072500", "163331.862500", "163332.650000", "163333.437500", "163334.225000", "163335.015000", "163335.802500", "163336.590000", "163337.377500", "163338.167500", "163338.955000", "163339.742500", "163340.530000", "163341.320000", "163342.107500", "163342.895000", "163343.685000", "163344.472500", "163345.260000", "163346.047500", "163346.837500", "163347.625000", "163348.412500", "163349.200000", "163349.990000", "163350.777500", "163351.565000", "163352.352500", "163353.142500", "163353.930000", "163354.717500", "163355.505000", "163356.295000", "163357.082500", "163357.870000", "163358.660000", "163359.447500"],
