{
  "AcquisitionMatrixPE": 104,
  "AcquisitionNumber": 1,
  "AcquisitionTime": "11:58:17.740000",
  "BandwidthPerPixelPhaseEncode": 13.935,
  "BaseResolution": 104,
  "CoilString": "C:HEA;HEP",
  "ConversionSoftware": "dcm2niix",
  "ConversionSoftwareVersion": "v1.0.20210317",
  "DerivedVendorReportedEchoSpacing": 0.000690017,
  "DeviceSerialNumber": "35450",
  "DwellTime": 2.5e-06,
  "EchoTime": 0.0348,
  "EffectiveEchoSpacing": 0.000690017,
  "FlipAngle": 55,
  "ImageComments": "Unaliased MB8/PE3 (remote)",
  "ImageOrientationPatientDICOM": [0.999046, 0.00668102, 0.0431586, 6.15192e-09, 0.988229, -0.15298],
  "ImageType": [
    "ORIGINAL",
    "PRIMARY",
    "M",
    "MB",
    "ND",
    "MOSAIC"
],
  "ImagingFrequency": 123.234,
  "InPlanePhaseEncodingDirectionDICOM": "COL",
  "InstitutionAddress": "Univeristy Ave. 197,Newark,North East,US,07102-1814",
  "InstitutionName": "RUBIC",
  "InstitutionalDepartmentName": "Department",
  "MRAcquisitionType": "2D",
  "MagneticFieldStrength": 3,
  "Manufacturer": "Siemens",
  "ManufacturersModelName": "TrioTim",
  "Modality": "MR",
  "MultibandAccelerationFactor": 8,
  "PartialFourier": 0.875,
  "PatientPosition": "HFS",
  "PercentPhaseFOV": 100,
  "PercentSampling": 100,
  "PhaseEncodingDirection": "j-",
  "PhaseEncodingSteps": 91,
  "PhaseResolution": 1,
  "PixelBandwidth": 1923,
  "ProcedureStepDescription": "Cole^Michael",
  "ProtocolName": "cmrr_mbep2d_bold_2mm_MB8_Task_8x",
  "PulseSequenceDetails": "%CustomerSeq%\\cmrr_mbep2d_bold",
  "ReceiveCoilName": "32Ch_Head",
  "ReconMatrixPE": 104,
  "RepetitionTime": 0.785,
  "SAR": 0.131206,
  "ScanOptions": "PFP\\FS",
  "ScanningSequence": "EP",
  "SequenceName": "epfid2d1_104",
  "SequenceVariant": "SK\\SS",
  "SeriesDescription": "cmrr_mbep2d_bold_2mm_MB8_Task_8x",
  "SeriesNumber": 18,
  "ShimSetting": [2152, -381, -7328, 639, -176, -1, 127, -45],
  "SliceThickness": 2,
  "SliceTiming": [0, 0.4375, 0.0875, 0.525, 0.175, 0.6125, 0.2625, 0.7, 0.35, 0, 0.4375, 0.0875, 0.525, 0.175, 0.6125, 0.2625, 0.7, 0.35, 0, 0.4375, 0.0875, 0.525, 0.175, 0.6125, 0.2625, 0.7, 0.35, 0, 0.4375, 0.0875, 0.525, 0.175, 0.6125, 0.2625, 0.7, 0.35, 0, 0.4375, 0.0875, 0.525, 0.175, 0.6125, 0.2625, 0.7, 0.35, 0, 0.4375, 0.0875, 0.525, 0.175, 0.6125, 0.2625, 0.7, 0.35, 0, 0.4375, 0.0875, 0.525, 0.175, 0.6125, 0.2625, 0.7, 0.35, 0, 0.4375, 0.0875, 0.525, 0.175, 0.6125, 0.2625, 0.7, 0.35],
  "SoftwareVersions": "syngo MR B19",
  "SpacingBetweenSlices": 2,
  "StationName": "MRC35450",
  "TaskName": "cpro",
  "TotalReadoutTime": 0.0710717,
  "TxRefAmp": 347.613,
  "dcmmeta_affine": [
    [-1.9980918169021606, 1.2303834395765989e-08, 0.08734536916017532, 107.62000274658203],
    [-0.013362041674554348, 1.9764586687088013, -0.3056671619415283, -80.89434814453125],
    [0.08631725609302521, 0.3059590756893158, 1.9745728969573975, -128.68344116210938],
    [0.0, 0.0, 0.0, 1.0]
],
  "dcmmeta_reorient_transform": [
    [0.0, -1.0, 0.0, 103.0],
    [1.0, 0.0, 0.0, 0.0],
    [0.0, 0.0, 1.0, 0.0],
    [0.0, 0.0, 0.0, 1.0]
],
  "dcmmeta_shape": [104, 104, 72, 581],
  "dcmmeta_slice_dim": 2,
  "dcmmeta_version": 0.6,
  "global": {
    "const": {
      "AcquisitionMatrix": [104, 0, 0, 104],
      "AngioFlag": "N",
      "BitsAllocated": 16,
      "BitsStored": 12,
      "Columns": 936,
      "EchoNumbers": 1,
      "EchoTime": 34.8,
      "EchoTrainLength": 1,
      "FlipAngle": 55.0,
      "HighBit": 11,
      "ImageOrientationPatient": [0.99904589321385, 0.00668102074528, 0.04315862850396, 6.151917e-09, 0.98822935670289, -0.1529795363786],
      "ImagePositionPatient": [-938.82618888193, -950.4463298137, -5.7986641649119],
      "ImageType": [
        "ORIGINAL",
        "PRIMARY",
        "M",
        "MB",
        "ND",
        "MOSAIC"
],
      "ImagedNucleus": "1H",
      "ImagingFrequency": 123.234471,
      "InPlanePhaseEncodingDirection": "COL",
      "MRAcquisitionType": "2D",
      "MagneticFieldStrength": 3.0,
      "Manufacturer": "SIEMENS",
      "ManufacturerModelName": "TrioTim",
      "Modality": "MR",
      "NumberOfAverages": 1.0,
      "NumberOfPhaseEncodingSteps": 91,
      "PercentPhaseFieldOfView": 100.0,
      "PercentSampling": 100.0,
      "PerformedProcedureStepStartTime": "102321.359000",
      "PhotometricInterpretation": "MONOCHROME2",
      "PixelBandwidth": 1923.0,
      "PixelRepresentation": 0,
      "PixelSpacing": [2.0, 2.0],
      "ProtocolName": "cmrr_mbep2d_bold_2mm_MB8_Task_8x",
      "RepetitionTime": 785.0,
      "Rows": 936,
      "SAR": 0.13120641713045,
      "SamplesPerPixel": 1,
      "ScanOptions": [
        "PFP",
        "FS"
],
      "ScanningSequence": "EP",
      "SequenceName": "epfid2d1_104",
      "SequenceVariant": [
        "SK",
        "SS"
],
      "SeriesDescription": "cmrr_mbep2d_bold_2mm_MB8_Task_8x",
      "SeriesNumber": 18,
      "SeriesTime": "115846.828000",
      "SliceLocation": -109.98399718561,
      "SliceThickness": 2.0,
      "SmallestImagePixelValue": 0,
      "SoftwareVersions": "syngo MR B19",
      "SpacingBetweenSlices": 1.999999987165,
      "SpecificCharacterSet": "ISO_IR 100",
      "StudyID": "1",
      "StudyTime": "102321.312000",
      "TransmitCoilName": "Body",
      "VariableFlipAngleFlag": "N",
      "WindowCenterWidthExplanation": "Algo1",
      "dBdt": 0.0},
    "slices": {}
  },
  "time": {
    "samples": {
      "AcquisitionNumber": [1, 2, 3, 4, 5, 6, 7, 8, 9, 10, 11, 12, 13, 14, 15, 16, 17, 18, 19, 20, 21, 22, 23, 24, 25, 26, 27, 28, 29, 30, 31, 32, 33, 34, 35, 36, 37, 38, 39, 40, 41, 42, 43, 44, 45, 46, 47, 48, 49, 50, 51, 52, 53, 54, 55, 56, 57, 58, 59, 60, 61, 62, 63, 64, 65, 66, 67, 68, 69, 70, 71, 72, 73, 74, 75, 76, 77, 78, 79, 80, 81, 82, 83, 84, 85, 86, 87, 88, 89, 90, 91, 92, 93, 94, 95, 96, 97, 98, 99, 100, 101, 102, 103, 104, 105, 106, 107, 108, 109, 110, 111, 112, 113, 114, 115, 116, 117, 118, 119, 120, 121, 122, 123, 124, 125, 126, 127, 128, 129, 130, 131, 132, 133, 134, 135, 136, 137, 138, 139, 140, 141, 142, 143, 144, 145, 146, 147, 148, 149, 150, 151, 152, 153, 154, 155, 156, 157, 158, 159, 160, 161, 162, 163, 164, 165, 166, 167, 168, 169, 170, 171, 172, 173, 174, 175, 176, 177, 178, 179, 180, 181, 182, 183, 184, 185, 186, 187, 188, 189, 190, 191, 192, 193, 194, 195, 196, 197, 198, 199, 200, 201, 202, 203, 204, 205, 206, 207, 208, 209, 210, 211, 212, 213, 214, 215, 216, 217, 218, 219, 220, 221, 222, 223, 224, 225, 226, 227, 228, 229, 230, 231, 232, 233, 234, 235, 236, 237, 238, 239, 240, 241, 242, 243, 244, 245, 246, 247, 248, 249, 250, 251, 252, 253, 254, 255, 256, 257, 258, 259, 260, 261, 262, 263, 264, 265, 266, 267, 268, 269, 270, 271, 272, 273, 274, 275, 276, 277, 278, 279, 280, 281, 282, 283, 284, 285, 286, 287, 288, 289, 290, 291, 292, 293, 294, 295, 296, 297, 298, 299, 300, 301, 302, 303, 304, 305, 306, 307, 308, 309, 310, 311, 312, 313, 314, 315, 316, 317, 318, 319, 320, 321, 322, 323, 324, 325, 326, 327, 328, 329, 330, 331, 332, 333, 334, 335, 336, 337, 338, 339, 340, 341, 342, 343, 344, 345, 346, 347, 348, 349, 350, 351, 352, 353, 354, 355, 356, 357, 358, 359, 360, 361, 362, 363, 364, 365, 366, 367, 368, 369, 370, 371, 372, 373, 374, 375, 376, 377, 378, 379, 380, 381, 382, 383, 384, 385, 386, 387, 388, 389, 390, 391, 392, 393, 394, 395, 396, 397, 398, 399, 400, 401, 402, 403, 404, 405, 406, 407, 408, 409, 410, 411, 412, 413, 414, 415, 416, 417, 418, 419, 420, 421, 422, 423, 424, 425, 426, 427, 428, 429, 430, 431, 432, 433, 434, 435, 436, 437, 438, 439, 440, 441, 442, 443, 444, 445, 446, 447, 448, 449, 450, 451, 452, 453, 454, 455, 456, 457, 458, 459, 460, 461, 462, 463, 464, 465, 466, 467, 468, 469, 470, 471, 472, 473, 474, 475, 476, 477, 478, 479, 480, 481, 482, 483, 484, 485, 486, 487, 488, 489, 490, 491, 492, 493, 494, 495, 496, 497, 498, 499, 500, 501, 502, 503, 504, 505, 506, 507, 508, 509, 510, 511, 512, 513, 514, 515, 516, 517, 518, 519, 520, 521, 522, 523, 524, 525, 526, 527, 528, 529, 530, 531, 532, 533, 534, 535, 536, 537, 538, 539, 540, 541, 542, 543, 544, 545, 546, 547, 548, 549, 550, 551, 552, 553, 554, 555, 556, 557, 558, 559, 560, 561, 562, 563, 564, 565, 566, 567, 568, 569, 570, 571, 572, 573, 574, 575, 576, 577, 578, 579, 580, 581],
      "AcquisitionTime": ["115817.740000", "115818.527500", "115819.315000", "115820.102500", "115820.892500", "115821.680000", "115822.467500", "115823.255000", "115824.045000", "115824.832500", "115825.620000", "115826.410000", "115827.197500", "115827.985000", "115828.772500", "115829.562500", "115830.350000", "115831.137500", "115831.925000", "115832.715000", "115833.502500", "115834.290000", "115835.077500", "115835.867500", "115836.655000", "115837.442500", "115838.230000", "115839.020000", "115839.807500", "115840.595000", "115841.382500", "115842.172500", "115842.960000", "115843.747500", "115844.537500", "115845.325000", "115846.112500", "115846.900000", "115847.690000", "115848.477500", "115849.265000", "115850.052500", "115850.842500", "115851.630000", "115852.417500", "115853.205000", "115853.995000", "115854.782500", "115855.570000", "115856.357500", "115857.147500", "115857.935000", "115858.722500", "115859.510000", "115900.300000", "115901.087500", "115901.875000", "115902.665000", "115903.452500", "115904.240000", "115905.027500", "115905.817500", "115906.605000", "115907.392500", "115908.180000", "115908.970000", "115909.757500", "115910.545000", "115911.332500", "115912.122500", "115912.910000", "115913.697500", "115914.485000", "115915.275000", "115916.062500", "115916.850000", "115917.637500", "115918.427500", "115919.215000", "115920.002500", "115920.792500", "115921.580000", "115922.367500", "115923.155000", "115923.945000", "115924.732500", "115925.520000", "115926.307500", "115927.097500", "115927.885000", "115928.672500", "115929.460000", "115930.250000", "115931.037500", "115931.825000", "115932.612500", "115933.402500", "115934.190000", "115934.977500", "115935.767500", "115936.555000", "115937.342500", "115938.130000", "115938.920000", "115939.707500", "115940.495000", "115941.282500", "115942.072500", "115942.860000", "115943.647500", "115944.435000", "115945.225000", "115946.012500", "115946.800000", "115947.587500", "115948.377500", "115949.165000", "115949.952500", "115950.740000", "115951.530000", "115952.317500", "115953.105000", "115953.895000", "115954.682500", "115955.470000", "115956.257500", "115957.047500", "115957.835000", "115958.622500", "115959.410000", "120000.200000", "120000.987500", "120001.775000", "120002.562500", "120003.352500", "120004.140000", "120004.927500", "120005.715000", "120006.505000", "120007.292500", "120008.080000", "120008.867500", "120009.657500", "120010.445000", "120011.232500", "120012.022500", "120012.810000", "120013.597500", "120014.385000", "120015.175000", "120015.962500", "120016.750000", "120017.537500", "120018.327500", "120019.115000", "120019.902500", "120020.690000", "120021.480000", "120022.267500", "120023.055000", "120023.842500", "120024.632500", "120025.420000", "120026.207500", "120026.995000", "120027.785000", "120028.572500", "120029.360000", "120030.150000", "120030.937500", "120031.725000", "120032.512500", "120033.302500", "120034.090000", "120034.877500", "120035.665000", "120036.455000", "120037.242500", "120038.030000", "120038.817500", "120039.607500", "120040.395000", "120041.182500", "120041.970000", "120042.760000", "120043.547500", "120044.335000", "120045.122500", "120045.912500", "120046.700000", "120047.487500", "120048.277500", "120049.065000", "120049.852500", "120050.640000", "120051.430000", "120052.217500", "120053.005000", "120053.792500", "120054.582500", "120055.370000", "120056.157500", "120056.945000", "120057.735000", "120058.522500", "120059.310000", "120100.097500", "120100.887500", "120101.675000", "120102.462500", "120103.250000", "120104.040000", "120104.827500", "120105.615000", "120106.405000", "120107.192500", "120107.980000", "120108.767500", "120109.557500", "120110.345000", "120111.132500", "120111.920000", "120112.710000", "120113.497500", "120114.285000", "120115.072500", "120115.862500", "120116.650000", "120117.437500", "120118.225000", "120119.015000", "120119.802500", "120120.590000", "120121.377500", "120122.167500", "120122.955000", "120123.742500", "120124.532500", "120125.320000", "120126.107500", "120126.895000", "120127.685000", "120128.472500", "120129.260000", "120130.047500", "120130.837500", "120131.625000", "120132.412500", "120133.200000", "120133.990000", "120134.777500", "120135.565000", "120136.352500", "120137.142500", "120137.930000", "120138.717500", "120139.505000", "120140.295000", "120141.082500", "120141.870000", "120142.660000", "120143.447500", "120144.235000", "120145.022500", "120145.812500", "120146.600000", "120147.387500", "120148.175000", "120148.965000", "120149.752500", "120150.540000", "120151.327500", "120152.117500", "120152.905000", "120153.692500", "120154.480000", "120155.270000", "120156.057500", "120156.845000", "120157.632500", "120158.422500", "120159.210000", "120159.997500", "120200.787500", "120201.575000", "120202.362500", "120203.150000", "120203.940000", "120204.727500", "120205.515000", "120206.302500", "120207.092500", "120207.880000", "120208.667500", "120209.455000", "120210.245000", "120211.032500", "120211.820000", "120212.607500", "120213.397500", "120214.185000", "120214.972500", "120215.760000", "120216.550000", "120217.337500", "120218.125000", "120218.915000", "120219.702500", "120220.490000", "120221.277500", "120222.067500", "120222.855000", "120223.642500", "120224.430000", "120225.220000", "120226.007500", "120226.795000", "120227.582500", "120228.372500", "120229.160000", "120229.947500", "120230.735000", "120231.525000", "120232.312500", "120233.100000", "120233.887500", "120234.677500", "120235.465000", "120236.252500", "120237.042500", "120237.830000", "120238.617500", "120239.405000", "120240.195000", "120240.982500", "120241.770000", "120242.557500", "120243.347500", "120244.135000", "120244.922500", "120245.710000", "120246.500000", "120247.287500", "120248.075000", "120248.862500", "120249.652500", "120250.440000", "120251.227500", "120252.017500", "120252.805000", "120253.592500", "120254.380000", "120255.170000", "120255.957500", "120256.745000", "120257.532500", "120258.322500", "120259.110000", "120259.897500", "120300.685000", "120301.475000", "120302.262500", "120303.050000", "120303.837500", "120304.627500", "120305.415000", "120306.202500", "120306.990000", "120307.780000", "120308.567500", "120309.355000", "120310.145000", "120310.932500", "120311.720000", "120312.507500", "120313.297500", "120314.085000", "120314.872500", "120315.660000", "120316.450000", "120317.237500", "120318.025000", "120318.812500", "120319.602500", "120320.390000", "120321.177500", "120321.965000", "120322.755000", "120323.542500", "120324.330000", "120325.117500", "120325.907500", "120326.695000", "120327.482500", "120328.272500", "120329.060000", "120329.847500", "120330.635000", "120331.425000", "120332.212500", "120333.000000", "120333.787500", "120334.577500", "120335.365000", "120336.152500", "120336.940000", "120337.730000", "120338.517500", "120339.305000", "120340.092500", "120340.882500", "120341.670000", "120342.457500", "120343.245000", "120344.035000", "120344.822500", "120345.610000", "120346.400000", "120347.187500", "120347.975000", "120348.762500", "120349.552500", "120350.340000", "120351.127500", "120351.915000", "120352.705000", "120353.492500", "120354.280000", "120355.067500", "120355.857500", "120356.645000", "120357.432500", "120358.220000", "120359.010000", "120359.797500", "120400.585000", "120401.372500", "120402.162500", "120402.950000", "120403.737500", "120404.527500", "120405.315000", "120406.102500", "120406.890000", "120407.680000", "120408.467500", "120409.255000", "120410.042500", "120410.832500", "120411.620000", "120412.407500", "120413.195000", "120413.985000", "120414.772500", "120415.560000", "120416.347500", "120417.137500", "120417.925000", "120418.712500", "120419.500000", "120420.290000", "120421.077500", "120421.865000", "120422.655000", "120423.442500", "120424.230000", "120425.017500", "120425.807500", "120426.595000", "120427.382500", "120428.170000", "120428.960000", "120429.747500", "120430.535000", "120431.322500", "120432.112500", "120432.900000", "120433.687500", "120434.475000", "120435.265000", "120436.052500", "120436.840000", "120437.627500", "120438.417500", "120439.205000", "120439.992500", "120440.782500", "120441.570000", "120442.357500", "120443.145000", "120443.935000", "120444.722500", "120445.510000", "120446.297500", "120447.087500", "120447.875000", "120448.662500", "120449.450000", "120450.240000", "120451.027500", "120451.815000", "120452.602500", "120453.392500", "120454.180000", "120454.967500", "120455.755000", "120456.545000", "120457.332500", "120458.120000", "120458.910000", "120459.697500", "120500.485000", "120501.272500", "120502.062500", "120502.850000", "120503.637500", "120504.425000", "120505.215000", "120506.002500", "120506.790000", "120507.577500", "120508.367500", "120509.155000", "120509.942500", "120510.730000", "120511.520000", "120512.307500", "120513.095000", "120513.882500", "120514.672500", "120515.460000", "120516.247500", "120517.037500", "120517.825000", "120518.612500", "120519.400000", "120520.190000", "120520.977500", "120521.765000", "120522.552500", "120523.342500", "120524.130000", "120524.917500", "120525.705000", "120526.495000", "120527.282500", "120528.070000", "120528.857500", "120529.647500", "120530.435000", "120531.222500", "120532.010000", "120532.800000", "120533.587500", "120534.375000", "120535.165000", "120535.952500", "120536.740000", "120537.527500", "120538.317500", "120539.105000", "120539.892500", "120540.680000", "120541.470000", "120542.257500", "120543.045000", "120543.832500", "120544.622500", "120545.410000", "120546.197500", "120546.985000", "120547.775000", "120548.562500", "120549.350000", "120550.137500", "120550.927500", "120551.715000", "120552.502500", "120553.292500", "120554.080000", "120554.867500"],
      "ContentTime": ["115846.828000", "115846.828000", "115846.843000", "115846.843000", "115846.843000", "115846.843000", "115846.843000", "115846.843000", "115846.843000", "115846.843000", "115846.859000", "115846.859000", "115846.859000", "115846.859000", "115846.859000", "115846.859000", "115846.859000", "115846.875000", "115846.875000", "115846.875000", "115846.875000", "115846.875000", "115846.875000", "115846.890000", "115846.890000", "115846.890000", "115846.890000", "115846.890000", "115846.890000", "115846.890000", "115846.890000", "115846.906000", "115846.906000", "115846.906000", "115906.812000", "115906.812000", "115906.812000", "115906.812000", "115906.812000", "115906.812000", "115906.828000", "115906.828000", "115906.828000", "115906.828000", "115906.828000", "115906.828000", "115906.828000", "115906.828000", "115906.843000", "115906.843000", "115906.843000", "115906.843000", "115906.843000", "115906.843000", "115906.859000", "115906.859000", "115906.859000", "115906.859000", "115906.859000", "115906.859000", "115926.812000", "115926.812000", "115926.812000", "115926.812000", "115926.812000", "115926.812000", "115926.828000", "115926.828000", "115926.828000", "115926.828000", "115926.828000", "115926.828000", "115926.828000", "115926.843000", "115926.843000", "115926.843000", "115926.843000", "115926.859000", "115926.859000", "115926.859000", "115926.859000", "115926.859000", "115926.859000", "115926.875000", "115926.875000", "115946.812000", "115946.812000", "115946.812000", "115946.812000", "115946.812000", "115946.812000", "115946.828000", "115946.828000", "115946.828000", "115946.828000", "115946.828000", "115946.828000", "115946.828000", "115946.843000", "115946.843000", "115946.843000", "115946.843000", "115946.843000", "115946.843000", "115946.843000", "115946.859000", "115946.859000", "115946.859000", "115946.859000", "115946.859000", "115946.859000", "120006.812000", "120006.812000", "120006.812000", "120006.828000", "120006.828000", "120006.828000", "120006.828000", "120006.828000", "120006.828000", "120006.828000", "120006.843000", "120006.843000", "120006.843000", "120006.843000", "120006.843000", "120006.843000", "120006.843000", "120006.843000", "120006.859000", "120006.859000", "120006.859000", "120006.859000", "120006.859000", "120006.859000", "120006.875000", "120026.812000", "120026.812000", "120026.812000", "120026.812000", "120026.812000", "120026.812000", "120026.828000", "120026.828000", "120026.828000", "120026.828000", "120026.828000", "120026.828000", "120026.828000", "120026.828000", "120026.843000", "120026.843000", "120026.843000", "120026.843000", "120026.843000", "120026.843000", "120026.843000", "120026.859000", "120026.859000", "120026.859000", "120026.859000", "120026.859000", "120046.812000", "120046.812000", "120046.812000", "120046.812000", "120046.812000", "120046.812000", "120046.828000", "120046.828000", "120046.828000", "120046.828000", "120046.828000", "120046.828000", "120046.828000", "120046.828000", "120046.843000", "120046.843000", "120046.843000", "120046.843000", "120046.843000", "120046.843000", "120046.843000", "120046.859000", "120046.859000", "120046.859000", "120046.859000", "120106.812000", "120106.812000", "120106.812000", "120106.812000", "120106.812000", "120106.812000", "120106.828000", "120106.828000", "120106.828000", "120106.828000", "120106.828000", "120106.828000", "120106.843000", "120106.843000", "120106.843000", "120106.843000", "120106.843000", "120106.843000", "120106.843000", "120106.843000", "120106.859000", "120106.859000", "120106.859000", "120106.859000", "120106.859000", "120106.859000", "120126.812000", "120126.812000", "120126.812000", "120126.812000", "120126.812000", "120126.812000", "120126.828000", "120126.828000", "120126.828000", "120126.828000", "120126.828000", "120126.828000", "120126.828000", "120126.843000", "120126.843000", "120126.843000", "120126.843000", "120126.843000", "120126.843000", "120126.843000", "120126.843000", "120126.859000", "120126.859000", "120126.859000", "120126.859000", "120146.812000", "120146.812000", "120146.812000", "120146.812000", "120146.812000", "120146.812000", "120146.828000", "120146.828000", "120146.828000", "120146.828000", "120146.828000", "120146.828000", "120146.828000", "120146.828000", "120146.843000", "120146.843000", "120146.843000", "120146.843000", "120146.843000", "120146.843000", "120146.859000", "120146.859000", "120146.859000", "120146.859000", "120146.859000", "120146.859000", "120206.812000", "120206.812000", "120206.812000", "120206.812000", "120206.812000", "120206.812000", "120206.828000", "120206.828000", "120206.828000", "120206.828000", "120206.828000", "120206.828000", "120206.828000", "120206.843000", "120206.843000", "120206.843000", "120206.843000", "120206.843000", "120206.843000", "120206.859000", "120206.859000", "120206.859000", "120206.859000", "120206.859000", "120206.875000", "120226.812000", "120226.812000", "120226.812000", "120226.812000", "120226.812000", "120226.812000", "120226.828000", "120226.828000", "120226.828000", "120226.828000", "120226.828000", "120226.828000", "120226.828000", "120226.828000", "120226.843000", "120226.843000", "120226.843000", "120226.843000", "120226.843000", "120226.843000", "120226.843000", "120226.859000", "120226.859000", "120226.859000", "120226.859000", "120226.859000", "120246.812000", "120246.812000", "120246.812000", "120246.812000", "120246.812000", "120246.812000", "120246.828000", "120246.828000", "120246.828000", "120246.828000", "120246.828000", "120246.828000", "120246.828000", "120246.828000", "120246.843000", "120246.843000", "120246.843000", "120246.843000", "120246.843000", "120246.843000", "120246.859000", "120246.859000", "120246.859000", "120246.859000", "120246.859000", "120306.812000", "120306.812000", "120306.812000", "120306.812000", "120306.812000", "120306.812000", "120306.828000", "120306.828000", "120306.828000", "120306.828000", "120306.828000", "120306.828000", "120306.828000", "120306.828000", "120306.843000", "120306.843000", "120306.843000", "120306.843000", "120306.843000", "120306.843000", "120306.843000", "120306.859000", "120306.859000", "120306.859000", "120306.859000", "120306.859000", "120326.812000", "120326.812000", "120326.812000", "120326.812000", "120326.812000", "120326.812000", "120326.828000", "120326.828000", "120326.828000", "120326.828000", "120326.828000", "120326.828000", "120326.843000", "120326.843000", "120326.843000", "120326.843000", "120326.843000", "120326.843000", "120326.843000", "120326.859000", "120326.859000", "120326.859000", "120326.859000", "120326.859000", "120326.859000", "120346.812000", "120346.812000", "120346.812000", "120346.812000", "120346.812000", "120346.812000", "120346.828000", "120346.828000", "120346.828000", "120346.828000", "120346.828000", "120346.828000", "120346.828000", "120346.828000", "120346.843000", "120346.843000", "120346.843000", "120346.843000", "120346.843000", "120346.843000", "120346.843000", "120346.859000", "120346.859000", "120346.859000", "120346.859000", "120346.859000", "120406.812000", "120406.812000", "120406.812000", "120406.812000", "120406.812000", "120406.812000", "120406.828000", "120406.828000", "120406.828000", "120406.828000", "120406.828000", "120406.828000", "120406.828000", "120406.843000", "120406.843000", "120406.843000", "120406.843000", "120406.843000", "120406.843000", "120406.859000", "120406.859000", "120406.859000", "120406.859000", "120406.859000", "120406.859000", "120426.812000", "120426.812000", "120426.812000", "120426.812000", "120426.812000", "120426.812000", "120426.828000", "120426.828000", "120426.828000", "120426.828000", "120426.828000", "120426.828000", "120426.828000", "120426.828000", "120426.843000", "120426.843000", "120426.843000", "120426.843000", "120426.843000", "120426.843000", "120426.859000", "120426.859000", "120426.859000", "120426.859000", "120426.859000", "120426.859000", "120446.812000", "120446.812000", "120446.812000", "120446.812000", "120446.812000", "120446.812000", "120446.828000", "120446.828000", "120446.828000", "120446.828000", "120446.828000", "120446.828000", "120446.828000", "120446.828000", "120446.843000", "120446.843000", "120446.843000", "120446.843000", "120446.843000", "120446.843000", "120446.843000", "120446.859000", "120446.859000", "120446.859000", "120446.859000", "120506.812000", "120506.812000", "120506.812000", "120506.812000", "120506.812000", "120506.812000", "120506.828000", "120506.828000", "120506.828000", "120506.828000", "120506.828000", "120506.843000", "120506.843000", "120506.843000", "120506.843000", "120506.843000", "120506.843000", "120506.859000", "120506.859000", "120506.859000", "120506.859000", "120506.859000", "120506.875000", "120506.875000", "120506.875000", "120506.875000", "120526.812000", "120526.812000", "120526.812000", "120526.812000", "120526.812000", "120526.812000", "120526.828000", "120526.828000", "120526.828000", "120526.828000", "120526.828000", "120526.828000", "120526.828000", "120526.828000", "120526.843000", "120526.843000", "120526.843000", "120526.843000", "120526.843000", "120526.843000", "120526.843000", "120526.859000", "120526.859000", "120526.859000", "120526.859000", "120546.812000", "120546.812000", "120546.812000", "120546.812000", "120546.828000", "120546.828000", "120546.828000", "120546.828000", "120546.828000", "120546.828000", "120546.828000", "120546.828000", "120546.843000", "120546.843000", "120546.843000", "120546.843000", "120546.843000", "120546.843000", "120546.843000", "120546.859000", "120546.859000", "120546.859000", "120546.859000", "120546.859000", "120546.859000", "120555.531000", "120555.531000", "120555.531000", "120555.531000", "120555.546000", "120555.546000", "120555.546000", "120555.546000", "120555.546000", "120555.546000", "120555.546000", "120555.546000"],
