{
  "AcquisitionMatrixPE": 104,
  "AcquisitionNumber": 1,
  "AcquisitionTime": "12:14:32.705000",
  "BandwidthPerPixelPhaseEncode": 13.935,
  "BaseResolution": 104,
  "CoilString": "C:HEA;HEP",
  "ConversionSoftware": "dcm2niix",
  "ConversionSoftwareVersion": "v1.0.20210317",
  "DerivedVendorReportedEchoSpacing": 0.000690017,
  "DeviceSerialNumber": "35450",
  "DwellTime": 2.5e-06,
  "EchoTime": 0.0348,
  "EffectiveEchoSpacing": 0.000690017,
  "FlipAngle": 55,
  "ImageComments": "Unaliased MB8/PE3 (remote)",
  "ImageOrientationPatientDICOM": [0.999046, 0.00668102, 0.0431586, 6.15192e-09, 0.988229, -0.15298],
  "ImageType": [
    "ORIGINAL",
    "PRIMARY",
    "M",
    "MB",
    "ND",
    "MOSAIC"
],
  "ImagingFrequency": 123.234,
  "InPlanePhaseEncodingDirectionDICOM": "COL",
  "InstitutionAddress": "Univeristy Ave. 197,Newark,North East,US,07102-1814",
  "InstitutionName": "RUBIC",
  "InstitutionalDepartmentName": "Department",
  "MRAcquisitionType": "2D",
  "MagneticFieldStrength": 3,
  "Manufacturer": "Siemens",
  "ManufacturersModelName": "TrioTim",
  "Modality": "MR",
  "MultibandAccelerationFactor": 8,
  "PartialFourier": 0.875,
  "PatientPosition": "HFS",
  "PercentPhaseFOV": 100,
  "PercentSampling": 100,
  "PhaseEncodingDirection": "j-",
  "PhaseEncodingSteps": 91,
  "PhaseResolution": 1,
  "PixelBandwidth": 1923,
  "ProcedureStepDescription": "Cole^Michael",
  "ProtocolName": "cmrr_mbep2d_bold_2mm_MB8_Task_8x",
  "PulseSequenceDetails": "%CustomerSeq%\\cmrr_mbep2d_bold",
  "ReceiveCoilName": "32Ch_Head",
  "ReconMatrixPE": 104,
  "RepetitionTime": 0.785,
  "SAR": 0.131206,
  "ScanOptions": "PFP\\FS",
  "ScanningSequence": "EP",
  "SequenceName": "epfid2d1_104",
  "SequenceVariant": "SK\\SS",
  "SeriesDescription": "cmrr_mbep2d_bold_2mm_MB8_Task_8x",
  "SeriesNumber": 22,
  "ShimSetting": [2152, -381, -7328, 639, -176, -1, 127, -45],
  "SliceThickness": 2,
  "SliceTiming": [0, 0.4375, 0.0875, 0.525, 0.175, 0.6125, 0.2625, 0.7025, 0.35, 0, 0.4375, 0.0875, 0.525, 0.175, 0.6125, 0.2625, 0.7025, 0.35, 0, 0.4375, 0.0875, 0.525, 0.175, 0.6125, 0.2625, 0.7025, 0.35, 0, 0.4375, 0.0875, 0.525, 0.175, 0.6125, 0.2625, 0.7025, 0.35, 0, 0.4375, 0.0875, 0.525, 0.175, 0.6125, 0.2625, 0.7025, 0.35, 0, 0.4375, 0.0875, 0.525, 0.175, 0.6125, 0.2625, 0.7025, 0.35, 0, 0.4375, 0.0875, 0.525, 0.175, 0.6125, 0.2625, 0.7025, 0.35, 0, 0.4375, 0.0875, 0.525, 0.175, 0.6125, 0.2625, 0.7025, 0.35],
  "SoftwareVersions": "syngo MR B19",
  "SpacingBetweenSlices": 2,
  "StationName": "MRC35450",
  "TaskName": "cpro",
  "TotalReadoutTime": 0.0710717,
  "TxRefAmp": 347.613,
  "dcmmeta_affine": [
    [-1.9980918169021606, 1.2303834395765989e-08, 0.08734536916017532, 107.62000274658203],
    [-0.013362041674554348, 1.9764586687088013, -0.3056671619415283, -80.89434814453125],
    [0.08631725609302521, 0.3059590756893158, 1.9745728969573975, -128.68344116210938],
    [0.0, 0.0, 0.0, 1.0]
],
  "dcmmeta_reorient_transform": [
    [0.0, -1.0, 0.0, 103.0],
    [1.0, 0.0, 0.0, 0.0],
    [0.0, 0.0, 1.0, 0.0],
    [0.0, 0.0, 0.0, 1.0]
],
  "dcmmeta_shape": [104, 104, 72, 581],
  "dcmmeta_slice_dim": 2,
  "dcmmeta_version": 0.6,
  "global": {
    "const": {
      "AcquisitionMatrix": [104, 0, 0, 104],
      "AngioFlag": "N",
      "BitsAllocated": 16,
      "BitsStored": 12,
      "Columns": 936,
      "EchoNumbers": 1,
      "EchoTime": 34.8,
      "EchoTrainLength": 1,
      "FlipAngle": 55.0,
      "HighBit": 11,
      "ImageOrientationPatient": [0.99904589321385, 0.00668102074528, 0.04315862850396, 6.151917e-09, 0.98822935670289, -0.1529795363786],
      "ImagePositionPatient": [-938.82618888193, -950.4463298137, -5.7986641649119],
      "ImageType": [
        "ORIGINAL",
        "PRIMARY",
        "M",
        "MB",
        "ND",
        "MOSAIC"
],
      "ImagedNucleus": "1H",
      "ImagingFrequency": 123.234471,
      "InPlanePhaseEncodingDirection": "COL",
      "MRAcquisitionType": "2D",
      "MagneticFieldStrength": 3.0,
      "Manufacturer": "SIEMENS",
      "ManufacturerModelName": "TrioTim",
      "Modality": "MR",
      "NumberOfAverages": 1.0,
      "NumberOfPhaseEncodingSteps": 91,
      "PercentPhaseFieldOfView": 100.0,
      "PercentSampling": 100.0,
      "PerformedProcedureStepStartTime": "102321.359000",
      "PhotometricInterpretation": "MONOCHROME2",
      "PixelBandwidth": 1923.0,
      "PixelRepresentation": 0,
      "PixelSpacing": [2.0, 2.0],
      "ProtocolName": "cmrr_mbep2d_bold_2mm_MB8_Task_8x",
      "RepetitionTime": 785.0,
      "Rows": 936,
      "SAR": 0.13120641713045,
      "SamplesPerPixel": 1,
      "ScanOptions": [
        "PFP",
        "FS"
],
      "ScanningSequence": "EP",
      "SequenceName": "epfid2d1_104",
      "SequenceVariant": [
        "SK",
        "SS"
],
      "SeriesDescription": "cmrr_mbep2d_bold_2mm_MB8_Task_8x",
      "SeriesNumber": 22,
      "SeriesTime": "121455.750000",
      "SliceLocation": -109.98399718561,
      "SliceThickness": 2.0,
      "SmallestImagePixelValue": 0,
      "SoftwareVersions": "syngo MR B19",
      "SpacingBetweenSlices": 1.999999987165,
      "SpecificCharacterSet": "ISO_IR 100",
      "StudyID": "1",
      "StudyTime": "102321.312000",
      "TransmitCoilName": "Body",
      "VariableFlipAngleFlag": "N",
      "WindowCenterWidthExplanation": "Algo1",
      "dBdt": 0.0},
    "slices": {}
  },
  "time": {
    "samples": {
      "AcquisitionNumber": [1, 2, 3, 4, 5, 6, 7, 8, 9, 10, 11, 12, 13, 14, 15, 16, 17, 18, 19, 20, 21, 22, 23, 24, 25, 26, 27, 28, 29, 30, 31, 32, 33, 34, 35, 36, 37, 38, 39, 40, 41, 42, 43, 44, 45, 46, 47, 48, 49, 50, 51, 52, 53, 54, 55, 56, 57, 58, 59, 60, 61, 62, 63, 64, 65, 66, 67, 68, 69, 70, 71, 72, 73, 74, 75, 76, 77, 78, 79, 80, 81, 82, 83, 84, 85, 86, 87, 88, 89, 90, 91, 92, 93, 94, 95, 96, 97, 98, 99, 100, 101, 102, 103, 104, 105, 106, 107, 108, 109, 110, 111, 112, 113, 114, 115, 116, 117, 118, 119, 120, 121, 122, 123, 124, 125, 126, 127, 128, 129, 130, 131, 132, 133, 134, 135, 136, 137, 138, 139, 140, 141, 142, 143, 144, 145, 146, 147, 148, 149, 150, 151, 152, 153, 154, 155, 156, 157, 158, 159, 160, 161, 162, 163, 164, 165, 166, 167, 168, 169, 170, 171, 172, 173, 174, 175, 176, 177, 178, 179, 180, 181, 182, 183, 184, 185, 186, 187, 188, 189, 190, 191, 192, 193, 194, 195, 196, 197, 198, 199, 200, 201, 202, 203, 204, 205, 206, 207, 208, 209, 210, 211, 212, 213, 214, 215, 216, 217, 218, 219, 220, 221, 222, 223, 224, 225, 226, 227, 228, 229, 230, 231, 232, 233, 234, 235, 236, 237, 238, 239, 240, 241, 242, 243, 244, 245, 246, 247, 248, 249, 250, 251, 252, 253, 254, 255, 256, 257, 258, 259, 260, 261, 262, 263, 264, 265, 266, 267, 268, 269, 270, 271, 272, 273, 274, 275, 276, 277, 278, 279, 280, 281, 282, 283, 284, 285, 286, 287, 288, 289, 290, 291, 292, 293, 294, 295, 296, 297, 298, 299, 300, 301, 302, 303, 304, 305, 306, 307, 308, 309, 310, 311, 312, 313, 314, 315, 316, 317, 318, 319, 320, 321, 322, 323, 324, 325, 326, 327, 328, 329, 330, 331, 332, 333, 334, 335, 336, 337, 338, 339, 340, 341, 342, 343, 344, 345, 346, 347, 348, 349, 350, 351, 352, 353, 354, 355, 356, 357, 358, 359, 360, 361, 362, 363, 364, 365, 366, 367, 368, 369, 370, 371, 372, 373, 374, 375, 376, 377, 378, 379, 380, 381, 382, 383, 384, 385, 386, 387, 388, 389, 390, 391, 392, 393, 394, 395, 396, 397, 398, 399, 400, 401, 402, 403, 404, 405, 406, 407, 408, 409, 410, 411, 412, 413, 414, 415, 416, 417, 418, 419, 420, 421, 422, 423, 424, 425, 426, 427, 428, 429, 430, 431, 432, 433, 434, 435, 436, 437, 438, 439, 440, 441, 442, 443, 444, 445, 446, 447, 448, 449, 450, 451, 452, 453, 454, 455, 456, 457, 458, 459, 460, 461, 462, 463, 464, 465, 466, 467, 468, 469, 470, 471, 472, 473, 474, 475, 476, 477, 478, 479, 480, 481, 482, 483, 484, 485, 486, 487, 488, 489, 490, 491, 492, 493, 494, 495, 496, 497, 498, 499, 500, 501, 502, 503, 504, 505, 506, 507, 508, 509, 510, 511, 512, 513, 514, 515, 516, 517, 518, 519, 520, 521, 522, 523, 524, 525, 526, 527, 528, 529, 530, 531, 532, 533, 534, 535, 536, 537, 538, 539, 540, 541, 542, 543, 544, 545, 546, 547, 548, 549, 550, 551, 552, 553, 554, 555, 556, 557, 558, 559, 560, 561, 562, 563, 564, 565, 566, 567, 568, 569, 570, 571, 572, 573, 574, 575, 576, 577, 578, 579, 580, 581],
      "AcquisitionTime": ["121432.705000", "121433.495000", "121434.282500", "121435.070000", "121435.857500", "121436.647500", "121437.435000", "121438.222500", "121439.010000", "121439.800000", "121440.587500", "121441.375000", "121442.165000", "121442.952500", "121443.740000", "121444.527500", "121445.317500", "121446.105000", "121446.892500", "121447.680000", "121448.470000", "121449.257500", "121450.045000", "121450.832500", "121451.622500", "121452.410000", "121453.197500", "121453.985000", "121454.775000", "121455.562500", "121456.350000", "121457.140000", "121457.927500", "121458.715000", "121459.502500", "121500.292500", "121501.080000", "121501.867500", "121502.655000", "121503.445000", "121504.232500", "121505.020000", "121505.807500", "121506.597500", "121507.385000", "121508.172500", "121508.960000", "121509.750000", "121510.537500", "121511.325000", "121512.112500", "121512.902500", "121513.690000", "121514.477500", "121515.267500", "121516.055000", "121516.842500", "121517.630000", "121518.420000", "121519.207500", "121519.995000", "121520.782500", "121521.572500", "121522.360000", "121523.147500", "121523.935000", "121524.725000", "121525.512500", "121526.300000", "121527.087500", "121527.877500", "121528.665000", "121529.452500", "121530.240000", "121531.030000", "121531.817500", "121532.605000", "121533.395000", "121534.182500", "121534.970000", "121535.757500", "121536.547500", "121537.335000", "121538.122500", "121538.910000", "121539.700000", "121540.487500", "121541.275000", "121542.062500", "121542.852500", "121543.640000", "121544.427500", "121545.215000", "121546.005000", "121546.792500", "121547.580000", "121548.367500", "121549.157500", "121549.945000", "121550.732500", "121551.522500", "121552.310000", "121553.097500", "121553.885000", "121554.675000", "121555.462500", "121556.250000", "121557.037500", "121557.827500", "121558.615000", "121559.402500", "121600.190000", "121600.980000", "121601.767500", "121602.555000", "121603.342500", "121604.132500", "121604.920000", "121605.707500", "121606.495000", "121607.285000", "121608.072500", "121608.860000", "121609.650000", "121610.437500", "121611.225000", "121612.012500", "121612.802500", "121613.590000", "121614.377500", "121615.165000", "121615.955000", "121616.742500", "121617.530000", "121618.317500", "121619.107500", "121619.895000", "121620.682500", "121621.470000", "121622.260000", "121623.047500", "121623.835000", "121624.622500", "121625.412500", "121626.200000", "121626.987500", "121627.777500", "121628.565000", "121629.352500", "121630.140000", "121630.930000", "121631.717500", "121632.505000", "121633.292500", "121634.082500", "121634.870000", "121635.657500", "121636.445000", "121637.235000", "121638.022500", "121638.810000", "121639.597500", "121640.387500", "121641.175000", "121641.962500", "121642.750000", "121643.540000", "121644.327500", "121645.115000", "121645.905000", "121646.692500", "121647.480000", "121648.267500", "121649.057500", "121649.845000", "121650.632500", "121651.420000", "121652.210000", "121652.997500", "121653.785000", "121654.572500", "121655.362500", "121656.150000", "121656.937500", "121657.725000", "121658.515000", "121659.302500", "121700.090000", "121700.877500", "121701.667500", "121702.455000", "121703.242500", "121704.032500", "121704.820000", "121705.607500", "121706.395000", "121707.185000", "121707.972500", "121708.760000", "121709.547500", "121710.337500", "121711.125000", "121711.912500", "121712.700000", "121713.490000", "121714.277500", "121715.065000", "121715.852500", "121716.642500", "121717.430000", "121718.217500", "121719.005000", "121719.795000", "121720.582500", "121721.370000", "121722.160000", "121722.947500", "121723.735000", "121724.522500", "121725.312500", "121726.100000", "121726.887500", "121727.675000", "121728.465000", "121729.252500", "121730.040000", "121730.827500", "121731.617500", "121732.405000", "121733.192500", "121733.980000", "121734.770000", "121735.557500", "121736.345000", "121737.132500", "121737.922500", "121738.710000", "121739.497500", "121740.287500", "121741.075000", "121741.862500", "121742.650000", "121743.440000", "121744.227500", "121745.015000", "121745.802500", "121746.592500", "121747.380000", "121748.167500", "121748.955000", "121749.745000", "121750.532500", "121751.320000", "121752.107500", "121752.897500", "121753.685000", "121754.472500", "121755.260000", "121756.050000", "121756.837500", "121757.625000", "121758.415000", "121759.202500", "121759.990000", "121800.777500", "121801.567500", "121802.355000", "121803.142500", "121803.930000", "121804.720000", "121805.507500", "121806.295000", "121807.082500", "121807.872500", "121808.660000", "121809.447500", "121810.235000", "121811.025000", "121811.812500", "121812.600000", "121813.390000", "121814.177500", "121814.965000", "121815.752500", "121816.542500", "121817.330000", "121818.117500", "121818.905000", "121819.695000", "121820.482500", "121821.270000", "121822.057500", "121822.847500", "121823.635000", "121824.422500", "121825.210000", "121826.000000", "121826.787500", "121827.575000", "121828.362500", "121829.152500", "121829.940000", "121830.727500", "121831.517500", "121832.305000", "121833.092500", "121833.880000", "121834.670000", "121835.457500", "121836.245000", "121837.032500", "121837.822500", "121838.610000", "121839.397500", "121840.185000", "121840.975000", "121841.762500", "121842.550000", "121843.337500", "121844.127500", "121844.915000", "121845.702500", "121846.490000", "121847.280000", "121848.067500", "121848.855000", "121849.645000", "121850.432500", "121851.220000", "121852.007500", "121852.797500", "121853.585000", "121854.372500", "121855.160000", "121855.950000", "121856.737500", "121857.525000", "121858.312500", "121859.102500", "121859.890000", "121900.677500", "121901.465000", "121902.255000", "121903.042500", "121903.830000", "121904.617500", "121905.407500", "121906.195000", "121906.982500", "121907.772500", "121908.560000", "121909.347500", "121910.135000", "121910.925000", "121911.712500", "121912.500000", "121913.287500", "121914.077500", "121914.865000", "121915.652500", "121916.440000", "121917.230000", "121918.017500", "121918.805000", "121919.592500", "121920.382500", "121921.170000", "121921.957500", "121922.745000", "121923.535000", "121924.322500", "121925.110000", "121925.900000", "121926.687500", "121927.475000", "121928.262500", "121929.052500", "121929.840000", "121930.627500", "121931.415000", "121932.205000", "121932.992500", "121933.780000", "121934.567500", "121935.357500", "121936.145000", "121936.932500", "121937.720000", "121938.510000", "121939.297500", "121940.085000", "121940.872500", "121941.662500", "121942.450000", "121943.237500", "121944.027500", "121944.815000", "121945.602500", "121946.390000", "121947.180000", "121947.967500", "121948.755000", "121949.542500", "121950.332500", "121951.120000", "121951.907500", "121952.695000", "121953.485000", "121954.272500", "121955.060000", "121955.847500", "121956.637500", "121957.425000", "121958.212500", "121959.000000", "121959.790000", "122000.577500", "122001.365000", "122002.155000", "122002.942500", "122003.730000", "122004.517500", "122005.307500", "122006.095000", "122006.882500", "122007.670000", "122008.460000", "122009.247500", "122010.035000", "122010.822500", "122011.612500", "122012.400000", "122013.187500", "122013.975000", "122014.765000", "122015.552500", "122016.340000", "122017.127500", "122017.917500", "122018.705000", "122019.492500", "122020.282500", "122021.070000", "122021.857500", "122022.645000", "122023.435000", "122024.222500", "122025.010000", "122025.797500", "122026.587500", "122027.375000", "122028.162500", "122028.950000", "122029.740000", "122030.527500", "122031.315000", "122032.102500", "122032.892500", "122033.680000", "122034.467500", "122035.255000", "122036.045000", "122036.832500", "122037.620000", "122038.410000", "122039.197500", "122039.985000", "122040.772500", "122041.562500", "122042.350000", "122043.137500", "122043.925000", "122044.715000", "122045.502500", "122046.290000", "122047.077500", "122047.867500", "122048.655000", "122049.442500", "122050.230000", "122051.020000", "122051.807500", "122052.595000", "122053.382500", "122054.172500", "122054.960000", "122055.747500", "122056.537500", "122057.325000", "122058.112500", "122058.900000", "122059.690000", "122100.477500", "122101.265000", "122102.052500", "122102.842500", "122103.630000", "122104.417500", "122105.205000", "122105.995000", "122106.782500", "122107.570000", "122108.357500", "122109.147500", "122109.935000", "122110.722500", "122111.510000", "122112.300000", "122113.087500", "122113.875000", "122114.665000", "122115.452500", "122116.240000", "122117.027500", "122117.817500", "122118.605000", "122119.392500", "122120.180000", "122120.970000", "122121.757500", "122122.545000", "122123.332500", "122124.122500", "122124.910000", "122125.697500", "122126.485000", "122127.275000", "122128.062500", "122128.850000", "122129.640000", "122130.427500", "122131.215000", "122132.002500", "122132.792500", "122133.580000", "122134.367500", "122135.155000", "122135.945000", "122136.732500", "122137.520000", "122138.307500", "122139.097500", "122139.885000", "122140.672500", "122141.460000", "122142.250000", "122143.037500", "122143.825000", "122144.612500", "122145.402500", "122146.190000", "122146.977500", "122147.767500", "122148.555000", "122149.342500", "122150.130000", "122150.920000", "122151.707500", "122152.495000", "122153.282500", "122154.072500", "122154.860000", "122155.647500", "122156.435000", "122157.225000", "122158.012500", "122158.800000", "122159.587500", "122200.377500", "122201.165000", "122201.952500", "122202.740000", "122203.530000", "122204.317500", "122205.105000", "122205.895000", "122206.682500", "122207.470000", "122208.257500", "122209.047500", "122209.835000"],
      "ContentTime": ["121455.750000", "121455.750000", "121455.765000", "121455.765000", "121455.765000", "121455.765000", "121455.765000", "121455.765000", "121455.765000", "121455.781000", "121455.781000", "121455.781000", "121455.781000", "121455.781000", "121455.781000", "121455.781000", "121455.781000", "121455.796000", "121455.796000", "121455.796000", "121455.796000", "121455.796000", "121455.812000", "121455.812000", "121455.812000", "121455.812000", "121515.734000", "121515.734000", "121515.734000", "121515.734000", "121515.734000", "121515.734000", "121515.750000", "121515.750000", "121515.750000", "121515.750000", "121515.750000", "121515.750000", "121515.750000", "121515.750000", "121515.765000", "121515.765000", "121515.765000", "121515.765000", "121515.765000", "121515.765000", "121515.765000", "121515.781000", "121515.781000", "121515.781000", "121515.781000", "121515.781000", "121535.734000", "121535.734000", "121535.734000", "121535.734000", "121535.734000", "121535.734000", "121535.750000", "121535.750000", "121535.750000", "121535.750000", "121535.750000", "121535.750000", "121535.750000", "121535.750000", "121535.765000", "121535.765000", "121535.765000", "121535.765000", "121535.765000", "121535.765000", "121535.765000", "121535.781000", "121535.781000", "121535.781000", "121535.781000", "121555.734000", "121555.734000", "121555.734000", "121555.734000", "121555.750000", "121555.750000", "121555.750000", "121555.750000", "121555.750000", "121555.750000", "121555.750000", "121555.750000", "121555.765000", "121555.765000", "121555.765000", "121555.765000", "121555.765000", "121555.765000", "121555.781000", "121555.781000", "121555.781000", "121555.781000", "121555.781000", "121555.796000", "121555.796000", "121555.796000", "121615.734000", "121615.734000", "121615.734000", "121615.734000", "121615.734000", "121615.734000", "121615.750000", "121615.750000", "121615.750000", "121615.750000", "121615.750000", "121615.750000", "121615.750000", "121615.765000", "121615.765000", "121615.765000", "121615.765000", "121615.765000", "121615.765000", "121615.781000", "121615.781000", "121615.781000", "121615.781000", "121615.781000", "121615.781000", "121635.734000", "121635.734000", "121635.734000", "121635.734000", "121635.734000", "121635.734000", "121635.750000", "121635.750000", "121635.750000", "121635.750000", "121635.750000", "121635.750000", "121635.750000", "121635.750000", "121635.765000", "121635.765000", "121635.765000", "121635.765000", "121635.765000", "121635.765000", "121635.765000", "121635.781000", "121635.781000", "121635.781000", "121635.781000", "121635.781000", "121655.734000", "121655.734000", "121655.734000", "121655.734000", "121655.734000", "121655.734000", "121655.750000", "121655.750000", "121655.750000", "121655.750000", "121655.750000", "121655.750000", "121655.750000", "121655.750000", "121655.765000", "121655.765000", "121655.765000", "121655.765000", "121655.765000", "121655.765000", "121655.765000", "121655.765000", "121655.781000", "121655.781000", "121655.781000", "121715.734000", "121715.734000", "121715.734000", "121715.734000", "121715.734000", "121715.734000", "121715.750000", "121715.750000", "121715.750000", "121715.750000", "121715.750000", "121715.750000", "121715.750000", "121715.750000", "121715.765000", "121715.765000", "121715.765000", "121715.765000", "121715.765000", "121715.781000", "121715.781000", "121715.781000", "121715.781000", "121715.781000", "121715.781000", "121715.781000", "121735.734000", "121735.734000", "121735.734000", "121735.734000", "121735.734000", "121735.734000", "121735.750000", "121735.750000", "121735.750000", "121735.750000", "121735.750000", "121735.750000", "121735.750000", "121735.750000", "121735.765000", "121735.765000", "121735.765000", "121735.765000", "121735.765000", "121735.765000", "121735.781000", "121735.781000", "121735.781000", "121735.781000", "121735.781000", "121755.734000", "121755.734000", "121755.734000", "121755.734000", "121755.734000", "121755.734000", "121755.750000", "121755.750000", "121755.750000", "121755.750000", "121755.750000", "121755.750000", "121755.750000", "121755.750000", "121755.765000", "121755.765000", "121755.765000", "121755.765000", "121755.765000", "121755.765000", "121755.781000", "121755.781000", "121755.781000", "121755.781000", "121755.781000", "121815.734000", "121815.734000", "121815.734000", "121815.734000", "121815.734000", "121815.734000", "121815.750000", "121815.750000", "121815.750000", "121815.750000", "121815.750000", "121815.750000", "121815.750000", "121815.750000", "121815.765000", "121815.765000", "121815.765000", "121815.765000", "121815.765000", "121815.765000", "121815.765000", "121815.765000", "121815.781000", "121815.781000", "121815.781000", "121815.781000", "121835.734000", "121835.734000", "121835.734000", "121835.734000", "121835.734000", "121835.734000", "121835.750000", "121835.750000", "121835.750000", "121835.750000", "121835.750000", "121835.750000", "121835.750000", "121835.750000", "121835.765000", "121835.765000", "121835.765000", "121835.765000", "121835.765000", "121835.781000", "121835.781000", "121835.781000", "121835.781000", "121835.781000", "121835.781000", "121855.734000", "121855.734000", "121855.734000", "121855.734000", "121855.734000", "121855.734000", "121855.750000", "121855.750000", "121855.750000", "121855.750000", "121855.750000", "121855.750000", "121855.750000", "121855.750000", "121855.765000", "121855.765000", "121855.765000", "121855.765000", "121855.765000", "121855.765000", "121855.765000", "121855.781000", "121855.781000", "121855.781000", "121855.781000", "121855.781000", "121915.734000", "121915.734000", "121915.734000", "121915.734000", "121915.734000", "121915.734000", "121915.750000", "121915.750000", "121915.750000", "121915.750000", "121915.750000", "121915.750000", "121915.750000", "121915.750000", "121915.765000", "121915.765000", "121915.765000", "121915.765000", "121915.765000", "121915.765000", "121915.765000", "121915.781000", "121915.781000", "121915.781000", "121915.781000", "121935.734000", "121935.734000", "121935.734000", "121935.734000", "121935.734000", "121935.734000", "121935.750000", "121935.750000", "121935.750000", "121935.750000", "121935.750000", "121935.750000", "121935.750000", "121935.750000", "121935.765000", "121935.765000", "121935.765000", "121935.765000", "121935.765000", "121935.765000", "121935.781000", "121935.781000", "121935.781000", "121935.781000", "121935.781000", "121935.796000", "121955.734000", "121955.734000", "121955.734000", "121955.734000", "121955.734000", "121955.734000", "121955.750000", "121955.750000", "121955.750000", "121955.750000", "121955.750000", "121955.750000", "121955.750000", "121955.765000", "121955.765000", "121955.765000", "121955.765000", "121955.765000", "121955.765000", "121955.765000", "121955.765000", "121955.781000", "121955.781000", "121955.781000", "121955.781000", "122015.734000", "122015.734000", "122015.734000", "122015.734000", "122015.734000", "122015.734000", "122015.750000", "122015.750000", "122015.750000", "122015.750000", "122015.750000", "122015.750000", "122015.750000", "122015.750000", "122015.765000", "122015.765000", "122015.765000", "122015.765000", "122015.765000", "122015.765000", "122015.765000", "122015.781000", "122015.781000", "122015.781000", "122015.781000", "122015.781000", "122035.734000", "122035.734000", "122035.734000", "122035.734000", "122035.734000", "122035.734000", "122035.750000", "122035.750000", "122035.750000", "122035.750000", "122035.750000", "122035.750000", "122035.750000", "122035.750000", "122035.765000", "122035.765000", "122035.765000", "122035.765000", "122035.765000", "122035.765000", "122035.765000", "122035.781000", "122035.781000", "122035.781000", "122035.781000", "122055.734000", "122055.734000", "122055.734000", "122055.734000", "122055.734000", "122055.734000", "122055.750000", "122055.750000", "122055.750000", "122055.750000", "122055.750000", "122055.750000", "122055.750000", "122055.750000", "122055.765000", "122055.765000", "122055.765000", "122055.765000", "122055.765000", "122055.765000", "122055.765000", "122055.781000", "122055.781000", "122055.781000", "122055.781000", "122055.781000", "122115.734000", "122115.734000", "122115.734000", "122115.734000", "122115.734000", "122115.734000", "122115.750000", "122115.750000", "122115.750000", "122115.750000", "122115.750000", "122115.750000", "122115.750000", "122115.765000", "122115.765000", "122115.765000", "122115.765000", "122115.765000", "122115.765000", "122115.765000", "122115.765000", "122115.781000", "122115.781000", "122115.781000", "122115.781000", "122135.734000", "122135.734000", "122135.734000", "122135.734000", "122135.734000", "122135.734000", "122135.750000", "122135.750000", "122135.750000", "122135.750000", "122135.750000", "122135.750000", "122135.750000", "122135.750000", "122135.765000", "122135.765000", "122135.765000", "122135.765000", "122135.765000", "122135.765000", "122135.765000", "122135.781000", "122135.781000", "122135.781000", "122135.781000", "122135.781000", "122155.734000", "122155.734000", "122155.734000", "122155.734000", "122155.734000", "122155.734000", "122155.750000", "122155.750000", "122155.750000", "122155.750000", "122155.750000", "122155.750000", "122155.750000", "122155.750000", "122155.765000", "122155.765000", "122155.765000", "122155.765000", "122155.765000", "122155.765000", "122155.765000", "122155.781000", "122155.781000", "122155.781000", "122155.781000", "122210.937000", "122210.937000", "122210.937000", "122210.953000", "122210.953000", "122210.953000", "122210.953000", "122210.953000", "122210.953000", "122210.953000", "122210.953000", "122210.968000", "122210.968000", "122210.968000", "122210.968000", "122210.968000", "122210.968000", "122210.968000", "122210.984000", "122210.984000"],
