{
  "AcquisitionMatrixPE": 104,
  "AcquisitionNumber": 1,
  "AcquisitionTime": "12:22:43.710000",
  "BandwidthPerPixelPhaseEncode": 13.935,
  "BaseResolution": 104,
  "CoilString": "C:HEA;HEP",
  "ConversionSoftware": "dcm2niix",
  "ConversionSoftwareVersion": "v1.0.20210317",
  "DerivedVendorReportedEchoSpacing": 0.000690017,
  "DeviceSerialNumber": "35450",
  "DwellTime": 2.5e-06,
  "EchoTime": 0.0348,
  "EffectiveEchoSpacing": 0.000690017,
  "FlipAngle": 55,
  "ImageComments": "Unaliased MB8/PE3 (remote)",
  "ImageOrientationPatientDICOM": [0.999046, 0.00668102, 0.0431586, 6.15192e-09, 0.988229, -0.15298],
  "ImageType": [
    "ORIGINAL",
    "PRIMARY",
    "M",
    "MB",
    "ND",
    "MOSAIC"
],
  "ImagingFrequency": 123.234,
  "InPlanePhaseEncodingDirectionDICOM": "COL",
  "InstitutionAddress": "Univeristy Ave. 197,Newark,North East,US,07102-1814",
  "InstitutionName": "RUBIC",
  "InstitutionalDepartmentName": "Department",
  "MRAcquisitionType": "2D",
  "MagneticFieldStrength": 3,
  "Manufacturer": "Siemens",
  "ManufacturersModelName": "TrioTim",
  "Modality": "MR",
  "MultibandAccelerationFactor": 8,
  "PartialFourier": 0.875,
  "PatientPosition": "HFS",
  "PercentPhaseFOV": 100,
  "PercentSampling": 100,
  "PhaseEncodingDirection": "j-",
  "PhaseEncodingSteps": 91,
  "PhaseResolution": 1,
  "PixelBandwidth": 1923,
  "ProcedureStepDescription": "Cole^Michael",
  "ProtocolName": "cmrr_mbep2d_bold_2mm_MB8_Task_8x",
  "PulseSequenceDetails": "%CustomerSeq%\\cmrr_mbep2d_bold",
  "ReceiveCoilName": "32Ch_Head",
  "ReconMatrixPE": 104,
  "RepetitionTime": 0.785,
  "SAR": 0.131206,
  "ScanOptions": "PFP\\FS",
  "ScanningSequence": "EP",
  "SequenceName": "epfid2d1_104",
  "SequenceVariant": "SK\\SS",
  "SeriesDescription": "cmrr_mbep2d_bold_2mm_MB8_Task_8x",
  "SeriesNumber": 24,
  "ShimSetting": [2152, -381, -7328, 639, -176, -1, 127, -45],
  "SliceThickness": 2,
  "SliceTiming": [0, 0.4375, 0.0875, 0.525, 0.175, 0.6125, 0.2625, 0.7, 0.35, 0, 0.4375, 0.0875, 0.525, 0.175, 0.6125, 0.2625, 0.7, 0.35, 0, 0.4375, 0.0875, 0.525, 0.175, 0.6125, 0.2625, 0.7, 0.35, 0, 0.4375, 0.0875, 0.525, 0.175, 0.6125, 0.2625, 0.7, 0.35, 0, 0.4375, 0.0875, 0.525, 0.175, 0.6125, 0.2625, 0.7, 0.35, 0, 0.4375, 0.0875, 0.525, 0.175, 0.6125, 0.2625, 0.7, 0.35, 0, 0.4375, 0.0875, 0.525, 0.175, 0.6125, 0.2625, 0.7, 0.35, 0, 0.4375, 0.0875, 0.525, 0.175, 0.6125, 0.2625, 0.7, 0.35],
  "SoftwareVersions": "syngo MR B19",
  "SpacingBetweenSlices": 2,
  "StationName": "MRC35450",
  "TaskName": "cpro",
  "TotalReadoutTime": 0.0710717,
  "TxRefAmp": 347.613,
  "dcmmeta_affine": [
    [-1.9980918169021606, 1.2303834395765989e-08, 0.08734536916017532, 107.62000274658203],
    [-0.013362041674554348, 1.9764586687088013, -0.3056671619415283, -80.89434814453125],
    [0.08631725609302521, 0.3059590756893158, 1.9745728969573975, -128.68344116210938],
    [0.0, 0.0, 0.0, 1.0]
],
  "dcmmeta_reorient_transform": [
    [0.0, -1.0, 0.0, 103.0],
    [1.0, 0.0, 0.0, 0.0],
    [0.0, 0.0, 1.0, 0.0],
    [0.0, 0.0, 0.0, 1.0]
],
  "dcmmeta_shape": [104, 104, 72, 581],
  "dcmmeta_slice_dim": 2,
  "dcmmeta_version": 0.6,
  "global": {
    "const": {
      "AcquisitionMatrix": [104, 0, 0, 104],
      "AngioFlag": "N",
      "BitsAllocated": 16,
      "BitsStored": 12,
      "Columns": 936,
      "EchoNumbers": 1,
      "EchoTime": 34.8,
      "EchoTrainLength": 1,
      "FlipAngle": 55.0,
      "HighBit": 11,
      "ImageOrientationPatient": [0.99904589321385, 0.00668102074528, 0.04315862850396, 6.151917e-09, 0.98822935670289, -0.1529795363786],
      "ImagePositionPatient": [-938.82618888193, -950.4463298137, -5.7986641649119],
      "ImageType": [
        "ORIGINAL",
        "PRIMARY",
        "M",
        "MB",
        "ND",
        "MOSAIC"
],
      "ImagedNucleus": "1H",
      "ImagingFrequency": 123.234471,
      "InPlanePhaseEncodingDirection": "COL",
      "MRAcquisitionType": "2D",
      "MagneticFieldStrength": 3.0,
      "Manufacturer": "SIEMENS",
      "ManufacturerModelName": "TrioTim",
      "Modality": "MR",
      "NumberOfAverages": 1.0,
      "NumberOfPhaseEncodingSteps": 91,
      "PercentPhaseFieldOfView": 100.0,
      "PercentSampling": 100.0,
      "PerformedProcedureStepStartTime": "102321.359000",
      "PhotometricInterpretation": "MONOCHROME2",
      "PixelBandwidth": 1923.0,
      "PixelRepresentation": 0,
      "PixelSpacing": [2.0, 2.0],
      "ProtocolName": "cmrr_mbep2d_bold_2mm_MB8_Task_8x",
      "RepetitionTime": 785.0,
      "Rows": 936,
      "SAR": 0.13120641713045,
      "SamplesPerPixel": 1,
      "ScanOptions": [
        "PFP",
        "FS"
],
      "ScanningSequence": "EP",
      "SequenceName": "epfid2d1_104",
      "SequenceVariant": [
        "SK",
        "SS"
],
      "SeriesDescription": "cmrr_mbep2d_bold_2mm_MB8_Task_8x",
      "SeriesNumber": 24,
      "SeriesTime": "122306.828000",
      "SliceLocation": -109.98399718561,
      "SliceThickness": 2.0,
      "SmallestImagePixelValue": 0,
      "SoftwareVersions": "syngo MR B19",
      "SpacingBetweenSlices": 1.999999987165,
      "SpecificCharacterSet": "ISO_IR 100",
      "StudyID": "1",
      "StudyTime": "102321.312000",
      "TransmitCoilName": "Body",
      "VariableFlipAngleFlag": "N",
      "WindowCenterWidthExplanation": "Algo1",
      "dBdt": 0.0},
    "slices": {}
  },
  "time": {
    "samples": {
      "AcquisitionNumber": [1, 2, 3, 4, 5, 6, 7, 8, 9, 10, 11, 12, 13, 14, 15, 16, 17, 18, 19, 20, 21, 22, 23, 24, 25, 26, 27, 28, 29, 30, 31, 32, 33, 34, 35, 36, 37, 38, 39, 40, 41, 42, 43, 44, 45, 46, 47, 48, 49, 50, 51, 52, 53, 54, 55, 56, 57, 58, 59, 60, 61, 62, 63, 64, 65, 66, 67, 68, 69, 70, 71, 72, 73, 74, 75, 76, 77, 78, 79, 80, 81, 82, 83, 84, 85, 86, 87, 88, 89, 90, 91, 92, 93, 94, 95, 96, 97, 98, 99, 100, 101, 102, 103, 104, 105, 106, 107, 108, 109, 110, 111, 112, 113, 114, 115, 116, 117, 118, 119, 120, 121, 122, 123, 124, 125, 126, 127, 128, 129, 130, 131, 132, 133, 134, 135, 136, 137, 138, 139, 140, 141, 142, 143, 144, 145, 146, 147, 148, 149, 150, 151, 152, 153, 154, 155, 156, 157, 158, 159, 160, 161, 162, 163, 164, 165, 166, 167, 168, 169, 170, 171, 172, 173, 174, 175, 176, 177, 178, 179, 180, 181, 182, 183, 184, 185, 186, 187, 188, 189, 190, 191, 192, 193, 194, 195, 196, 197, 198, 199, 200, 201, 202, 203, 204, 205, 206, 207, 208, 209, 210, 211, 212, 213, 214, 215, 216, 217, 218, 219, 220, 221, 222, 223, 224, 225, 226, 227, 228, 229, 230, 231, 232, 233, 234, 235, 236, 237, 238, 239, 240, 241, 242, 243, 244, 245, 246, 247, 248, 249, 250, 251, 252, 253, 254, 255, 256, 257, 258, 259, 260, 261, 262, 263, 264, 265, 266, 267, 268, 269, 270, 271, 272, 273, 274, 275, 276, 277, 278, 279, 280, 281, 282, 283, 284, 285, 286, 287, 288, 289, 290, 291, 292, 293, 294, 295, 296, 297, 298, 299, 300, 301, 302, 303, 304, 305, 306, 307, 308, 309, 310, 311, 312, 313, 314, 315, 316, 317, 318, 319, 320, 321, 322, 323, 324, 325, 326, 327, 328, 329, 330, 331, 332, 333, 334, 335, 336, 337, 338, 339, 340, 341, 342, 343, 344, 345, 346, 347, 348, 349, 350, 351, 352, 353, 354, 355, 356, 357, 358, 359, 360, 361, 362, 363, 364, 365, 366, 367, 368, 369, 370, 371, 372, 373, 374, 375, 376, 377, 378, 379, 380, 381, 382, 383, 384, 385, 386, 387, 388, 389, 390, 391, 392, 393, 394, 395, 396, 397, 398, 399, 400, 401, 402, 403, 404, 405, 406, 407, 408, 409, 410, 411, 412, 413, 414, 415, 416, 417, 418, 419, 420, 421, 422, 423, 424, 425, 426, 427, 428, 429, 430, 431, 432, 433, 434, 435, 436, 437, 438, 439, 440, 441, 442, 443, 444, 445, 446, 447, 448, 449, 450, 451, 452, 453, 454, 455, 456, 457, 458, 459, 460, 461, 462, 463, 464, 465, 466, 467, 468, 469, 470, 471, 472, 473, 474, 475, 476, 477, 478, 479, 480, 481, 482, 483, 484, 485, 486, 487, 488, 489, 490, 491, 492, 493, 494, 495, 496, 497, 498, 499, 500, 501, 502, 503, 504, 505, 506, 507, 508, 509, 510, 511, 512, 513, 514, 515, 516, 517, 518, 519, 520, 521, 522, 523, 524, 525, 526, 527, 528, 529, 530, 531, 532, 533, 534, 535, 536, 537, 538, 539, 540, 541, 542, 543, 544, 545, 546, 547, 548, 549, 550, 551, 552, 553, 554, 555, 556, 557, 558, 559, 560, 561, 562, 563, 564, 565, 566, 567, 568, 569, 570, 571, 572, 573, 574, 575, 576, 577, 578, 579, 580, 581],
      "AcquisitionTime": ["122243.710000", "122244.497500", "122245.285000", "122246.072500", "122246.862500", "122247.650000", "122248.437500", "122249.225000", "122250.015000", "122250.802500", "122251.590000", "122252.380000", "122253.167500", "122253.955000", "122254.742500", "122255.532500", "122256.320000", "122257.107500", "122257.895000", "122258.685000", "122259.472500", "122300.260000", "122301.047500", "122301.837500", "122302.625000", "122303.412500", "122304.200000", "122304.990000", "122305.777500", "122306.565000", "122307.352500", "122308.142500", "122308.930000", "122309.717500", "122310.507500", "122311.295000", "122312.082500", "122312.870000", "122313.660000", "122314.447500", "122315.235000", "122316.022500", "122316.812500", "122317.600000", "122318.387500", "122319.175000", "122319.965000", "122320.752500", "122321.540000", "122322.327500", "122323.117500", "122323.905000", "122324.692500", "122325.480000", "122326.270000", "122327.057500", "122327.845000", "122328.635000", "122329.422500", "122330.210000", "122330.997500", "122331.787500", "122332.575000", "122333.362500", "122334.150000", "122334.940000", "122335.727500", "122336.515000", "122337.302500", "122338.092500", "122338.880000", "122339.667500", "122340.455000", "122341.245000", "122342.032500", "122342.820000", "122343.607500", "122344.397500", "122345.185000", "122345.972500", "122346.762500", "122347.550000", "122348.337500", "122349.125000", "122349.915000", "122350.702500", "122351.490000", "122352.277500", "122353.067500", "122353.855000", "122354.642500", "122355.430000", "122356.220000", "122357.007500", "122357.795000", "122358.582500", "122359.372500", "122400.160000", "122400.947500", "122401.735000", "122402.525000", "122403.312500", "122404.100000", "122404.890000", "122405.677500", "122406.465000", "122407.252500", "122408.042500", "122408.830000", "122409.617500", "122410.405000", "122411.195000", "122411.982500", "122412.770000", "122413.557500", "122414.347500", "122415.135000", "122415.922500", "122416.710000", "122417.500000", "122418.287500", "122419.075000", "122419.862500", "122420.652500", "122421.440000", "122422.227500", "122423.017500", "122423.805000", "122424.592500", "122425.380000", "122426.170000", "122426.957500", "122427.745000", "122428.532500", "122429.322500", "122430.110000", "122430.897500", "122431.685000", "122432.475000", "122433.262500", "122434.050000", "122434.837500", "122435.627500", "122436.415000", "122437.202500", "122437.990000", "122438.780000", "122439.567500", "122440.355000", "122441.145000", "122441.932500", "122442.720000", "122443.507500", "122444.297500", "122445.085000", "122445.872500", "122446.660000", "122447.450000", "122448.237500", "122449.025000", "122449.812500", "122450.602500", "122451.390000", "122452.177500", "122452.965000", "122453.755000", "122454.542500", "122455.330000", "122456.117500", "122456.907500", "122457.695000", "122458.482500", "122459.272500", "122500.060000", "122500.847500", "122501.635000", "122502.425000", "122503.212500", "122504.000000", "122504.787500", "122505.577500", "122506.365000", "122507.152500", "122507.940000", "122508.730000", "122509.517500", "122510.305000", "122511.092500", "122511.882500", "122512.670000", "122513.457500", "122514.247500", "122515.035000", "122515.822500", "122516.610000", "122517.400000", "122518.187500", "122518.975000", "122519.762500", "122520.552500", "122521.340000", "122522.127500", "122522.915000", "122523.705000", "122524.492500", "122525.280000", "122526.067500", "122526.857500", "122527.645000", "122528.432500", "122529.220000", "122530.010000", "122530.797500", "122531.585000", "122532.375000", "122533.162500", "122533.950000", "122534.737500", "122535.527500", "122536.315000", "122537.102500", "122537.890000", "122538.680000", "122539.467500", "122540.255000", "122541.042500", "122541.832500", "122542.620000", "122543.407500", "122544.195000", "122544.985000", "122545.772500", "122546.560000", "122547.347500", "122548.137500", "122548.925000", "122549.712500", "122550.502500", "122551.290000", "122552.077500", "122552.865000", "122553.655000", "122554.442500", "122555.230000", "122556.017500", "122556.807500", "122557.595000", "122558.382500", "122559.170000", "122559.960000", "122600.747500", "122601.535000", "122602.322500", "122603.112500", "122603.900000", "122604.687500", "122605.475000", "122606.265000", "122607.052500", "122607.840000", "122608.630000", "122609.417500", "122610.205000", "122610.992500", "122611.782500", "122612.570000", "122613.357500", "122614.145000", "122614.935000", "122615.722500", "122616.510000", "122617.297500", "122618.087500", "122618.875000", "122619.662500", "122620.450000", "122621.240000", "122622.027500", "122622.815000", "122623.602500", "122624.392500", "122625.180000", "122625.967500", "122626.757500", "122627.545000", "122628.332500", "122629.120000", "122629.910000", "122630.697500", "122631.485000", "122632.272500", "122633.062500", "122633.850000", "122634.637500", "122635.425000", "122636.215000", "122637.002500", "122637.790000", "122638.577500", "122639.367500", "122640.155000", "122640.942500", "122641.730000", "122642.520000", "122643.307500", "122644.095000", "122644.885000", "122645.672500", "122646.460000", "122647.247500", "122648.037500", "122648.825000", "122649.612500", "122650.400000", "122651.190000", "122651.977500", "122652.765000", "122653.552500", "122654.342500", "122655.130000", "122655.917500", "122656.705000", "122657.495000", "122658.282500", "122659.070000", "122659.857500", "122700.647500", "122701.435000", "122702.222500", "122703.012500", "122703.800000", "122704.587500", "122705.375000", "122706.165000", "122706.952500", "122707.740000", "122708.527500", "122709.317500", "122710.105000", "122710.892500", "122711.680000", "122712.470000", "122713.257500", "122714.045000", "122714.832500", "122715.622500", "122716.410000", "122717.197500", "122717.985000", "122718.775000", "122719.562500", "122720.350000", "122721.140000", "122721.927500", "122722.715000", "122723.502500", "122724.292500", "122725.080000", "122725.867500", "122726.655000", "122727.445000", "122728.232500", "122729.020000", "122729.807500", "122730.597500", "122731.385000", "122732.172500", "122732.960000", "122733.750000", "122734.537500", "122735.325000", "122736.112500", "122736.902500", "122737.690000", "122738.477500", "122739.267500", "122740.055000", "122740.842500", "122741.630000", "122742.420000", "122743.207500", "122743.995000", "122744.782500", "122745.572500", "122746.360000", "122747.147500", "122747.935000", "122748.725000", "122749.512500", "122750.300000", "122751.087500", "122751.877500", "122752.665000", "122753.452500", "122754.240000", "122755.030000", "122755.817500", "122756.605000", "122757.395000", "122758.182500", "122758.970000", "122759.757500", "122800.547500", "122801.335000", "122802.122500", "122802.910000", "122803.700000", "122804.487500", "122805.275000", "122806.062500", "122806.852500", "122807.640000", "122808.427500", "122809.215000", "122810.005000", "122810.792500", "122811.580000", "122812.367500", "122813.157500", "122813.945000", "122814.732500", "122815.522500", "122816.310000", "122817.097500", "122817.885000", "122818.675000", "122819.462500", "122820.250000", "122821.037500", "122821.827500", "122822.615000", "122823.402500", "122824.190000", "122824.980000", "122825.767500", "122826.555000", "122827.342500", "122828.132500", "122828.920000", "122829.707500", "122830.497500", "122831.285000", "122832.072500", "122832.860000", "122833.650000", "122834.437500", "122835.225000", "122836.012500", "122836.802500", "122837.590000", "122838.377500", "122839.165000", "122839.955000", "122840.742500", "122841.530000", "122842.317500", "122843.107500", "122843.895000", "122844.682500", "122845.470000", "122846.260000", "122847.047500", "122847.835000", "122848.625000", "122849.412500", "122850.200000", "122850.987500", "122851.777500", "122852.565000", "122853.352500", "122854.140000", "122854.930000", "122855.717500", "122856.505000", "122857.292500", "122858.082500", "122858.870000", "122859.657500", "122900.445000", "122901.235000", "122902.022500", "122902.810000", "122903.597500", "122904.387500", "122905.175000", "122905.962500", "122906.752500", "122907.540000", "122908.327500", "122909.115000", "122909.905000", "122910.692500", "122911.480000", "122912.267500", "122913.057500", "122913.845000", "122914.632500", "122915.420000", "122916.210000", "122916.997500", "122917.785000", "122918.572500", "122919.362500", "122920.150000", "122920.937500", "122921.725000", "122922.515000", "122923.302500", "122924.090000", "122924.880000", "122925.667500", "122926.455000", "122927.242500", "122928.032500", "122928.820000", "122929.607500", "122930.395000", "122931.185000", "122931.972500", "122932.760000", "122933.547500", "122934.337500", "122935.125000", "122935.912500", "122936.700000", "122937.490000", "122938.277500", "122939.065000", "122939.852500", "122940.642500", "122941.430000", "122942.217500", "122943.007500", "122943.795000", "122944.582500", "122945.370000", "122946.160000", "122946.947500", "122947.735000", "122948.522500", "122949.312500", "122950.100000", "122950.887500", "122951.675000", "122952.465000", "122953.252500", "122954.040000", "122954.827500", "122955.617500", "122956.405000", "122957.192500", "122957.980000", "122958.770000", "122959.557500", "123000.345000", "123001.135000", "123001.922500", "123002.710000", "123003.497500", "123004.287500", "123005.075000", "123005.862500", "123006.650000", "123007.440000", "123008.227500", "123009.015000", "123009.802500", "123010.592500", "123011.380000", "123012.167500", "123012.955000", "123013.745000", "123014.532500", "123015.320000", "123016.107500", "123016.897500", "123017.685000", "123018.472500", "123019.262500", "123020.050000", "123020.837500"],
      "ContentTime": ["122306.843000", "122306.843000", "122306.843000", "122306.843000", "122306.843000", "122306.843000", "122306.843000", "122306.843000", "122306.859000", "122306.859000", "122306.859000", "122306.859000", "122306.859000", "122306.859000", "122306.875000", "122306.875000", "122306.875000", "122306.875000", "122306.875000", "122306.875000", "122306.875000", "122306.890000", "122306.890000", "122306.890000", "122306.890000", "122306.890000", "122306.890000", "122326.812000", "122326.812000", "122326.812000", "122326.812000", "122326.812000", "122326.812000", "122326.828000", "122326.828000", "122326.828000", "122326.828000", "122326.828000", "122326.828000", "122326.828000", "122326.828000", "122326.843000", "122326.843000", "122326.843000", "122326.843000", "122326.843000", "122326.843000", "122326.859000", "122326.859000", "122326.859000", "122326.859000", "122326.859000", "122346.812000", "122346.812000", "122346.812000", "122346.812000", "122346.812000", "122346.812000", "122346.828000", "122346.828000", "122346.828000", "122346.828000", "122346.828000", "122346.828000", "122346.828000", "122346.843000", "122346.843000", "122346.843000", "122346.843000", "122346.843000", "122346.843000", "122346.843000", "122346.843000", "122346.859000", "122346.859000", "122346.859000", "122346.859000", "122346.859000", "122406.812000", "122406.812000", "122406.812000", "122406.812000", "122406.812000", "122406.812000", "122406.828000", "122406.828000", "122406.828000", "122406.828000", "122406.828000", "122406.828000", "122406.828000", "122406.828000", "122406.843000", "122406.843000", "122406.843000", "122406.843000", "122406.843000", "122406.859000", "122406.859000", "122406.859000", "122406.859000", "122406.859000", "122406.859000", "122426.812000", "122426.812000", "122426.812000", "122426.812000", "122426.812000", "122426.812000", "122426.812000", "122426.828000", "122426.828000", "122426.828000", "122426.828000", "122426.828000", "122426.828000", "122426.828000", "122426.843000", "122426.843000", "122426.843000", "122426.843000", "122426.843000", "122426.843000", "122426.843000", "122426.859000", "122426.859000", "122426.859000", "122426.859000", "122426.859000", "122446.812000", "122446.812000", "122446.812000", "122446.812000", "122446.812000", "122446.812000", "122446.812000", "122446.828000", "122446.828000", "122446.828000", "122446.828000", "122446.828000", "122446.828000", "122446.828000", "122446.843000", "122446.843000", "122446.843000", "122446.843000", "122446.843000", "122446.843000", "122446.843000", "122446.843000", "122446.859000", "122446.859000", "122446.859000", "122506.812000", "122506.812000", "122506.812000", "122506.812000", "122506.812000", "122506.812000", "122506.828000", "122506.828000", "122506.828000", "122506.828000", "122506.828000", "122506.828000", "122506.828000", "122506.828000", "122506.843000", "122506.843000", "122506.843000", "122506.843000", "122506.843000", "122506.843000", "122506.843000", "122506.843000", "122506.859000", "122506.859000", "122506.859000", "122506.859000", "122526.812000", "122526.812000", "122526.812000", "122526.812000", "122526.812000", "122526.828000", "122526.828000", "122526.828000", "122526.828000", "122526.828000", "122526.828000", "122526.828000", "122526.843000", "122526.843000", "122526.843000", "122526.843000", "122526.843000", "122526.843000", "122526.843000", "122526.843000", "122526.859000", "122526.859000", "122526.859000", "122526.859000", "122526.859000", "122546.812000", "122546.812000", "122546.812000", "122546.812000", "122546.812000", "122546.812000", "122546.828000", "122546.828000", "122546.828000", "122546.828000", "122546.828000", "122546.828000", "122546.828000", "122546.828000", "122546.843000", "122546.843000", "122546.843000", "122546.843000", "122546.843000", "122546.843000", "122546.843000", "122546.859000", "122546.859000", "122546.859000", "122546.859000", "122546.859000", "122606.812000", "122606.812000", "122606.812000", "122606.812000", "122606.812000", "122606.812000", "122606.828000", "122606.828000", "122606.828000", "122606.828000", "122606.828000", "122606.828000", "122606.828000", "122606.843000", "122606.843000", "122606.843000", "122606.843000", "122606.843000", "122606.843000", "122606.843000", "122606.859000", "122606.859000", "122606.859000", "122606.859000", "122606.859000", "122626.812000", "122626.812000", "122626.812000", "122626.812000", "122626.812000", "122626.812000", "122626.828000", "122626.828000", "122626.828000", "122626.828000", "122626.828000", "122626.828000", "122626.843000", "122626.843000", "122626.843000", "122626.843000", "122626.843000", "122626.843000", "122626.843000", "122626.843000", "122626.859000", "122626.859000", "122626.859000", "122626.859000", "122626.859000", "122626.859000", "122646.812000", "122646.812000", "122646.812000", "122646.812000", "122646.812000", "122646.828000", "122646.828000", "122646.828000", "122646.828000", "122646.828000", "122646.828000", "122646.828000", "122646.828000", "122646.843000", "122646.843000", "122646.843000", "122646.843000", "122646.843000", "122646.843000", "122646.843000", "122646.843000", "122646.859000", "122646.859000", "122646.859000", "122646.859000", "122706.812000", "122706.812000", "122706.812000", "122706.812000", "122706.812000", "122706.812000", "122706.828000", "122706.828000", "122706.828000", "122706.828000", "122706.828000", "122706.828000", "122706.828000", "122706.843000", "122706.843000", "122706.843000", "122706.843000", "122706.843000", "122706.843000", "122706.843000", "122706.843000", "122706.859000", "122706.859000", "122706.859000", "122706.859000", "122726.812000", "122726.812000", "122726.812000", "122726.812000", "122726.812000", "122726.812000", "122726.828000", "122726.828000", "122726.828000", "122726.828000", "122726.828000", "122726.828000", "122726.828000", "122726.828000", "122726.843000", "122726.843000", "122726.843000", "122726.843000", "122726.843000", "122726.843000", "122726.843000", "122726.859000", "122726.859000", "122726.859000", "122726.859000", "122726.859000", "122746.812000", "122746.812000", "122746.812000", "122746.812000", "122746.812000", "122746.828000", "122746.828000", "122746.828000", "122746.828000", "122746.828000", "122746.828000", "122746.843000", "122746.843000", "122746.843000", "122746.843000", "122746.843000", "122746.859000", "122746.859000", "122746.859000", "122746.859000", "122746.859000", "122746.875000", "122746.875000", "122746.875000", "122746.875000", "122806.812000", "122806.812000", "122806.812000", "122806.812000", "122806.812000", "122806.812000", "122806.828000", "122806.828000", "122806.828000", "122806.828000", "122806.828000", "122806.828000", "122806.828000", "122806.828000", "122806.843000", "122806.843000", "122806.843000", "122806.843000", "122806.843000", "122806.843000", "122806.843000", "122806.859000", "122806.859000", "122806.859000", "122806.859000", "122806.859000", "122826.812000", "122826.812000", "122826.812000", "122826.828000", "122826.828000", "122826.828000", "122826.828000", "122826.828000", "122826.828000", "122826.828000", "122826.828000", "122826.843000", "122826.843000", "122826.843000", "122826.843000", "122826.843000", "122826.843000", "122826.843000", "122826.843000", "122826.859000", "122826.859000", "122826.859000", "122826.859000", "122826.859000", "122826.859000", "122846.812000", "122846.812000", "122846.812000", "122846.812000", "122846.812000", "122846.812000", "122846.828000", "122846.828000", "122846.828000", "122846.828000", "122846.828000", "122846.828000", "122846.828000", "122846.828000", "122846.843000", "122846.843000", "122846.843000", "122846.843000", "122846.843000", "122846.843000", "122846.843000", "122846.859000", "122846.859000", "122846.859000", "122846.859000", "122846.859000", "122906.812000", "122906.812000", "122906.812000", "122906.812000", "122906.812000", "122906.812000", "122906.828000", "122906.828000", "122906.828000", "122906.828000", "122906.828000", "122906.843000", "122906.843000", "122906.843000", "122906.843000", "122906.843000", "122906.843000", "122906.843000", "122906.859000", "122906.859000", "122906.859000", "122906.859000", "122906.859000", "122906.875000", "122906.875000", "122926.812000", "122926.812000", "122926.812000", "122926.812000", "122926.812000", "122926.812000", "122926.828000", "122926.828000", "122926.828000", "122926.828000", "122926.828000", "122926.828000", "122926.828000", "122926.828000", "122926.843000", "122926.843000", "122926.843000", "122926.843000", "122926.843000", "122926.843000", "122926.843000", "122926.859000", "122926.859000", "122926.859000", "122926.859000", "122926.859000", "122946.812000", "122946.812000", "122946.812000", "122946.812000", "122946.812000", "122946.812000", "122946.828000", "122946.828000", "122946.828000", "122946.828000", "122946.828000", "122946.828000", "122946.828000", "122946.828000", "122946.843000", "122946.843000", "122946.843000", "122946.843000", "122946.843000", "122946.843000", "122946.843000", "122946.859000", "122946.859000", "122946.859000", "122946.859000", "123006.812000", "123006.812000", "123006.812000", "123006.812000", "123006.812000", "123006.812000", "123006.828000", "123006.828000", "123006.828000", "123006.828000", "123006.828000", "123006.828000", "123006.828000", "123006.843000", "123006.843000", "123006.843000", "123006.843000", "123006.843000", "123006.843000", "123006.843000", "123006.859000", "123006.859000", "123006.859000", "123006.859000", "123006.859000", "123006.859000", "123021.515000", "123021.515000", "123021.515000", "123021.515000", "123021.515000", "123021.531000", "123021.531000", "123021.531000", "123021.531000", "123021.531000", "123021.531000", "123021.531000", "123021.531000", "123021.546000", "123021.546000", "123021.546000", "123021.546000", "123021.546000", "123021.546000"],
