{
  "AcquisitionMatrixPE": 104,
  "AcquisitionNumber": 1,
  "AcquisitionTime": "12:06:33.740000",
  "BandwidthPerPixelPhaseEncode": 13.935,
  "BaseResolution": 104,
  "CoilString": "C:HEA;HEP",
  "ConversionSoftware": "dcm2niix",
  "ConversionSoftwareVersion": "v1.0.20210317",
  "DerivedVendorReportedEchoSpacing": 0.000690017,
  "DeviceSerialNumber": "35450",
  "DwellTime": 2.5e-06,
  "EchoTime": 0.0348,
  "EffectiveEchoSpacing": 0.000690017,
  "FlipAngle": 55,
  "ImageComments": "Unaliased MB8/PE3 (remote)",
  "ImageOrientationPatientDICOM": [0.999046, 0.00668102, 0.0431586, 6.15192e-09, 0.988229, -0.15298],
  "ImageType": [
    "ORIGINAL",
    "PRIMARY",
    "M",
    "MB",
    "ND",
    "MOSAIC"
],
  "ImagingFrequency": 123.234,
  "InPlanePhaseEncodingDirectionDICOM": "COL",
  "InstitutionAddress": "Univeristy Ave. 197,Newark,North East,US,07102-1814",
  "InstitutionName": "RUBIC",
  "InstitutionalDepartmentName": "Department",
  "MRAcquisitionType": "2D",
  "MagneticFieldStrength": 3,
  "Manufacturer": "Siemens",
  "ManufacturersModelName": "TrioTim",
  "Modality": "MR",
  "MultibandAccelerationFactor": 8,
  "PartialFourier": 0.875,
  "PatientPosition": "HFS",
  "PercentPhaseFOV": 100,
  "PercentSampling": 100,
  "PhaseEncodingDirection": "j-",
  "PhaseEncodingSteps": 91,
  "PhaseResolution": 1,
  "PixelBandwidth": 1923,
  "ProcedureStepDescription": "Cole^Michael",
  "ProtocolName": "cmrr_mbep2d_bold_2mm_MB8_Task_8x",
  "PulseSequenceDetails": "%CustomerSeq%\\cmrr_mbep2d_bold",
  "ReceiveCoilName": "32Ch_Head",
  "ReconMatrixPE": 104,
  "RepetitionTime": 0.785,
  "SAR": 0.131206,
  "ScanOptions": "PFP\\FS",
  "ScanningSequence": "EP",
  "SequenceName": "epfid2d1_104",
  "SequenceVariant": "SK\\SS",
  "SeriesDescription": "cmrr_mbep2d_bold_2mm_MB8_Task_8x",
  "SeriesNumber": 20,
  "ShimSetting": [2152, -381, -7328, 639, -176, -1, 127, -45],
  "SliceThickness": 2,
  "SliceTiming": [0, 0.4375, 0.0875, 0.525, 0.175, 0.6125, 0.2625, 0.7, 0.35, 0, 0.4375, 0.0875, 0.525, 0.175, 0.6125, 0.2625, 0.7, 0.35, 0, 0.4375, 0.0875, 0.525, 0.175, 0.6125, 0.2625, 0.7, 0.35, 0, 0.4375, 0.0875, 0.525, 0.175, 0.6125, 0.2625, 0.7, 0.35, 0, 0.4375, 0.0875, 0.525, 0.175, 0.6125, 0.2625, 0.7, 0.35, 0, 0.4375, 0.0875, 0.525, 0.175, 0.6125, 0.2625, 0.7, 0.35, 0, 0.4375, 0.0875, 0.525, 0.175, 0.6125, 0.2625, 0.7, 0.35, 0, 0.4375, 0.0875, 0.525, 0.175, 0.6125, 0.2625, 0.7, 0.35],
  "SoftwareVersions": "syngo MR B19",
  "SpacingBetweenSlices": 2,
  "StationName": "MRC35450",
  "TaskName": "cpro",
  "TotalReadoutTime": 0.0710717,
  "TxRefAmp": 347.613,
  "dcmmeta_affine": [
    [-1.9980918169021606, 1.2303834395765989e-08, 0.08734536916017532, 107.62000274658203],
    [-0.013362041674554348, 1.9764586687088013, -0.3056671619415283, -80.89434814453125],
    [0.08631725609302521, 0.3059590756893158, 1.9745728969573975, -128.68344116210938],
    [0.0, 0.0, 0.0, 1.0]
],
  "dcmmeta_reorient_transform": [
    [0.0, -1.0, 0.0, 103.0],
    [1.0, 0.0, 0.0, 0.0],
    [0.0, 0.0, 1.0, 0.0],
    [0.0, 0.0, 0.0, 1.0]
],
  "dcmmeta_shape": [104, 104, 72, 581],
  "dcmmeta_slice_dim": 2,
  "dcmmeta_version": 0.6,
  "global": {
    "const": {
      "AcquisitionMatrix": [104, 0, 0, 104],
      "AngioFlag": "N",
      "BitsAllocated": 16,
      "BitsStored": 12,
      "Columns": 936,
      "EchoNumbers": 1,
      "EchoTime": 34.8,
      "EchoTrainLength": 1,
      "FlipAngle": 55.0,
      "HighBit": 11,
      "ImageOrientationPatient": [0.99904589321385, 0.00668102074528, 0.04315862850396, 6.151917e-09, 0.98822935670289, -0.1529795363786],
      "ImagePositionPatient": [-938.82618888193, -950.4463298137, -5.7986641649119],
      "ImageType": [
        "ORIGINAL",
        "PRIMARY",
        "M",
        "MB",
        "ND",
        "MOSAIC"
],
      "ImagedNucleus": "1H",
      "ImagingFrequency": 123.234471,
      "InPlanePhaseEncodingDirection": "COL",
      "MRAcquisitionType": "2D",
      "MagneticFieldStrength": 3.0,
      "Manufacturer": "SIEMENS",
      "ManufacturerModelName": "TrioTim",
      "Modality": "MR",
      "NumberOfAverages": 1.0,
      "NumberOfPhaseEncodingSteps": 91,
      "PercentPhaseFieldOfView": 100.0,
      "PercentSampling": 100.0,
      "PerformedProcedureStepStartTime": "102321.359000",
      "PhotometricInterpretation": "MONOCHROME2",
      "PixelBandwidth": 1923.0,
      "PixelRepresentation": 0,
      "PixelSpacing": [2.0, 2.0],
      "ProtocolName": "cmrr_mbep2d_bold_2mm_MB8_Task_8x",
      "RepetitionTime": 785.0,
      "Rows": 936,
      "SAR": 0.13120641713045,
      "SamplesPerPixel": 1,
      "ScanOptions": [
        "PFP",
        "FS"
],
      "ScanningSequence": "EP",
      "SequenceName": "epfid2d1_104",
      "SequenceVariant": [
        "SK",
        "SS"
],
      "SeriesDescription": "cmrr_mbep2d_bold_2mm_MB8_Task_8x",
      "SeriesNumber": 20,
      "SeriesTime": "120706.796000",
      "SliceLocation": -109.98399718561,
      "SliceThickness": 2.0,
      "SmallestImagePixelValue": 0,
      "SoftwareVersions": "syngo MR B19",
      "SpacingBetweenSlices": 1.999999987165,
      "SpecificCharacterSet": "ISO_IR 100",
      "StudyID": "1",
      "StudyTime": "102321.312000",
      "TransmitCoilName": "Body",
      "VariableFlipAngleFlag": "N",
      "WindowCenterWidthExplanation": "Algo1",
      "dBdt": 0.0},
    "slices": {}
  },
  "time": {
    "samples": {
      "AcquisitionNumber": [1, 2, 3, 4, 5, 6, 7, 8, 9, 10, 11, 12, 13, 14, 15, 16, 17, 18, 19, 20, 21, 22, 23, 24, 25, 26, 27, 28, 29, 30, 31, 32, 33, 34, 35, 36, 37, 38, 39, 40, 41, 42, 43, 44, 45, 46, 47, 48, 49, 50, 51, 52, 53, 54, 55, 56, 57, 58, 59, 60, 61, 62, 63, 64, 65, 66, 67, 68, 69, 70, 71, 72, 73, 74, 75, 76, 77, 78, 79, 80, 81, 82, 83, 84, 85, 86, 87, 88, 89, 90, 91, 92, 93, 94, 95, 96, 97, 98, 99, 100, 101, 102, 103, 104, 105, 106, 107, 108, 109, 110, 111, 112, 113, 114, 115, 116, 117, 118, 119, 120, 121, 122, 123, 124, 125, 126, 127, 128, 129, 130, 131, 132, 133, 134, 135, 136, 137, 138, 139, 140, 141, 142, 143, 144, 145, 146, 147, 148, 149, 150, 151, 152, 153, 154, 155, 156, 157, 158, 159, 160, 161, 162, 163, 164, 165, 166, 167, 168, 169, 170, 171, 172, 173, 174, 175, 176, 177, 178, 179, 180, 181, 182, 183, 184, 185, 186, 187, 188, 189, 190, 191, 192, 193, 194, 195, 196, 197, 198, 199, 200, 201, 202, 203, 204, 205, 206, 207, 208, 209, 210, 211, 212, 213, 214, 215, 216, 217, 218, 219, 220, 221, 222, 223, 224, 225, 226, 227, 228, 229, 230, 231, 232, 233, 234, 235, 236, 237, 238, 239, 240, 241, 242, 243, 244, 245, 246, 247, 248, 249, 250, 251, 252, 253, 254, 255, 256, 257, 258, 259, 260, 261, 262, 263, 264, 265, 266, 267, 268, 269, 270, 271, 272, 273, 274, 275, 276, 277, 278, 279, 280, 281, 282, 283, 284, 285, 286, 287, 288, 289, 290, 291, 292, 293, 294, 295, 296, 297, 298, 299, 300, 301, 302, 303, 304, 305, 306, 307, 308, 309, 310, 311, 312, 313, 314, 315, 316, 317, 318, 319, 320, 321, 322, 323, 324, 325, 326, 327, 328, 329, 330, 331, 332, 333, 334, 335, 336, 337, 338, 339, 340, 341, 342, 343, 344, 345, 346, 347, 348, 349, 350, 351, 352, 353, 354, 355, 356, 357, 358, 359, 360, 361, 362, 363, 364, 365, 366, 367, 368, 369, 370, 371, 372, 373, 374, 375, 376, 377, 378, 379, 380, 381, 382, 383, 384, 385, 386, 387, 388, 389, 390, 391, 392, 393, 394, 395, 396, 397, 398, 399, 400, 401, 402, 403, 404, 405, 406, 407, 408, 409, 410, 411, 412, 413, 414, 415, 416, 417, 418, 419, 420, 421, 422, 423, 424, 425, 426, 427, 428, 429, 430, 431, 432, 433, 434, 435, 436, 437, 438, 439, 440, 441, 442, 443, 444, 445, 446, 447, 448, 449, 450, 451, 452, 453, 454, 455, 456, 457, 458, 459, 460, 461, 462, 463, 464, 465, 466, 467, 468, 469, 470, 471, 472, 473, 474, 475, 476, 477, 478, 479, 480, 481, 482, 483, 484, 485, 486, 487, 488, 489, 490, 491, 492, 493, 494, 495, 496, 497, 498, 499, 500, 501, 502, 503, 504, 505, 506, 507, 508, 509, 510, 511, 512, 513, 514, 515, 516, 517, 518, 519, 520, 521, 522, 523, 524, 525, 526, 527, 528, 529, 530, 531, 532, 533, 534, 535, 536, 537, 538, 539, 540, 541, 542, 543, 544, 545, 546, 547, 548, 549, 550, 551, 552, 553, 554, 555, 556, 557, 558, 559, 560, 561, 562, 563, 564, 565, 566, 567, 568, 569, 570, 571, 572, 573, 574, 575, 576, 577, 578, 579, 580, 581],
      "AcquisitionTime": ["120633.740000", "120634.527500", "120635.315000", "120636.105000", "120636.892500", "120637.680000", "120638.467500", "120639.257500", "120640.045000", "120640.832500", "120641.622500", "120642.410000", "120643.197500", "120643.985000", "120644.775000", "120645.562500", "120646.350000", "120647.137500", "120647.927500", "120648.715000", "120649.502500", "120650.290000", "120651.080000", "120651.867500", "120652.655000", "120653.442500", "120654.232500", "120655.020000", "120655.807500", "120656.595000", "120657.385000", "120658.172500", "120658.960000", "120659.750000", "120700.537500", "120701.325000", "120702.112500", "120702.902500", "120703.690000", "120704.477500", "120705.265000", "120706.055000", "120706.842500", "120707.630000", "120708.417500", "120709.207500", "120709.995000", "120710.782500", "120711.570000", "120712.360000", "120713.147500", "120713.935000", "120714.722500", "120715.512500", "120716.300000", "120717.087500", "120717.877500", "120718.665000", "120719.452500", "120720.240000", "120721.030000", "120721.817500", "120722.605000", "120723.392500", "120724.182500", "120724.970000", "120725.757500", "120726.545000", "120727.335000", "120728.122500", "120728.910000", "120729.697500", "120730.487500", "120731.275000", "120732.062500", "120732.850000", "120733.640000", "120734.427500", "120735.215000", "120736.005000", "120736.792500", "120737.580000", "120738.367500", "120739.157500", "120739.945000", "120740.732500", "120741.520000", "120742.310000", "120743.097500", "120743.885000", "120744.672500", "120745.462500", "120746.250000", "120747.037500", "120747.825000", "120748.615000", "120749.402500", "120750.190000", "120750.980000", "120751.767500", "120752.555000", "120753.342500", "120754.132500", "120754.920000", "120755.707500", "120756.495000", "120757.285000", "120758.072500", "120758.860000", "120759.647500", "120800.437500", "120801.225000", "120802.012500", "120802.800000", "120803.590000", "120804.377500", "120805.165000", "120805.952500", "120806.742500", "120807.530000", "120808.317500", "120809.107500", "120809.895000", "120810.682500", "120811.470000", "120812.260000", "120813.047500", "120813.835000", "120814.622500", "120815.412500", "120816.200000", "120816.987500", "120817.775000", "120818.565000", "120819.352500", "120820.140000", "120820.927500", "120821.717500", "120822.505000", "120823.292500", "120824.080000", "120824.870000", "120825.657500", "120826.445000", "120827.235000", "120828.022500", "120828.810000", "120829.597500", "120830.387500", "120831.175000", "120831.962500", "120832.750000", "120833.540000", "120834.327500", "120835.115000", "120835.902500", "120836.692500", "120837.480000", "120838.267500", "120839.055000", "120839.845000", "120840.632500", "120841.420000", "120842.207500", "120842.997500", "120843.785000", "120844.572500", "120845.362500", "120846.150000", "120846.937500", "120847.725000", "120848.515000", "120849.302500", "120850.090000", "120850.877500", "120851.667500", "120852.455000", "120853.242500", "120854.030000", "120854.820000", "120855.607500", "120856.395000", "120857.182500", "120857.972500", "120858.760000", "120859.547500", "120900.335000", "120901.125000", "120901.912500", "120902.700000", "120903.490000", "120904.277500", "120905.065000", "120905.852500", "120906.642500", "120907.430000", "120908.217500", "120909.005000", "120909.795000", "120910.582500", "120911.370000", "120912.157500", "120912.947500", "120913.735000", "120914.522500", "120915.310000", "120916.100000", "120916.887500", "120917.675000", "120918.462500", "120919.252500", "120920.040000", "120920.827500", "120921.617500", "120922.405000", "120923.192500", "120923.980000", "120924.770000", "120925.557500", "120926.345000", "120927.132500", "120927.922500", "120928.710000", "120929.497500", "120930.285000", "120931.075000", "120931.862500", "120932.650000", "120933.437500", "120934.227500", "120935.015000", "120935.802500", "120936.590000", "120937.380000", "120938.167500", "120938.955000", "120939.745000", "120940.532500", "120941.320000", "120942.107500", "120942.897500", "120943.685000", "120944.472500", "120945.260000", "120946.050000", "120946.837500", "120947.625000", "120948.412500", "120949.202500", "120949.990000", "120950.777500", "120951.565000", "120952.355000", "120953.142500", "120953.930000", "120954.717500", "120955.507500", "120956.295000", "120957.082500", "120957.872500", "120958.660000", "120959.447500", "121000.235000", "121001.025000", "121001.812500", "121002.600000", "121003.387500", "121004.177500", "121004.965000", "121005.752500", "121006.540000", "121007.330000", "121008.117500", "121008.905000", "121009.692500", "121010.482500", "121011.270000", "121012.057500", "121012.845000", "121013.635000", "121014.422500", "121015.210000", "121016.000000", "121016.787500", "121017.575000", "121018.362500", "121019.152500", "121019.940000", "121020.727500", "121021.515000", "121022.305000", "121023.092500", "121023.880000", "121024.667500", "121025.457500", "121026.245000", "121027.032500", "121027.820000", "121028.610000", "121029.397500", "121030.185000", "121030.972500", "121031.762500", "121032.550000", "121033.337500", "121034.127500", "121034.915000", "121035.702500", "121036.490000", "121037.280000", "121038.067500", "121038.855000", "121039.642500", "121040.432500", "121041.220000", "121042.007500", "121042.795000", "121043.585000", "121044.372500", "121045.160000", "121045.947500", "121046.737500", "121047.525000", "121048.312500", "121049.100000", "121049.890000", "121050.677500", "121051.465000", "121052.255000", "121053.042500", "121053.830000", "121054.617500", "121055.407500", "121056.195000", "121056.982500", "121057.770000", "121058.560000", "121059.347500", "121100.135000", "121100.922500", "121101.712500", "121102.500000", "121103.287500", "121104.075000", "121104.865000", "121105.652500", "121106.440000", "121107.230000", "121108.017500", "121108.805000", "121109.592500", "121110.382500", "121111.170000", "121111.957500", "121112.745000", "121113.535000", "121114.322500", "121115.110000", "121115.897500", "121116.687500", "121117.475000", "121118.262500", "121119.050000", "121119.840000", "121120.627500", "121121.415000", "121122.202500", "121122.992500", "121123.780000", "121124.567500", "121125.357500", "121126.145000", "121126.932500", "121127.720000", "121128.510000", "121129.297500", "121130.085000", "121130.872500", "121131.662500", "121132.450000", "121133.237500", "121134.025000", "121134.815000", "121135.602500", "121136.390000", "121137.177500", "121137.967500", "121138.755000", "121139.542500", "121140.330000", "121141.120000", "121141.907500", "121142.695000", "121143.485000", "121144.272500", "121145.060000", "121145.847500", "121146.637500", "121147.425000", "121148.212500", "121149.000000", "121149.790000", "121150.577500", "121151.365000", "121152.152500", "121152.942500", "121153.730000", "121154.517500", "121155.305000", "121156.095000", "121156.882500", "121157.670000", "121158.457500", "121159.247500", "121200.035000", "121200.822500", "121201.612500", "121202.400000", "121203.187500", "121203.975000", "121204.765000", "121205.552500", "121206.340000", "121207.127500", "121207.917500", "121208.705000", "121209.492500", "121210.280000", "121211.070000", "121211.857500", "121212.645000", "121213.432500", "121214.222500", "121215.010000", "121215.797500", "121216.585000", "121217.375000", "121218.162500", "121218.950000", "121219.740000", "121220.527500", "121221.315000", "121222.102500", "121222.892500", "121223.680000", "121224.467500", "121225.255000", "121226.045000", "121226.832500", "121227.620000", "121228.407500", "121229.197500", "121229.985000", "121230.772500", "121231.560000", "121232.350000", "121233.137500", "121233.925000", "121234.712500", "121235.502500", "121236.290000", "121237.077500", "121237.867500", "121238.655000", "121239.442500", "121240.230000", "121241.020000", "121241.807500", "121242.595000", "121243.382500", "121244.172500", "121244.960000", "121245.747500", "121246.535000", "121247.325000", "121248.112500", "121248.900000", "121249.687500", "121250.477500", "121251.265000", "121252.052500", "121252.840000", "121253.630000", "121254.417500", "121255.205000", "121255.995000", "121256.782500", "121257.570000", "121258.357500", "121259.147500", "121259.935000", "121300.722500", "121301.510000", "121302.300000", "121303.087500", "121303.875000", "121304.662500", "121305.452500", "121306.240000", "121307.027500", "121307.815000", "121308.605000", "121309.392500", "121310.180000", "121310.967500", "121311.757500", "121312.545000", "121313.332500", "121314.122500", "121314.910000", "121315.697500", "121316.485000", "121317.275000", "121318.062500", "121318.850000", "121319.637500", "121320.427500", "121321.215000", "121322.002500", "121322.790000", "121323.580000", "121324.367500", "121325.155000", "121325.942500", "121326.732500", "121327.520000", "121328.307500", "121329.095000", "121329.885000", "121330.672500", "121331.460000", "121332.250000", "121333.037500", "121333.825000", "121334.612500", "121335.402500", "121336.190000", "121336.977500", "121337.765000", "121338.555000", "121339.342500", "121340.130000", "121340.917500", "121341.707500", "121342.495000", "121343.282500", "121344.070000", "121344.860000", "121345.647500", "121346.435000", "121347.222500", "121348.012500", "121348.800000", "121349.587500", "121350.377500", "121351.165000", "121351.952500", "121352.740000", "121353.530000", "121354.317500", "121355.105000", "121355.892500", "121356.682500", "121357.470000", "121358.257500", "121359.045000", "121359.835000", "121400.622500", "121401.410000", "121402.197500", "121402.987500", "121403.775000", "121404.562500", "121405.350000", "121406.140000", "121406.927500", "121407.715000", "121408.505000", "121409.292500", "121410.080000", "121410.867500"],
      "ContentTime": ["120706.796000", "120706.796000", "120706.796000", "120706.812000", "120706.812000", "120706.812000", "120706.812000", "120706.812000", "120706.812000", "120706.812000", "120706.828000", "120706.828000", "120706.828000", "120706.828000", "120706.828000", "120706.828000", "120706.828000", "120706.828000", "120706.843000", "120706.843000", "120706.843000", "120706.843000", "120706.843000", "120706.843000", "120706.843000", "120706.859000", "120706.859000", "120706.859000", "120706.859000", "120706.859000", "120706.875000", "120706.875000", "120706.875000", "120706.875000", "120706.875000", "120706.890000", "120706.890000", "120706.890000", "120706.890000", "120726.781000", "120726.781000", "120726.781000", "120726.781000", "120726.781000", "120726.781000", "120726.781000", "120726.796000", "120726.796000", "120726.796000", "120726.796000", "120726.796000", "120726.796000", "120726.796000", "120726.812000", "120726.812000", "120726.812000", "120726.812000", "120726.812000", "120726.812000", "120726.812000", "120726.812000", "120726.828000", "120726.828000", "120726.828000", "120746.781000", "120746.781000", "120746.781000", "120746.796000", "120746.796000", "120746.796000", "120746.796000", "120746.796000", "120746.796000", "120746.796000", "120746.796000", "120746.812000", "120746.812000", "120746.812000", "120746.812000", "120746.812000", "120746.812000", "120746.812000", "120746.812000", "120746.828000", "120746.828000", "120746.828000", "120746.828000", "120746.828000", "120746.828000", "120806.781000", "120806.781000", "120806.781000", "120806.781000", "120806.781000", "120806.781000", "120806.796000", "120806.796000", "120806.796000", "120806.796000", "120806.796000", "120806.796000", "120806.796000", "120806.796000", "120806.812000", "120806.812000", "120806.812000", "120806.812000", "120806.812000", "120806.812000", "120806.812000", "120806.828000", "120806.828000", "120806.828000", "120806.828000", "120806.828000", "120826.781000", "120826.781000", "120826.781000", "120826.781000", "120826.781000", "120826.796000", "120826.796000", "120826.796000", "120826.796000", "120826.796000", "120826.796000", "120826.812000", "120826.812000", "120826.812000", "120826.812000", "120826.812000", "120826.812000", "120826.828000", "120826.828000", "120826.828000", "120826.828000", "120826.828000", "120826.828000", "120826.843000", "120826.843000", "120846.781000", "120846.781000", "120846.781000", "120846.781000", "120846.781000", "120846.781000", "120846.796000", "120846.796000", "120846.796000", "120846.796000", "120846.796000", "120846.796000", "120846.796000", "120846.796000", "120846.812000", "120846.812000", "120846.812000", "120846.812000", "120846.812000", "120846.828000", "120846.828000", "120846.828000", "120846.828000", "120846.828000", "120846.828000", "120846.843000", "120906.781000", "120906.781000", "120906.781000", "120906.781000", "120906.781000", "120906.781000", "120906.796000", "120906.796000", "120906.796000", "120906.796000", "120906.796000", "120906.812000", "120906.812000", "120906.812000", "120906.812000", "120906.812000", "120906.812000", "120906.828000", "120906.828000", "120906.828000", "120906.828000", "120906.828000", "120906.843000", "120906.843000", "120906.843000", "120926.781000", "120926.781000", "120926.781000", "120926.781000", "120926.781000", "120926.781000", "120926.796000", "120926.796000", "120926.796000", "120926.796000", "120926.796000", "120926.796000", "120926.796000", "120926.796000", "120926.812000", "120926.812000", "120926.812000", "120926.812000", "120926.812000", "120926.812000", "120926.812000", "120926.828000", "120926.828000", "120926.828000", "120926.828000", "120926.828000", "120946.781000", "120946.781000", "120946.781000", "120946.781000", "120946.781000", "120946.781000", "120946.796000", "120946.796000", "120946.796000", "120946.796000", "120946.796000", "120946.796000", "120946.796000", "120946.796000", "120946.812000", "120946.812000", "120946.812000", "120946.812000", "120946.812000", "120946.812000", "120946.812000", "120946.828000", "120946.828000", "120946.828000", "120946.828000", "121006.781000", "121006.781000", "121006.781000", "121006.781000", "121006.781000", "121006.781000", "121006.781000", "121006.796000", "121006.796000", "121006.796000", "121006.796000", "121006.796000", "121006.796000", "121006.796000", "121006.812000", "121006.812000", "121006.812000", "121006.812000", "121006.812000", "121006.812000", "121006.812000", "121006.812000", "121006.828000", "121006.828000", "121006.828000", "121006.828000", "121026.781000", "121026.781000", "121026.781000", "121026.781000", "121026.781000", "121026.781000", "121026.796000", "121026.796000", "121026.796000", "121026.796000", "121026.796000", "121026.796000", "121026.812000", "121026.812000", "121026.812000", "121026.812000", "121026.812000", "121026.812000", "121026.812000", "121026.828000", "121026.828000", "121026.828000", "121026.828000", "121026.828000", "121026.828000", "121046.781000", "121046.781000", "121046.781000", "121046.781000", "121046.781000", "121046.781000", "121046.796000", "121046.796000", "121046.796000", "121046.796000", "121046.796000", "121046.796000", "121046.796000", "121046.796000", "121046.812000", "121046.812000", "121046.812000", "121046.812000", "121046.812000", "121046.812000", "121046.828000", "121046.828000", "121046.828000", "121046.828000", "121046.828000", "121046.828000", "121106.781000", "121106.781000", "121106.781000", "121106.781000", "121106.781000", "121106.781000", "121106.796000", "121106.796000", "121106.796000", "121106.796000", "121106.796000", "121106.796000", "121106.796000", "121106.796000", "121106.812000", "121106.812000", "121106.812000", "121106.812000", "121106.828000", "121106.828000", "121106.828000", "121106.828000", "121106.828000", "121106.828000", "121106.828000", "121126.781000", "121126.781000", "121126.781000", "121126.781000", "121126.781000", "121126.781000", "121126.796000", "121126.796000", "121126.796000", "121126.796000", "121126.796000", "121126.796000", "121126.796000", "121126.812000", "121126.812000", "121126.812000", "121126.812000", "121126.812000", "121126.812000", "121126.812000", "121126.828000", "121126.828000", "121126.828000", "121126.828000", "121126.828000", "121126.828000", "121146.781000", "121146.781000", "121146.781000", "121146.781000", "121146.781000", "121146.781000", "121146.796000", "121146.796000", "121146.796000", "121146.796000", "121146.796000", "121146.796000", "121146.796000", "121146.796000", "121146.812000", "121146.812000", "121146.812000", "121146.812000", "121146.812000", "121146.812000", "121146.812000", "121146.828000", "121146.828000", "121146.828000", "121146.828000", "121206.781000", "121206.781000", "121206.781000", "121206.781000", "121206.781000", "121206.781000", "121206.796000", "121206.796000", "121206.796000", "121206.796000", "121206.796000", "121206.796000", "121206.796000", "121206.796000", "121206.812000", "121206.812000", "121206.812000", "121206.812000", "121206.812000", "121206.812000", "121206.812000", "121206.828000", "121206.828000", "121206.828000", "121206.828000", "121206.828000", "121226.781000", "121226.781000", "121226.781000", "121226.781000", "121226.781000", "121226.781000", "121226.796000", "121226.796000", "121226.796000", "121226.796000", "121226.796000", "121226.796000", "121226.796000", "121226.796000", "121226.812000", "121226.812000", "121226.812000", "121226.812000", "121226.812000", "121226.812000", "121226.812000", "121226.828000", "121226.828000", "121226.828000", "121226.828000", "121246.781000", "121246.781000", "121246.781000", "121246.781000", "121246.781000", "121246.781000", "121246.796000", "121246.796000", "121246.796000", "121246.796000", "121246.796000", "121246.796000", "121246.812000", "121246.812000", "121246.812000", "121246.812000", "121246.812000", "121246.812000", "121246.812000", "121246.812000", "121246.828000", "121246.828000", "121246.828000", "121246.828000", "121246.828000", "121246.828000", "121306.781000", "121306.781000", "121306.781000", "121306.781000", "121306.796000", "121306.796000", "121306.796000", "121306.796000", "121306.796000", "121306.796000", "121306.796000", "121306.812000", "121306.812000", "121306.812000", "121306.812000", "121306.812000", "121306.828000", "121306.828000", "121306.828000", "121306.828000", "121306.828000", "121306.828000", "121306.828000", "121306.828000", "121306.843000", "121326.781000", "121326.781000", "121326.781000", "121326.781000", "121326.781000", "121326.781000", "121326.796000", "121326.796000", "121326.796000", "121326.796000", "121326.796000", "121326.796000", "121326.796000", "121326.796000", "121326.812000", "121326.812000", "121326.812000", "121326.812000", "121326.812000", "121326.812000", "121326.812000", "121326.828000", "121326.828000", "121326.828000", "121326.828000", "121326.828000", "121346.781000", "121346.781000", "121346.781000", "121346.781000", "121346.781000", "121346.781000", "121346.796000", "121346.796000", "121346.796000", "121346.796000", "121346.796000", "121346.796000", "121346.796000", "121346.796000", "121346.812000", "121346.812000", "121346.812000", "121346.812000", "121346.812000", "121346.812000", "121346.812000", "121346.828000", "121346.828000", "121346.828000", "121346.828000", "121406.781000", "121406.781000", "121406.781000", "121406.781000", "121406.781000", "121406.781000", "121406.796000", "121406.796000", "121406.796000", "121406.796000", "121406.796000", "121406.796000", "121406.796000", "121406.812000", "121406.812000", "121406.812000", "121406.812000", "121406.812000", "121406.812000", "121406.828000", "121406.828000", "121406.828000", "121406.828000", "121406.828000", "121406.843000", "121406.843000", "121412.296000", "121412.296000", "121412.312000", "121412.312000", "121412.312000", "121412.312000", "121412.312000"],
