{
  "AcquisitionMatrixPE": 104,
  "AcquisitionNumber": 1,
  "AcquisitionTime": "11:42:16.387500",
  "BandwidthPerPixelPhaseEncode": 13.935,
  "BaseResolution": 104,
  "CoilString": "C:HEA;HEP",
  "ConversionSoftware": "dcm2niix",
  "ConversionSoftwareVersion": "v1.0.20210317",
  "DerivedVendorReportedEchoSpacing": 0.000690017,
  "DeviceSerialNumber": "35450",
  "DwellTime": 2.5e-06,
  "EchoTime": 0.0348,
  "EffectiveEchoSpacing": 0.000690017,
  "FlipAngle": 55,
  "ImageComments": "Unaliased MB8/PE3 (remote)",
  "ImageOrientationPatientDICOM": [0.999046, 0.00668102, 0.0431586, 6.15192e-09, 0.988229, -0.15298],
  "ImageType": [
    "ORIGINAL",
    "PRIMARY",
    "M",
    "MB",
    "ND",
    "MOSAIC"
],
  "ImagingFrequency": 123.234,
  "InPlanePhaseEncodingDirectionDICOM": "COL",
  "InstitutionAddress": "Univeristy Ave. 197,Newark,North East,US,07102-1814",
  "InstitutionName": "RUBIC",
  "InstitutionalDepartmentName": "Department",
  "MRAcquisitionType": "2D",
  "MagneticFieldStrength": 3,
  "Manufacturer": "Siemens",
  "ManufacturersModelName": "TrioTim",
  "Modality": "MR",
  "MultibandAccelerationFactor": 8,
  "PartialFourier": 0.875,
  "PatientPosition": "HFS",
  "PercentPhaseFOV": 100,
  "PercentSampling": 100,
  "PhaseEncodingDirection": "j-",
  "PhaseEncodingSteps": 91,
  "PhaseResolution": 1,
  "PixelBandwidth": 1923,
  "ProcedureStepDescription": "Cole^Michael",
  "ProtocolName": "cmrr_mbep2d_bold_2mm_MB8_Task_8x",
  "PulseSequenceDetails": "%CustomerSeq%\\cmrr_mbep2d_bold",
  "ReceiveCoilName": "32Ch_Head",
  "ReconMatrixPE": 104,
  "RepetitionTime": 0.785,
  "SAR": 0.142854,
  "ScanOptions": "PFP\\FS",
  "ScanningSequence": "EP",
  "SequenceName": "epfid2d1_104",
  "SequenceVariant": "SK\\SS",
  "SeriesDescription": "cmrr_mbep2d_bold_2mm_MB8_Task_8x",
  "SeriesNumber": 14,
  "ShimSetting": [2152, -381, -7328, 639, -176, -1, 127, -45],
  "SliceThickness": 2,
  "SliceTiming": [0, 0.4375, 0.0875, 0.525, 0.175, 0.6125, 0.2625, 0.7, 0.35, 0, 0.4375, 0.0875, 0.525, 0.175, 0.6125, 0.2625, 0.7, 0.35, 0, 0.4375, 0.0875, 0.525, 0.175, 0.6125, 0.2625, 0.7, 0.35, 0, 0.4375, 0.0875, 0.525, 0.175, 0.6125, 0.2625, 0.7, 0.35, 0, 0.4375, 0.0875, 0.525, 0.175, 0.6125, 0.2625, 0.7, 0.35, 0, 0.4375, 0.0875, 0.525, 0.175, 0.6125, 0.2625, 0.7, 0.35, 0, 0.4375, 0.0875, 0.525, 0.175, 0.6125, 0.2625, 0.7, 0.35, 0, 0.4375, 0.0875, 0.525, 0.175, 0.6125, 0.2625, 0.7, 0.35],
  "SoftwareVersions": "syngo MR B19",
  "SpacingBetweenSlices": 2,
  "StationName": "MRC35450",
  "TaskName": "cpro",
  "TotalReadoutTime": 0.0710717,
  "TxRefAmp": 347.613,
  "dcmmeta_affine": [
    [-1.9980918169021606, 1.2303834395765989e-08, 0.08734536916017532, 107.62000274658203],
    [-0.013362041674554348, 1.9764586687088013, -0.3056671619415283, -80.89434814453125],
    [0.08631725609302521, 0.3059590756893158, 1.9745728969573975, -128.68344116210938],
    [0.0, 0.0, 0.0, 1.0]
],
  "dcmmeta_reorient_transform": [
    [0.0, -1.0, 0.0, 103.0],
    [1.0, 0.0, 0.0, 0.0],
    [0.0, 0.0, 1.0, 0.0],
    [0.0, 0.0, 0.0, 1.0]
],
  "dcmmeta_shape": [104, 104, 72, 581],
  "dcmmeta_slice_dim": 2,
  "dcmmeta_version": 0.6,
  "global": {
    "const": {
      "AcquisitionMatrix": [104, 0, 0, 104],
      "AngioFlag": "N",
      "BitsAllocated": 16,
      "BitsStored": 12,
      "Columns": 936,
      "EchoNumbers": 1,
      "EchoTime": 34.8,
      "EchoTrainLength": 1,
      "FlipAngle": 55.0,
      "HighBit": 11,
      "ImageOrientationPatient": [0.99904589321385, 0.00668102074528, 0.04315862850396, 6.151917e-09, 0.98822935670289, -0.1529795363786],
      "ImagePositionPatient": [-938.82618888193, -950.4463298137, -5.7986641649119],
      "ImageType": [
        "ORIGINAL",
        "PRIMARY",
        "M",
        "MB",
        "ND",
        "MOSAIC"
],
      "ImagedNucleus": "1H",
      "ImagingFrequency": 123.234471,
      "InPlanePhaseEncodingDirection": "COL",
      "MRAcquisitionType": "2D",
      "MagneticFieldStrength": 3.0,
      "Manufacturer": "SIEMENS",
      "ManufacturerModelName": "TrioTim",
      "Modality": "MR",
      "NumberOfAverages": 1.0,
      "NumberOfPhaseEncodingSteps": 91,
      "PercentPhaseFieldOfView": 100.0,
      "PercentSampling": 100.0,
      "PerformedProcedureStepStartTime": "102321.359000",
      "PhotometricInterpretation": "MONOCHROME2",
      "PixelBandwidth": 1923.0,
      "PixelRepresentation": 0,
      "PixelSpacing": [2.0, 2.0],
      "ProtocolName": "cmrr_mbep2d_bold_2mm_MB8_Task_8x",
      "RepetitionTime": 785.0,
      "Rows": 936,
      "SAR": 0.14285367943583,
      "SamplesPerPixel": 1,
      "ScanOptions": [
        "PFP",
        "FS"
],
      "ScanningSequence": "EP",
      "SequenceName": "epfid2d1_104",
      "SequenceVariant": [
        "SK",
        "SS"
],
      "SeriesDescription": "cmrr_mbep2d_bold_2mm_MB8_Task_8x",
      "SeriesNumber": 14,
      "SeriesTime": "114246.796000",
      "SliceLocation": -109.98399718561,
      "SliceThickness": 2.0,
      "SmallestImagePixelValue": 0,
      "SoftwareVersions": "syngo MR B19",
      "SpacingBetweenSlices": 1.999999987165,
      "SpecificCharacterSet": "ISO_IR 100",
      "StudyID": "1",
      "StudyTime": "102321.312000",
      "TransmitCoilName": "Body",
      "VariableFlipAngleFlag": "N",
      "WindowCenterWidthExplanation": "Algo1",
      "dBdt": 0.0},
    "slices": {}
  },
  "time": {
    "samples": {
      "AcquisitionNumber": [1, 2, 3, 4, 5, 6, 7, 8, 9, 10, 11, 12, 13, 14, 15, 16, 17, 18, 19, 20, 21, 22, 23, 24, 25, 26, 27, 28, 29, 30, 31, 32, 33, 34, 35, 36, 37, 38, 39, 40, 41, 42, 43, 44, 45, 46, 47, 48, 49, 50, 51, 52, 53, 54, 55, 56, 57, 58, 59, 60, 61, 62, 63, 64, 65, 66, 67, 68, 69, 70, 71, 72, 73, 74, 75, 76, 77, 78, 79, 80, 81, 82, 83, 84, 85, 86, 87, 88, 89, 90, 91, 92, 93, 94, 95, 96, 97, 98, 99, 100, 101, 102, 103, 104, 105, 106, 107, 108, 109, 110, 111, 112, 113, 114, 115, 116, 117, 118, 119, 120, 121, 122, 123, 124, 125, 126, 127, 128, 129, 130, 131, 132, 133, 134, 135, 136, 137, 138, 139, 140, 141, 142, 143, 144, 145, 146, 147, 148, 149, 150, 151, 152, 153, 154, 155, 156, 157, 158, 159, 160, 161, 162, 163, 164, 165, 166, 167, 168, 169, 170, 171, 172, 173, 174, 175, 176, 177, 178, 179, 180, 181, 182, 183, 184, 185, 186, 187, 188, 189, 190, 191, 192, 193, 194, 195, 196, 197, 198, 199, 200, 201, 202, 203, 204, 205, 206, 207, 208, 209, 210, 211, 212, 213, 214, 215, 216, 217, 218, 219, 220, 221, 222, 223, 224, 225, 226, 227, 228, 229, 230, 231, 232, 233, 234, 235, 236, 237, 238, 239, 240, 241, 242, 243, 244, 245, 246, 247, 248, 249, 250, 251, 252, 253, 254, 255, 256, 257, 258, 259, 260, 261, 262, 263, 264, 265, 266, 267, 268, 269, 270, 271, 272, 273, 274, 275, 276, 277, 278, 279, 280, 281, 282, 283, 284, 285, 286, 287, 288, 289, 290, 291, 292, 293, 294, 295, 296, 297, 298, 299, 300, 301, 302, 303, 304, 305, 306, 307, 308, 309, 310, 311, 312, 313, 314, 315, 316, 317, 318, 319, 320, 321, 322, 323, 324, 325, 326, 327, 328, 329, 330, 331, 332, 333, 334, 335, 336, 337, 338, 339, 340, 341, 342, 343, 344, 345, 346, 347, 348, 349, 350, 351, 352, 353, 354, 355, 356, 357, 358, 359, 360, 361, 362, 363, 364, 365, 366, 367, 368, 369, 370, 371, 372, 373, 374, 375, 376, 377, 378, 379, 380, 381, 382, 383, 384, 385, 386, 387, 388, 389, 390, 391, 392, 393, 394, 395, 396, 397, 398, 399, 400, 401, 402, 403, 404, 405, 406, 407, 408, 409, 410, 411, 412, 413, 414, 415, 416, 417, 418, 419, 420, 421, 422, 423, 424, 425, 426, 427, 428, 429, 430, 431, 432, 433, 434, 435, 436, 437, 438, 439, 440, 441, 442, 443, 444, 445, 446, 447, 448, 449, 450, 451, 452, 453, 454, 455, 456, 457, 458, 459, 460, 461, 462, 463, 464, 465, 466, 467, 468, 469, 470, 471, 472, 473, 474, 475, 476, 477, 478, 479, 480, 481, 482, 483, 484, 485, 486, 487, 488, 489, 490, 491, 492, 493, 494, 495, 496, 497, 498, 499, 500, 501, 502, 503, 504, 505, 506, 507, 508, 509, 510, 511, 512, 513, 514, 515, 516, 517, 518, 519, 520, 521, 522, 523, 524, 525, 526, 527, 528, 529, 530, 531, 532, 533, 534, 535, 536, 537, 538, 539, 540, 541, 542, 543, 544, 545, 546, 547, 548, 549, 550, 551, 552, 553, 554, 555, 556, 557, 558, 559, 560, 561, 562, 563, 564, 565, 566, 567, 568, 569, 570, 571, 572, 573, 574, 575, 576, 577, 578, 579, 580, 581],
      "AcquisitionTime": ["114216.387500", "114217.175000", "114217.965000", "114218.752500", "114219.540000", "114220.327500", "114221.117500", "114221.905000", "114222.692500", "114223.482500", "114224.270000", "114225.057500", "114225.845000", "114226.635000", "114227.422500", "114228.210000", "114228.997500", "114229.787500", "114230.575000", "114231.362500", "114232.150000", "114232.940000", "114233.727500", "114234.515000", "114235.302500", "114236.092500", "114236.880000", "114237.667500", "114238.455000", "114239.245000", "114240.032500", "114240.820000", "114241.610000", "114242.397500", "114243.185000", "114243.972500", "114244.762500", "114245.550000", "114246.337500", "114247.125000", "114247.915000", "114248.702500", "114249.490000", "114250.277500", "114251.067500", "114251.855000", "114252.642500", "114253.430000", "114254.220000", "114255.007500", "114255.795000", "114256.582500", "114257.372500", "114258.160000", "114258.947500", "114259.737500", "114300.525000", "114301.312500", "114302.100000", "114302.890000", "114303.677500", "114304.465000", "114305.252500", "114306.042500", "114306.830000", "114307.617500", "114308.405000", "114309.195000", "114309.982500", "114310.770000", "114311.557500", "114312.347500", "114313.135000", "114313.922500", "114314.712500", "114315.500000", "114316.287500", "114317.075000", "114317.865000", "114318.652500", "114319.440000", "114320.227500", "114321.017500", "114321.805000", "114322.592500", "114323.380000", "114324.170000", "114324.957500", "114325.745000", "114326.532500", "114327.322500", "114328.110000", "114328.897500", "114329.685000", "114330.475000", "114331.262500", "114332.050000", "114332.840000", "114333.627500", "114334.415000", "114335.202500", "114335.992500", "114336.780000", "114337.567500", "114338.355000", "114339.145000", "114339.932500", "114340.720000", "114341.507500", "114342.297500", "114343.085000", "114343.872500", "114344.660000", "114345.450000", "114346.237500", "114347.025000", "114347.812500", "114348.602500", "114349.390000", "114350.177500", "114350.967500", "114351.755000", "114352.542500", "114353.330000", "114354.120000", "114354.907500", "114355.695000", "114356.482500", "114357.272500", "114358.060000", "114358.847500", "114359.635000", "114400.425000", "114401.212500", "114402.000000", "114402.787500", "114403.577500", "114404.365000", "114405.152500", "114405.940000", "114406.730000", "114407.517500", "114408.305000", "114409.095000", "114409.882500", "114410.670000", "114411.457500", "114412.247500", "114413.035000", "114413.822500", "114414.610000", "114415.400000", "114416.187500", "114416.975000", "114417.762500", "114418.552500", "114419.340000", "114420.127500", "114420.915000", "114421.705000", "114422.492500", "114423.280000", "114424.067500", "114424.857500", "114425.645000", "114426.432500", "114427.222500", "114428.010000", "114428.797500", "114429.585000", "114430.375000", "114431.162500", "114431.950000", "114432.737500", "114433.527500", "114434.315000", "114435.102500", "114435.890000", "114436.680000", "114437.467500", "114438.255000", "114439.042500", "114439.832500", "114440.620000", "114441.407500", "114442.195000", "114442.985000", "114443.772500", "114444.560000", "114445.350000", "114446.137500", "114446.925000", "114447.712500", "114448.502500", "114449.290000", "114450.077500", "114450.865000", "114451.655000", "114452.442500", "114453.230000", "114454.017500", "114454.807500", "114455.595000", "114456.382500", "114457.170000", "114457.960000", "114458.747500", "114459.535000", "114500.322500", "114501.112500", "114501.900000", "114502.687500", "114503.477500", "114504.265000", "114505.052500", "114505.840000", "114506.630000", "114507.417500", "114508.205000", "114508.992500", "114509.782500", "114510.570000", "114511.357500", "114512.145000", "114512.935000", "114513.722500", "114514.510000", "114515.297500", "114516.087500", "114516.875000", "114517.662500", "114518.450000", "114519.240000", "114520.027500", "114520.815000", "114521.605000", "114522.392500", "114523.180000", "114523.967500", "114524.757500", "114525.545000", "114526.332500", "114527.120000", "114527.910000", "114528.697500", "114529.485000", "114530.272500", "114531.062500", "114531.850000", "114532.637500", "114533.425000", "114534.215000", "114535.002500", "114535.790000", "114536.577500", "114537.367500", "114538.155000", "114538.942500", "114539.732500", "114540.520000", "114541.307500", "114542.095000", "114542.885000", "114543.672500", "114544.460000", "114545.247500", "114546.037500", "114546.825000", "114547.612500", "114548.400000", "114549.190000", "114549.977500", "114550.765000", "114551.552500", "114552.342500", "114553.130000", "114553.917500", "114554.705000", "114555.495000", "114556.282500", "114557.070000", "114557.860000", "114558.647500", "114559.435000", "114600.222500", "114601.012500", "114601.800000", "114602.587500", "114603.375000", "114604.165000", "114604.952500", "114605.740000", "114606.527500", "114607.317500", "114608.105000", "114608.892500", "114609.680000", "114610.470000", "114611.257500", "114612.045000", "114612.832500", "114613.622500", "114614.410000", "114615.197500", "114615.987500", "114616.775000", "114617.562500", "114618.350000", "114619.140000", "114619.927500", "114620.715000", "114621.502500", "114622.292500", "114623.080000", "114623.867500", "114624.655000", "114625.445000", "114626.232500", "114627.020000", "114627.807500", "114628.597500", "114629.385000", "114630.172500", "114630.962500", "114631.750000", "114632.537500", "114633.325000", "114634.115000", "114634.902500", "114635.690000", "114636.477500", "114637.267500", "114638.055000", "114638.842500", "114639.630000", "114640.420000", "114641.207500", "114641.995000", "114642.782500", "114643.572500", "114644.360000", "114645.147500", "114645.935000", "114646.725000", "114647.512500", "114648.300000", "114649.090000", "114649.877500", "114650.665000", "114651.452500", "114652.242500", "114653.030000", "114653.817500", "114654.605000", "114655.395000", "114656.182500", "114656.970000", "114657.757500", "114658.547500", "114659.335000", "114700.122500", "114700.910000", "114701.700000", "114702.487500", "114703.275000", "114704.062500", "114704.852500", "114705.640000", "114706.427500", "114707.217500", "114708.005000", "114708.792500", "114709.580000", "114710.370000", "114711.157500", "114711.945000", "114712.732500", "114713.522500", "114714.310000", "114715.097500", "114715.885000", "114716.675000", "114717.462500", "114718.250000", "114719.037500", "114719.827500", "114720.615000", "114721.402500", "114722.190000", "114722.980000", "114723.767500", "114724.555000", "114725.345000", "114726.132500", "114726.920000", "114727.707500", "114728.497500", "114729.285000", "114730.072500", "114730.860000", "114731.650000", "114732.437500", "114733.225000", "114734.012500", "114734.802500", "114735.590000", "114736.377500", "114737.165000", "114737.955000", "114738.742500", "114739.530000", "114740.317500", "114741.107500", "114741.895000", "114742.682500", "114743.472500", "114744.260000", "114745.047500", "114745.835000", "114746.625000", "114747.412500", "114748.200000", "114748.987500", "114749.777500", "114750.565000", "114751.352500", "114752.140000", "114752.930000", "114753.717500", "114754.505000", "114755.292500", "114756.082500", "114756.870000", "114757.657500", "114758.445000", "114759.235000", "114800.022500", "114800.810000", "114801.600000", "114802.387500", "114803.175000", "114803.962500", "114804.752500", "114805.540000", "114806.327500", "114807.115000", "114807.905000", "114808.692500", "114809.480000", "114810.267500", "114811.057500", "114811.845000", "114812.632500", "114813.420000", "114814.210000", "114814.997500", "114815.785000", "114816.572500", "114817.362500", "114818.150000", "114818.937500", "114819.727500", "114820.515000", "114821.302500", "114822.090000", "114822.880000", "114823.667500", "114824.455000", "114825.242500", "114826.032500", "114826.820000", "114827.607500", "114828.395000", "114829.185000", "114829.972500", "114830.760000", "114831.547500", "114832.337500", "114833.125000", "114833.912500", "114834.700000", "114835.490000", "114836.277500", "114837.065000", "114837.855000", "114838.642500", "114839.430000", "114840.217500", "114841.007500", "114841.795000", "114842.582500", "114843.370000", "114844.160000", "114844.947500", "114845.735000", "114846.522500", "114847.312500", "114848.100000", "114848.887500", "114849.675000", "114850.465000", "114851.252500", "114852.040000", "114852.827500", "114853.617500", "114854.405000", "114855.192500", "114855.982500", "114856.770000", "114857.557500", "114858.345000", "114859.135000", "114859.922500", "114900.710000", "114901.497500", "114902.287500", "114903.075000", "114903.862500", "114904.650000", "114905.440000", "114906.227500", "114907.015000", "114907.802500", "114908.592500", "114909.380000", "114910.167500", "114910.955000", "114911.745000", "114912.532500", "114913.320000", "114914.110000", "114914.897500", "114915.685000", "114916.472500", "114917.262500", "114918.050000", "114918.837500", "114919.625000", "114920.415000", "114921.202500", "114921.990000", "114922.777500", "114923.567500", "114924.355000", "114925.142500", "114925.930000", "114926.720000", "114927.507500", "114928.295000", "114929.082500", "114929.872500", "114930.660000", "114931.447500", "114932.237500", "114933.025000", "114933.812500", "114934.600000", "114935.390000", "114936.177500", "114936.965000", "114937.752500", "114938.542500", "114939.330000", "114940.117500", "114940.905000", "114941.695000", "114942.482500", "114943.270000", "114944.057500", "114944.847500", "114945.635000", "114946.422500", "114947.212500", "114948.000000", "114948.787500", "114949.575000", "114950.365000", "114951.152500", "114951.940000", "114952.727500", "114953.517500"],
      "ContentTime": ["114246.796000", "114246.812000", "114246.812000", "114246.812000", "114246.812000", "114246.812000", "114246.812000", "114246.828000", "114246.828000", "114246.828000", "114246.828000", "114246.828000", "114246.828000", "114246.828000", "114246.843000", "114246.843000", "114246.843000", "114246.843000", "114246.843000", "114246.843000", "114246.843000", "114246.843000", "114246.859000", "114246.859000", "114246.859000", "114246.859000", "114246.859000", "114246.859000", "114246.859000", "114246.875000", "114246.875000", "114246.875000", "114246.875000", "114246.875000", "114246.875000", "114246.875000", "114306.781000", "114306.781000", "114306.781000", "114306.781000", "114306.796000", "114306.796000", "114306.796000", "114306.796000", "114306.796000", "114306.796000", "114306.796000", "114306.812000", "114306.812000", "114306.812000", "114306.812000", "114306.812000", "114306.812000", "114306.828000", "114306.828000", "114306.828000", "114306.828000", "114306.828000", "114306.828000", "114306.828000", "114306.843000", "114306.843000", "114326.781000", "114326.781000", "114326.781000", "114326.781000", "114326.781000", "114326.781000", "114326.796000", "114326.796000", "114326.796000", "114326.796000", "114326.796000", "114326.796000", "114326.812000", "114326.812000", "114326.812000", "114326.812000", "114326.812000", "114326.812000", "114326.812000", "114326.828000", "114326.828000", "114326.828000", "114326.828000", "114326.828000", "114326.828000", "114346.781000", "114346.781000", "114346.781000", "114346.781000", "114346.781000", "114346.781000", "114346.796000", "114346.796000", "114346.796000", "114346.796000", "114346.796000", "114346.796000", "114346.796000", "114346.796000", "114346.812000", "114346.812000", "114346.812000", "114346.812000", "114346.812000", "114346.812000", "114346.812000", "114346.812000", "114346.828000", "114346.828000", "114346.828000", "114346.828000", "114406.781000", "114406.781000", "114406.781000", "114406.781000", "114406.781000", "114406.781000", "114406.796000", "114406.796000", "114406.796000", "114406.796000", "114406.796000", "114406.796000", "114406.796000", "114406.796000", "114406.812000", "114406.812000", "114406.812000", "114406.812000", "114406.812000", "114406.812000", "114406.812000", "114406.828000", "114406.828000", "114406.828000", "114406.828000", "114426.781000", "114426.781000", "114426.781000", "114426.781000", "114426.781000", "114426.781000", "114426.796000", "114426.796000", "114426.796000", "114426.796000", "114426.796000", "114426.796000", "114426.796000", "114426.796000", "114426.812000", "114426.812000", "114426.812000", "114426.812000", "114426.812000", "114426.812000", "114426.812000", "114426.812000", "114426.828000", "114426.828000", "114426.828000", "114426.828000", "114446.781000", "114446.781000", "114446.781000", "114446.781000", "114446.781000", "114446.781000", "114446.796000", "114446.796000", "114446.796000", "114446.796000", "114446.796000", "114446.796000", "114446.796000", "114446.812000", "114446.812000", "114446.812000", "114446.812000", "114446.812000", "114446.812000", "114446.828000", "114446.828000", "114446.828000", "114446.828000", "114446.828000", "114446.843000", "114506.781000", "114506.781000", "114506.781000", "114506.781000", "114506.781000", "114506.781000", "114506.796000", "114506.796000", "114506.796000", "114506.796000", "114506.796000", "114506.796000", "114506.796000", "114506.796000", "114506.812000", "114506.812000", "114506.812000", "114506.812000", "114506.812000", "114506.812000", "114506.812000", "114506.828000", "114506.828000", "114506.828000", "114506.828000", "114506.828000", "114526.781000", "114526.781000", "114526.781000", "114526.781000", "114526.781000", "114526.781000", "114526.796000", "114526.796000", "114526.796000", "114526.796000", "114526.796000", "114526.796000", "114526.796000", "114526.796000", "114526.812000", "114526.812000", "114526.812000", "114526.812000", "114526.812000", "114526.812000", "114526.812000", "114526.828000", "114526.828000", "114526.828000", "114526.828000", "114546.781000", "114546.781000", "114546.781000", "114546.781000", "114546.781000", "114546.781000", "114546.796000", "114546.796000", "114546.796000", "114546.796000", "114546.796000", "114546.796000", "114546.796000", "114546.796000", "114546.812000", "114546.812000", "114546.812000", "114546.812000", "114546.812000", "114546.812000", "114546.812000", "114546.828000", "114546.828000", "114546.828000", "114546.828000", "114546.828000", "114606.781000", "114606.781000", "114606.781000", "114606.781000", "114606.781000", "114606.781000", "114606.796000", "114606.796000", "114606.796000", "114606.796000", "114606.796000", "114606.796000", "114606.796000", "114606.812000", "114606.812000", "114606.812000", "114606.812000", "114606.812000", "114606.812000", "114606.812000", "114606.812000", "114606.828000", "114606.828000", "114606.828000", "114606.828000", "114626.781000", "114626.781000", "114626.781000", "114626.781000", "114626.781000", "114626.796000", "114626.796000", "114626.796000", "114626.796000", "114626.796000", "114626.796000", "114626.796000", "114626.812000", "114626.812000", "114626.812000", "114626.812000", "114626.812000", "114626.812000", "114626.812000", "114626.828000", "114626.828000", "114626.828000", "114626.828000", "114626.828000", "114626.828000", "114626.828000", "114646.781000", "114646.781000", "114646.781000", "114646.781000", "114646.781000", "114646.781000", "114646.796000", "114646.796000", "114646.796000", "114646.796000", "114646.796000", "114646.796000", "114646.796000", "114646.796000", "114646.812000", "114646.812000", "114646.812000", "114646.812000", "114646.812000", "114646.828000", "114646.828000", "114646.828000", "114646.828000", "114646.828000", "114646.828000", "114706.781000", "114706.781000", "114706.781000", "114706.781000", "114706.781000", "114706.796000", "114706.796000", "114706.796000", "114706.796000", "114706.796000", "114706.812000", "114706.812000", "114706.812000", "114706.812000", "114706.812000", "114706.812000", "114706.812000", "114706.828000", "114706.828000", "114706.828000", "114706.828000", "114706.828000", "114706.828000", "114706.828000", "114706.828000", "114726.781000", "114726.781000", "114726.781000", "114726.781000", "114726.781000", "114726.781000", "114726.796000", "114726.796000", "114726.796000", "114726.796000", "114726.796000", "114726.796000", "114726.796000", "114726.796000", "114726.812000", "114726.812000", "114726.812000", "114726.812000", "114726.812000", "114726.812000", "114726.812000", "114726.828000", "114726.828000", "114726.828000", "114726.828000", "114726.828000", "114746.781000", "114746.781000", "114746.796000", "114746.796000", "114746.796000", "114746.796000", "114746.796000", "114746.796000", "114746.796000", "114746.796000", "114746.812000", "114746.812000", "114746.812000", "114746.812000", "114746.812000", "114746.812000", "114746.812000", "114746.828000", "114746.828000", "114746.828000", "114746.828000", "114746.828000", "114746.828000", "114746.828000", "114746.828000", "114806.781000", "114806.781000", "114806.781000", "114806.781000", "114806.781000", "114806.781000", "114806.796000", "114806.796000", "114806.796000", "114806.796000", "114806.796000", "114806.796000", "114806.796000", "114806.812000", "114806.812000", "114806.812000", "114806.812000", "114806.812000", "114806.812000", "114806.812000", "114806.812000", "114806.828000", "114806.828000", "114806.828000", "114806.828000", "114806.828000", "114826.781000", "114826.781000", "114826.781000", "114826.781000", "114826.781000", "114826.781000", "114826.796000", "114826.796000", "114826.796000", "114826.796000", "114826.796000", "114826.796000", "114826.812000", "114826.812000", "114826.812000", "114826.812000", "114826.812000", "114826.828000", "114826.828000", "114826.828000", "114826.843000", "114826.843000", "114826.843000", "114826.843000", "114826.843000", "114846.781000", "114846.781000", "114846.781000", "114846.781000", "114846.781000", "114846.781000", "114846.796000", "114846.796000", "114846.796000", "114846.796000", "114846.796000", "114846.796000", "114846.796000", "114846.812000", "114846.812000", "114846.812000", "114846.812000", "114846.812000", "114846.828000", "114846.828000", "114846.828000", "114846.828000", "114846.828000", "114846.828000", "114846.828000", "114846.828000", "114906.781000", "114906.781000", "114906.781000", "114906.781000", "114906.781000", "114906.781000", "114906.796000", "114906.796000", "114906.796000", "114906.796000", "114906.796000", "114906.796000", "114906.796000", "114906.812000", "114906.812000", "114906.812000", "114906.812000", "114906.812000", "114906.812000", "114906.812000", "114906.812000", "114906.828000", "114906.828000", "114906.828000", "114906.828000", "114926.781000", "114926.781000", "114926.781000", "114926.781000", "114926.781000", "114926.781000", "114926.796000", "114926.796000", "114926.796000", "114926.796000", "114926.796000", "114926.796000", "114926.796000", "114926.796000", "114926.812000", "114926.812000", "114926.812000", "114926.812000", "114926.812000", "114926.812000", "114926.812000", "114926.828000", "114926.828000", "114926.828000", "114926.828000", "114926.828000", "114946.781000", "114946.781000", "114946.781000", "114946.781000", "114946.781000", "114946.781000", "114946.796000", "114946.796000", "114946.796000", "114946.796000", "114946.796000", "114946.796000", "114946.812000", "114946.812000", "114946.812000", "114946.812000", "114946.812000", "114946.812000", "114946.812000", "114946.812000", "114946.828000", "114946.828000", "114946.828000", "114946.828000", "114946.828000", "114954.046000", "114954.046000", "114954.046000", "114954.046000", "114954.062000", "114954.062000", "114954.062000", "114954.062000", "114954.062000", "114954.062000"],
