{
  "AcquisitionMatrixPE": 104,
  "AcquisitionNumber": 1,
  "AcquisitionTime": "12:53:33.682500",
  "BandwidthPerPixelPhaseEncode": 13.935,
  "BaseResolution": 104,
  "CoilString": "C:HEA;HEP",
  "ConversionSoftware": "dcm2niix",
  "ConversionSoftwareVersion": "v1.0.20210317",
  "DerivedVendorReportedEchoSpacing": 0.000690017,
  "DeviceSerialNumber": "35450",
  "DwellTime": 2.5e-06,
  "EchoTime": 0.0348,
  "EffectiveEchoSpacing": 0.000690017,
  "FlipAngle": 55,
  "ImageComments": "Unaliased MB8/PE3 (remote)",
  "ImageOrientationPatientDICOM": [1, 0, 0, 0, 0.999701, -0.0244322],
  "ImageType": [
    "ORIGINAL",
    "PRIMARY",
    "M",
    "MB",
    "ND",
    "MOSAIC"
],
  "ImagingFrequency": 123.234,
  "InPlanePhaseEncodingDirectionDICOM": "COL",
  "InstitutionAddress": "Univeristy Ave. 197,Newark,North East,US,07102-1814",
  "InstitutionName": "RUBIC",
  "InstitutionalDepartmentName": "Department",
  "MRAcquisitionType": "2D",
  "MagneticFieldStrength": 3,
  "Manufacturer": "Siemens",
  "ManufacturersModelName": "TrioTim",
  "Modality": "MR",
  "MultibandAccelerationFactor": 8,
  "PartialFourier": 0.875,
  "PatientPosition": "HFS",
  "PercentPhaseFOV": 100,
  "PercentSampling": 100,
  "PhaseEncodingDirection": "j-",
  "PhaseEncodingSteps": 91,
  "PhaseResolution": 1,
  "PixelBandwidth": 1923,
  "ProcedureStepDescription": "Cole^Michael",
  "ProtocolName": "cmrr_mbep2d_bold_2mm_MB8_Task_8x",
  "PulseSequenceDetails": "%CustomerSeq%\\cmrr_mbep2d_bold",
  "ReceiveCoilName": "32Ch_Head",
  "ReconMatrixPE": 104,
  "RepetitionTime": 0.785,
  "SAR": 0.144675,
  "ScanOptions": "PFP\\FS",
  "ScanningSequence": "EP",
  "SequenceName": "epfid2d1_104",
  "SequenceVariant": "SK\\SS",
  "SeriesDescription": "cmrr_mbep2d_bold_2mm_MB8_Task_8x",
  "SeriesNumber": 15,
  "ShimSetting": [2129, -488, -7255, 449, 26, -445, 44, 3],
  "SliceThickness": 2,
  "SliceTiming": [0, 0.4375, 0.0875, 0.525, 0.175, 0.6125, 0.2625, 0.7, 0.35, 0, 0.4375, 0.0875, 0.525, 0.175, 0.6125, 0.2625, 0.7, 0.35, 0, 0.4375, 0.0875, 0.525, 0.175, 0.6125, 0.2625, 0.7, 0.35, 0, 0.4375, 0.0875, 0.525, 0.175, 0.6125, 0.2625, 0.7, 0.35, 0, 0.4375, 0.0875, 0.525, 0.175, 0.6125, 0.2625, 0.7, 0.35, 0, 0.4375, 0.0875, 0.525, 0.175, 0.6125, 0.2625, 0.7, 0.35, 0, 0.4375, 0.0875, 0.525, 0.175, 0.6125, 0.2625, 0.7, 0.35, 0, 0.4375, 0.0875, 0.525, 0.175, 0.6125, 0.2625, 0.7, 0.35],
  "SoftwareVersions": "syngo MR B19",
  "SpacingBetweenSlices": 2,
  "StationName": "MRC35450",
  "TaskName": "cpro",
  "TotalReadoutTime": 0.0710717,
  "TxRefAmp": 342.655,
  "dcmmeta_affine": [
    [-2.0, 0.0, 0.0, 106.03389739990234],
    [0.0, 1.9994029998779297, -0.04886435344815254, -84.52958679199219],
    [0.0, 0.04886435344815254, 1.9994029998779297, -92.61527252197266],
    [0.0, 0.0, 0.0, 1.0]
],
  "dcmmeta_reorient_transform": [
    [0.0, -1.0, 0.0, 103.0],
    [1.0, 0.0, 0.0, 0.0],
    [0.0, 0.0, 1.0, 0.0],
    [0.0, 0.0, 0.0, 1.0]
],
  "dcmmeta_shape": [104, 104, 72, 581],
  "dcmmeta_slice_dim": 2,
  "dcmmeta_version": 0.6,
  "global": {
    "const": {
      "AcquisitionMatrix": [104, 0, 0, 104],
      "AngioFlag": "N",
      "BitsAllocated": 16,
      "BitsStored": 12,
      "Columns": 936,
      "EchoNumbers": 1,
      "EchoTime": 34.8,
      "EchoTrainLength": 1,
      "FlipAngle": 55.0,
      "HighBit": 11,
      "ImageOrientationPatient": [1.0, 0.0, 0.0, 0.0, 0.99970148981559, -0.0244321767449],
      "ImagePositionPatient": [-938.03389835358, -953.16056257652, -67.254674400279],
      "ImageType": [
        "ORIGINAL",
        "PRIMARY",
        "M",
        "MB",
        "ND",
        "MOSAIC"
],
      "ImagedNucleus": "1H",
      "ImagingFrequency": 123.234436,
      "InPlanePhaseEncodingDirection": "COL",
      "MRAcquisitionType": "2D",
      "MagneticFieldStrength": 3.0,
      "Manufacturer": "SIEMENS",
      "ManufacturerModelName": "TrioTim",
      "Modality": "MR",
      "NumberOfAverages": 1.0,
      "NumberOfPhaseEncodingSteps": 91,
      "PercentPhaseFieldOfView": 100.0,
      "PercentSampling": 100.0,
      "PerformedProcedureStepStartTime": "120023.203000",
      "PhotometricInterpretation": "MONOCHROME2",
      "PixelBandwidth": 1923.0,
      "PixelRepresentation": 0,
      "PixelSpacing": [2.0, 2.0],
      "ProtocolName": "cmrr_mbep2d_bold_2mm_MB8_Task_8x",
      "RepetitionTime": 785.0,
      "Rows": 936,
      "SAR": 0.14467457270026,
      "SamplesPerPixel": 1,
      "ScanOptions": [
        "PFP",
        "FS"
],
      "ScanningSequence": "EP",
      "SequenceName": "epfid2d1_104",
      "SequenceVariant": [
        "SK",
        "SS"
],
      "SeriesDescription": "cmrr_mbep2d_bold_2mm_MB8_Task_8x",
      "SeriesNumber": 15,
      "SeriesTime": "125409.812000",
      "SliceLocation": -90.52238552615,
      "SliceThickness": 2.0,
      "SmallestImagePixelValue": 0,
      "SoftwareVersions": "syngo MR B19",
      "SpacingBetweenSlices": 1.9999999936567,
      "SpecificCharacterSet": "ISO_IR 100",
      "StudyID": "1",
      "StudyTime": "120023.078000",
      "TransmitCoilName": "Body",
      "VariableFlipAngleFlag": "N",
      "WindowCenterWidthExplanation": "Algo1",
      "dBdt": 0.0},
    "slices": {}
  },
  "time": {
    "samples": {
      "AcquisitionNumber": [1, 2, 3, 4, 5, 6, 7, 8, 9, 10, 11, 12, 13, 14, 15, 16, 17, 18, 19, 20, 21, 22, 23, 24, 25, 26, 27, 28, 29, 30, 31, 32, 33, 34, 35, 36, 37, 38, 39, 40, 41, 42, 43, 44, 45, 46, 47, 48, 49, 50, 51, 52, 53, 54, 55, 56, 57, 58, 59, 60, 61, 62, 63, 64, 65, 66, 67, 68, 69, 70, 71, 72, 73, 74, 75, 76, 77, 78, 79, 80, 81, 82, 83, 84, 85, 86, 87, 88, 89, 90, 91, 92, 93, 94, 95, 96, 97, 98, 99, 100, 101, 102, 103, 104, 105, 106, 107, 108, 109, 110, 111, 112, 113, 114, 115, 116, 117, 118, 119, 120, 121, 122, 123, 124, 125, 126, 127, 128, 129, 130, 131, 132, 133, 134, 135, 136, 137, 138, 139, 140, 141, 142, 143, 144, 145, 146, 147, 148, 149, 150, 151, 152, 153, 154, 155, 156, 157, 158, 159, 160, 161, 162, 163, 164, 165, 166, 167, 168, 169, 170, 171, 172, 173, 174, 175, 176, 177, 178, 179, 180, 181, 182, 183, 184, 185, 186, 187, 188, 189, 190, 191, 192, 193, 194, 195, 196, 197, 198, 199, 200, 201, 202, 203, 204, 205, 206, 207, 208, 209, 210, 211, 212, 213, 214, 215, 216, 217, 218, 219, 220, 221, 222, 223, 224, 225, 226, 227, 228, 229, 230, 231, 232, 233, 234, 235, 236, 237, 238, 239, 240, 241, 242, 243, 244, 245, 246, 247, 248, 249, 250, 251, 252, 253, 254, 255, 256, 257, 258, 259, 260, 261, 262, 263, 264, 265, 266, 267, 268, 269, 270, 271, 272, 273, 274, 275, 276, 277, 278, 279, 280, 281, 282, 283, 284, 285, 286, 287, 288, 289, 290, 291, 292, 293, 294, 295, 296, 297, 298, 299, 300, 301, 302, 303, 304, 305, 306, 307, 308, 309, 310, 311, 312, 313, 314, 315, 316, 317, 318, 319, 320, 321, 322, 323, 324, 325, 326, 327, 328, 329, 330, 331, 332, 333, 334, 335, 336, 337, 338, 339, 340, 341, 342, 343, 344, 345, 346, 347, 348, 349, 350, 351, 352, 353, 354, 355, 356, 357, 358, 359, 360, 361, 362, 363, 364, 365, 366, 367, 368, 369, 370, 371, 372, 373, 374, 375, 376, 377, 378, 379, 380, 381, 382, 383, 384, 385, 386, 387, 388, 389, 390, 391, 392, 393, 394, 395, 396, 397, 398, 399, 400, 401, 402, 403, 404, 405, 406, 407, 408, 409, 410, 411, 412, 413, 414, 415, 416, 417, 418, 419, 420, 421, 422, 423, 424, 425, 426, 427, 428, 429, 430, 431, 432, 433, 434, 435, 436, 437, 438, 439, 440, 441, 442, 443, 444, 445, 446, 447, 448, 449, 450, 451, 452, 453, 454, 455, 456, 457, 458, 459, 460, 461, 462, 463, 464, 465, 466, 467, 468, 469, 470, 471, 472, 473, 474, 475, 476, 477, 478, 479, 480, 481, 482, 483, 484, 485, 486, 487, 488, 489, 490, 491, 492, 493, 494, 495, 496, 497, 498, 499, 500, 501, 502, 503, 504, 505, 506, 507, 508, 509, 510, 511, 512, 513, 514, 515, 516, 517, 518, 519, 520, 521, 522, 523, 524, 525, 526, 527, 528, 529, 530, 531, 532, 533, 534, 535, 536, 537, 538, 539, 540, 541, 542, 543, 544, 545, 546, 547, 548, 549, 550, 551, 552, 553, 554, 555, 556, 557, 558, 559, 560, 561, 562, 563, 564, 565, 566, 567, 568, 569, 570, 571, 572, 573, 574, 575, 576, 577, 578, 579, 580, 581],
      "AcquisitionTime": ["125333.682500", "125334.470000", "125335.257500", "125336.047500", "125336.835000", "125337.622500", "125338.410000", "125339.200000", "125339.987500", "125340.775000", "125341.562500", "125342.352500", "125343.140000", "125343.927500", "125344.715000", "125345.505000", "125346.292500", "125347.080000", "125347.870000", "125348.657500", "125349.445000", "125350.232500", "125351.022500", "125351.810000", "125352.597500", "125353.385000", "125354.175000", "125354.962500", "125355.750000", "125356.537500", "125357.327500", "125358.115000", "125358.902500", "125359.690000", "125400.480000", "125401.267500", "125402.055000", "125402.842500", "125403.632500", "125404.420000", "125405.207500", "125405.997500", "125406.785000", "125407.572500", "125408.360000", "125409.150000", "125409.937500", "125410.725000", "125411.512500", "125412.302500", "125413.090000", "125413.877500", "125414.665000", "125415.455000", "125416.242500", "125417.030000", "125417.817500", "125418.607500", "125419.395000", "125420.182500", "125420.970000", "125421.760000", "125422.547500", "125423.335000", "125424.125000", "125424.912500", "125425.700000", "125426.487500", "125427.277500", "125428.065000", "125428.852500", "125429.640000", "125430.430000", "125431.217500", "125432.005000", "125432.792500", "125433.582500", "125434.370000", "125435.157500", "125435.945000", "125436.735000", "125437.522500", "125438.310000", "125439.100000", "125439.887500", "125440.675000", "125441.462500", "125442.252500", "125443.040000", "125443.827500", "125444.615000", "125445.405000", "125446.192500", "125446.980000", "125447.767500", "125448.557500", "125449.345000", "125450.132500", "125450.920000", "125451.710000", "125452.497500", "125453.285000", "125454.072500", "125454.862500", "125455.650000", "125456.437500", "125457.227500", "125458.015000", "125458.802500", "125459.590000", "125500.380000", "125501.167500", "125501.955000", "125502.742500", "125503.532500", "125504.320000", "125505.107500", "125505.895000", "125506.685000", "125507.472500", "125508.260000", "125509.047500", "125509.837500", "125510.625000", "125511.412500", "125512.200000", "125512.990000", "125513.777500", "125514.565000", "125515.355000", "125516.142500", "125516.930000", "125517.717500", "125518.507500", "125519.295000", "125520.082500", "125520.870000", "125521.660000", "125522.447500", "125523.235000", "125524.022500", "125524.812500", "125525.600000", "125526.387500", "125527.175000", "125527.965000", "125528.752500", "125529.540000", "125530.327500", "125531.117500", "125531.905000", "125532.692500", "125533.482500", "125534.270000", "125535.057500", "125535.845000", "125536.635000", "125537.422500", "125538.210000", "125538.997500", "125539.787500", "125540.575000", "125541.362500", "125542.150000", "125542.940000", "125543.727500", "125544.515000", "125545.302500", "125546.092500", "125546.880000", "125547.667500", "125548.455000", "125549.245000", "125550.032500", "125550.820000", "125551.610000", "125552.397500", "125553.185000", "125553.972500", "125554.762500", "125555.550000", "125556.337500", "125557.125000", "125557.915000", "125558.702500", "125559.490000", "125600.277500", "125601.067500", "125601.855000", "125602.642500", "125603.430000", "125604.220000", "125605.007500", "125605.795000", "125606.582500", "125607.372500", "125608.160000", "125608.947500", "125609.737500", "125610.525000", "125611.312500", "125612.100000", "125612.890000", "125613.677500", "125614.465000", "125615.252500", "125616.042500", "125616.830000", "125617.617500", "125618.405000", "125619.195000", "125619.982500", "125620.770000", "125621.557500", "125622.347500", "125623.135000", "125623.922500", "125624.710000", "125625.500000", "125626.287500", "125627.075000", "125627.865000", "125628.652500", "125629.440000", "125630.227500", "125631.017500", "125631.805000", "125632.592500", "125633.380000", "125634.170000", "125634.957500", "125635.745000", "125636.532500", "125637.322500", "125638.110000", "125638.897500", "125639.685000", "125640.475000", "125641.262500", "125642.050000", "125642.837500", "125643.627500", "125644.415000", "125645.202500", "125645.992500", "125646.780000", "125647.567500", "125648.355000", "125649.145000", "125649.932500", "125650.720000", "125651.507500", "125652.297500", "125653.085000", "125653.872500", "125654.660000", "125655.450000", "125656.237500", "125657.025000", "125657.812500", "125658.602500", "125659.390000", "125700.177500", "125700.965000", "125701.755000", "125702.542500", "125703.330000", "125704.120000", "125704.907500", "125705.695000", "125706.482500", "125707.272500", "125708.060000", "125708.847500", "125709.635000", "125710.425000", "125711.212500", "125712.000000", "125712.787500", "125713.577500", "125714.365000", "125715.152500", "125715.940000", "125716.730000", "125717.517500", "125718.305000", "125719.092500", "125719.882500", "125720.670000", "125721.457500", "125722.247500", "125723.035000", "125723.822500", "125724.610000", "125725.400000", "125726.187500", "125726.975000", "125727.762500", "125728.552500", "125729.340000", "125730.127500", "125730.915000", "125731.705000", "125732.492500", "125733.280000", "125734.067500", "125734.857500", "125735.645000", "125736.432500", "125737.220000", "125738.010000", "125738.797500", "125739.585000", "125740.375000", "125741.162500", "125741.950000", "125742.737500", "125743.527500", "125744.315000", "125745.102500", "125745.890000", "125746.680000", "125747.467500", "125748.255000", "125749.042500", "125749.832500", "125750.620000", "125751.407500", "125752.195000", "125752.985000", "125753.772500", "125754.560000", "125755.350000", "125756.137500", "125756.925000", "125757.712500", "125758.502500", "125759.290000", "125800.077500", "125800.865000", "125801.655000", "125802.442500", "125803.230000", "125804.017500", "125804.807500", "125805.595000", "125806.382500", "125807.170000", "125807.960000", "125808.747500", "125809.535000", "125810.322500", "125811.112500", "125811.900000", "125812.687500", "125813.477500", "125814.265000", "125815.052500", "125815.840000", "125816.630000", "125817.417500", "125818.205000", "125818.992500", "125819.782500", "125820.570000", "125821.357500", "125822.145000", "125822.935000", "125823.722500", "125824.510000", "125825.297500", "125826.087500", "125826.875000", "125827.662500", "125828.450000", "125829.240000", "125830.027500", "125830.815000", "125831.605000", "125832.392500", "125833.180000", "125833.967500", "125834.757500", "125835.545000", "125836.332500", "125837.120000", "125837.910000", "125838.697500", "125839.485000", "125840.272500", "125841.062500", "125841.850000", "125842.637500", "125843.425000", "125844.215000", "125845.002500", "125845.790000", "125846.577500", "125847.367500", "125848.155000", "125848.942500", "125849.732500", "125850.520000", "125851.307500", "125852.095000", "125852.885000", "125853.672500", "125854.460000", "125855.247500", "125856.037500", "125856.825000", "125857.612500", "125858.400000", "125859.190000", "125859.977500", "125900.765000", "125901.552500", "125902.342500", "125903.130000", "125903.917500", "125904.705000", "125905.495000", "125906.282500", "125907.070000", "125907.860000", "125908.647500", "125909.435000", "125910.222500", "125911.012500", "125911.800000", "125912.587500", "125913.375000", "125914.165000", "125914.952500", "125915.740000", "125916.527500", "125917.317500", "125918.105000", "125918.892500", "125919.680000", "125920.470000", "125921.257500", "125922.045000", "125922.832500", "125923.622500", "125924.410000", "125925.197500", "125925.987500", "125926.775000", "125927.562500", "125928.350000", "125929.140000", "125929.927500", "125930.715000", "125931.502500", "125932.292500", "125933.080000", "125933.867500", "125934.655000", "125935.445000", "125936.232500", "125937.020000", "125937.807500", "125938.597500", "125939.385000", "125940.172500", "125940.960000", "125941.750000", "125942.537500", "125943.325000", "125944.115000", "125944.902500", "125945.690000", "125946.477500", "125947.267500", "125948.055000", "125948.842500", "125949.630000", "125950.420000", "125951.207500", "125951.995000", "125952.782500", "125953.572500", "125954.360000", "125955.147500", "125955.935000", "125956.725000", "125957.512500", "125958.300000", "125959.087500", "125959.877500", "130000.665000", "130001.452500", "130002.242500", "130003.030000", "130003.817500", "130004.605000", "130005.395000", "130006.182500", "130006.970000", "130007.757500", "130008.547500", "130009.335000", "130010.122500", "130010.910000", "130011.700000", "130012.487500", "130013.275000", "130014.062500", "130014.852500", "130015.640000", "130016.427500", "130017.215000", "130018.005000", "130018.792500", "130019.580000", "130020.370000", "130021.157500", "130021.945000", "130022.732500", "130023.522500", "130024.310000", "130025.097500", "130025.885000", "130026.675000", "130027.462500", "130028.250000", "130029.037500", "130029.827500", "130030.615000", "130031.402500", "130032.190000", "130032.980000", "130033.767500", "130034.555000", "130035.342500", "130036.132500", "130036.920000", "130037.707500", "130038.497500", "130039.285000", "130040.072500", "130040.860000", "130041.650000", "130042.437500", "130043.225000", "130044.012500", "130044.802500", "130045.590000", "130046.377500", "130047.165000", "130047.955000", "130048.742500", "130049.530000", "130050.317500", "130051.107500", "130051.895000", "130052.682500", "130053.470000", "130054.260000", "130055.047500", "130055.835000", "130056.625000", "130057.412500", "130058.200000", "130058.987500", "130059.777500", "130100.565000", "130101.352500", "130102.140000", "130102.930000", "130103.717500", "130104.505000", "130105.292500", "130106.082500", "130106.870000", "130107.657500", "130108.445000", "130109.235000", "130110.022500", "130110.810000"],
      "ContentTime": ["125409.812000", "125409.812000", "125409.812000", "125409.812000", "125409.812000", "125409.828000", "125409.828000", "125409.828000", "125409.828000", "125409.828000", "125409.843000", "125409.843000", "125409.843000", "125409.843000", "125409.843000", "125409.843000", "125409.843000", "125409.859000", "125409.859000", "125409.859000", "125409.859000", "125409.859000", "125409.875000", "125409.875000", "125409.875000", "125409.875000", "125409.875000", "125409.875000", "125409.875000", "125409.890000", "125409.890000", "125409.890000", "125409.890000", "125409.890000", "125409.890000", "125409.890000", "125409.906000", "125409.906000", "125409.906000", "125409.906000", "125409.906000", "125409.906000", "125409.906000", "125429.781000", "125429.781000", "125429.781000", "125429.781000", "125429.781000", "125429.796000", "125429.796000", "125429.796000", "125429.796000", "125429.796000", "125429.796000", "125429.812000", "125429.828000", "125429.828000", "125429.828000", "125429.828000", "125429.828000", "125429.828000", "125429.828000", "125429.843000", "125429.843000", "125429.843000", "125429.843000", "125429.843000", "125429.843000", "125449.781000", "125449.781000", "125449.781000", "125449.781000", "125449.781000", "125449.781000", "125449.796000", "125449.796000", "125449.796000", "125449.796000", "125449.796000", "125449.796000", "125449.812000", "125449.812000", "125449.812000", "125449.812000", "125449.812000", "125449.812000", "125449.812000", "125449.828000", "125449.828000", "125449.828000", "125449.828000", "125449.828000", "125449.828000", "125449.828000", "125509.781000", "125509.781000", "125509.781000", "125509.781000", "125509.781000", "125509.796000", "125509.796000", "125509.796000", "125509.796000", "125509.796000", "125509.796000", "125509.796000", "125509.812000", "125509.812000", "125509.812000", "125509.812000", "125509.812000", "125509.828000", "125509.828000", "125509.828000", "125509.828000", "125509.828000", "125509.828000", "125509.843000", "125509.843000", "125529.781000", "125529.781000", "125529.781000", "125529.781000", "125529.781000", "125529.781000", "125529.796000", "125529.796000", "125529.796000", "125529.796000", "125529.796000", "125529.796000", "125529.796000", "125529.812000", "125529.812000", "125529.812000", "125529.812000", "125529.812000", "125529.812000", "125529.812000", "125529.828000", "125529.828000", "125529.828000", "125529.828000", "125529.828000", "125529.843000", "125549.781000", "125549.781000", "125549.781000", "125549.781000", "125549.781000", "125549.796000", "125549.796000", "125549.796000", "125549.796000", "125549.796000", "125549.796000", "125549.796000", "125549.812000", "125549.812000", "125549.812000", "125549.812000", "125549.812000", "125549.812000", "125549.828000", "125549.828000", "125549.828000", "125549.828000", "125549.828000", "125549.828000", "125549.828000", "125609.781000", "125609.781000", "125609.781000", "125609.781000", "125609.781000", "125609.781000", "125609.796000", "125609.796000", "125609.796000", "125609.796000", "125609.796000", "125609.796000", "125609.796000", "125609.812000", "125609.812000", "125609.812000", "125609.812000", "125609.812000", "125609.812000", "125609.812000", "125609.828000", "125609.828000", "125609.828000", "125609.828000", "125609.828000", "125609.828000", "125629.781000", "125629.781000", "125629.781000", "125629.781000", "125629.781000", "125629.796000", "125629.796000", "125629.796000", "125629.796000", "125629.812000", "125629.812000", "125629.812000", "125629.812000", "125629.812000", "125629.812000", "125629.812000", "125629.828000", "125629.828000", "125629.828000", "125629.828000", "125629.828000", "125629.828000", "125629.828000", "125629.843000", "125629.843000", "125649.781000", "125649.781000", "125649.781000", "125649.781000", "125649.781000", "125649.781000", "125649.796000", "125649.796000", "125649.796000", "125649.796000", "125649.796000", "125649.796000", "125649.796000", "125649.812000", "125649.812000", "125649.812000", "125649.812000", "125649.812000", "125649.812000", "125649.812000", "125649.828000", "125649.828000", "125649.828000", "125649.828000", "125649.828000", "125649.828000", "125709.781000", "125709.781000", "125709.781000", "125709.781000", "125709.781000", "125709.781000", "125709.796000", "125709.796000", "125709.796000", "125709.796000", "125709.796000", "125709.796000", "125709.812000", "125709.812000", "125709.812000", "125709.812000", "125709.812000", "125709.812000", "125709.812000", "125709.828000", "125709.828000", "125709.828000", "125709.828000", "125709.843000", "125709.843000", "125729.781000", "125729.781000", "125729.781000", "125729.781000", "125729.781000", "125729.781000", "125729.796000", "125729.796000", "125729.796000", "125729.796000", "125729.796000", "125729.796000", "125729.796000", "125729.812000", "125729.812000", "125729.812000", "125729.812000", "125729.812000", "125729.812000", "125729.828000", "125729.828000", "125729.828000", "125729.828000", "125729.828000", "125729.828000", "125729.828000", "125749.781000", "125749.781000", "125749.781000", "125749.781000", "125749.781000", "125749.781000", "125749.796000", "125749.796000", "125749.796000", "125749.796000", "125749.796000", "125749.796000", "125749.812000", "125749.812000", "125749.812000", "125749.812000", "125749.812000", "125749.812000", "125749.812000", "125749.828000", "125749.828000", "125749.828000", "125749.828000", "125749.828000", "125749.828000", "125809.781000", "125809.781000", "125809.781000", "125809.781000", "125809.781000", "125809.781000", "125809.796000", "125809.796000", "125809.796000", "125809.796000", "125809.796000", "125809.796000", "125809.796000", "125809.812000", "125809.812000", "125809.812000", "125809.812000", "125809.812000", "125809.828000", "125809.828000", "125809.828000", "125809.828000", "125809.828000", "125809.828000", "125809.828000", "125809.843000", "125829.781000", "125829.781000", "125829.781000", "125829.781000", "125829.781000", "125829.796000", "125829.796000", "125829.796000", "125829.796000", "125829.796000", "125829.796000", "125829.796000", "125829.812000", "125829.812000", "125829.812000", "125829.812000", "125829.812000", "125829.812000", "125829.828000", "125829.828000", "125829.828000", "125829.828000", "125829.843000", "125829.843000", "125829.843000", "125849.781000", "125849.781000", "125849.781000", "125849.781000", "125849.781000", "125849.781000", "125849.796000", "125849.796000", "125849.796000", "125849.796000", "125849.796000", "125849.796000", "125849.796000", "125849.812000", "125849.812000", "125849.812000", "125849.812000", "125849.812000", "125849.828000", "125849.828000", "125849.828000", "125849.828000", "125849.828000", "125849.828000", "125849.828000", "125849.843000", "125909.781000", "125909.781000", "125909.781000", "125909.781000", "125909.781000", "125909.781000", "125909.796000", "125909.796000", "125909.796000", "125909.796000", "125909.796000", "125909.796000", "125909.812000", "125909.812000", "125909.812000", "125909.812000", "125909.812000", "125909.812000", "125909.812000", "125909.828000", "125909.828000", "125909.828000", "125909.828000", "125909.828000", "125909.828000", "125929.781000", "125929.781000", "125929.781000", "125929.781000", "125929.781000", "125929.781000", "125929.796000", "125929.796000", "125929.796000", "125929.796000", "125929.796000", "125929.796000", "125929.796000", "125929.812000", "125929.812000", "125929.812000", "125929.812000", "125929.812000", "125929.812000", "125929.828000", "125929.828000", "125929.828000", "125929.828000", "125929.828000", "125929.828000", "125929.828000", "125949.781000", "125949.781000", "125949.781000", "125949.781000", "125949.781000", "125949.781000", "125949.796000", "125949.796000", "125949.796000", "125949.796000", "125949.796000", "125949.796000", "125949.812000", "125949.812000", "125949.812000", "125949.812000", "125949.812000", "125949.812000", "125949.828000", "125949.828000", "125949.828000", "125949.828000", "125949.828000", "125949.828000", "125949.828000", "130009.781000", "130009.781000", "130009.781000", "130009.781000", "130009.781000", "130009.781000", "130009.796000", "130009.796000", "130009.796000", "130009.796000", "130009.796000", "130009.796000", "130009.796000", "130009.812000", "130009.812000", "130009.812000", "130009.812000", "130009.812000", "130009.812000", "130009.828000", "130009.828000", "130009.828000", "130009.828000", "130009.828000", "130009.828000", "130009.828000", "130029.781000", "130029.781000", "130029.781000", "130029.781000", "130029.781000", "130029.796000", "130029.796000", "130029.796000", "130029.796000", "130029.796000", "130029.796000", "130029.796000", "130029.812000", "130029.812000", "130029.812000", "130029.812000", "130029.812000", "130029.812000", "130029.812000", "130029.828000", "130029.828000", "130029.828000", "130029.828000", "130029.843000", "130029.843000", "130049.781000", "130049.781000", "130049.781000", "130049.781000", "130049.781000", "130049.781000", "130049.796000", "130049.796000", "130049.796000", "130049.796000", "130049.796000", "130049.796000", "130049.796000", "130049.812000", "130049.812000", "130049.812000", "130049.812000", "130049.812000", "130049.812000", "130049.828000", "130049.828000", "130049.828000", "130049.828000", "130049.828000", "130049.828000", "130049.828000", "130109.781000", "130109.781000", "130109.781000", "130109.781000", "130109.781000", "130109.781000", "130109.796000", "130109.796000", "130109.796000", "130109.796000", "130109.796000", "130109.796000", "130109.812000", "130109.812000", "130109.812000", "130109.812000", "130109.812000", "130109.812000", "130109.812000", "130109.828000", "130109.828000", "130109.828000", "130109.828000", "130109.828000", "130109.828000", "130111.781000", "130111.781000", "130111.781000"],
      "DataSetTrailingPadding": [
        "\u0000\u0000\u0000\u0000\u0000\u0000\u0000\u0000\u0000\u0000\u0000\u0000\u0000\u0000\u0000\u0000\u0000\u0000\u0000\u0000\u0000\u0000\u0000\u0000\u0000\u0000\u0000\u0000\u0000\u0000\u0000\u0000\u0000\u0000\u0000\u0000\u0000\u0000\u0000\u0000\u0000\u0000\u0000\u0000\u0000\u0000\u0000\u0000\u0000\u0000\u0000\u0000\u0000\u0000\u0000\u0000\u0000\u0000\u0000\u0000\u0000\u0000\u0000\u0000\u0000\u0000\u0000\u0000\u0000\u0000\u0000\u0000\u0000\u0000\u0000\u0000\u0000\u0000\u0000\u0000\u0000\u0000\u0000\u0000\u0000\u0000\u0000\u0000\u0000\u0000\u0000\u0000\u0000\u0000\u0000\u0000\u0000\u0000\u0000\u0000\u0000\u0000\u0000\u0000\u0000\u0000\u0000\u0000\u0000\u0000\u0000\u0000\u0000\u0000\u0000\u0000\u0000\u0000\u0000\u0000\u0000\u0000\u0000\u0000\u0000\u0000\u0000\u0000\u0000\u0000\u0000\u0000\u0000\u0000\u0000\u0000\u0000\u0000\u0000\u0000\u0000\u0000\u0000\u0000\u0000\u0000\u0000\u0000\u0000\u0000",
        "\u0000\u0000\u0000\u0000\u0000\u0000\u0000\u0000\u0000\u0000\u0000\u0000\u0000\u0000\u0000\u0000\u0000\u0000\u0000\u0000\u0000\u0000\u0000\u0000\u0000\u0000\u0000\u0000\u0000\u0000\u0000\u0000\u0000\u0000\u0000\u0000\u0000\u0000\u0000\u0000\u0000\u0000\u0000\u0000\u0000\u0000\u0000\u0000\u0000\u0000\u0000\u0000\u0000\u0000\u0000\u0000\u0000\u0000\u0000\u0000\u0000\u0000\u0000\u0000\u0000\u0000\u0000\u0000\u0000\u0000\u0000\u0000\u0000\u0000\u0000\u0000\u0000\u0000\u0000\u0000\u0000\u0000\u0000\u0000\u0000\u0000\u0000\u0000\u0000\u0000\u0000\u0000\u0000\u0000\u0000\u0000\u0000\u0000\u0000\u0000\u0000\u0000\u0000\u0000\u0000\u0000\u0000\u0000\u0000\u0000\u0000\u0000\u0000\u0000\u0000\u0000\u0000\u0000\u0000\u0000\u0000\u0000\u0000\u0000\u0000\u0000\u0000\u0000\u0000\u0000\u0000\u0000\u0000\u0000\u0000\u0000\u0000\u0000\u0000\u0000\u0000\u0000\u0000\u0000\u0000\u0000\u0000\u0000\u0000\u0000",
