{
  "AcquisitionMatrixPE": 104,
  "AcquisitionNumber": 1,
  "AcquisitionTime": "13:19:34.740000",
  "BandwidthPerPixelPhaseEncode": 13.935,
  "BaseResolution": 104,
  "CoilString": "C:HEA;HEP",
  "ConversionSoftware": "dcm2niix",
  "ConversionSoftwareVersion": "v1.0.20210317",
  "DerivedVendorReportedEchoSpacing": 0.000690017,
  "DeviceSerialNumber": "35450",
  "DwellTime": 2.5e-06,
  "EchoTime": 0.0348,
  "EffectiveEchoSpacing": 0.000690017,
  "FlipAngle": 55,
  "ImageComments": "Unaliased MB8/PE3 (remote)",
  "ImageOrientationPatientDICOM": [1, 0, 0, 0, 0.999701, -0.0244322],
  "ImageType": [
    "ORIGINAL",
    "PRIMARY",
    "M",
    "MB",
    "ND",
    "MOSAIC"
],
  "ImagingFrequency": 123.234,
  "InPlanePhaseEncodingDirectionDICOM": "COL",
  "InstitutionAddress": "Univeristy Ave. 197,Newark,North East,US,07102-1814",
  "InstitutionName": "RUBIC",
  "InstitutionalDepartmentName": "Department",
  "MRAcquisitionType": "2D",
  "MagneticFieldStrength": 3,
  "Manufacturer": "Siemens",
  "ManufacturersModelName": "TrioTim",
  "Modality": "MR",
  "MultibandAccelerationFactor": 8,
  "PartialFourier": 0.875,
  "PatientPosition": "HFS",
  "PercentPhaseFOV": 100,
  "PercentSampling": 100,
  "PhaseEncodingDirection": "j-",
  "PhaseEncodingSteps": 91,
  "PhaseResolution": 1,
  "PixelBandwidth": 1923,
  "ProcedureStepDescription": "Cole^Michael",
  "ProtocolName": "cmrr_mbep2d_bold_2mm_MB8_Task_8x",
  "PulseSequenceDetails": "%CustomerSeq%\\cmrr_mbep2d_bold",
  "ReceiveCoilName": "32Ch_Head",
  "ReconMatrixPE": 104,
  "RepetitionTime": 0.785,
  "SAR": 0.144675,
  "ScanOptions": "PFP\\FS",
  "ScanningSequence": "EP",
  "SequenceName": "epfid2d1_104",
  "SequenceVariant": "SK\\SS",
  "SeriesDescription": "cmrr_mbep2d_bold_2mm_MB8_Task_8x",
  "SeriesNumber": 21,
  "ShimSetting": [2129, -488, -7255, 449, 26, -445, 44, 3],
  "SliceThickness": 2,
  "SliceTiming": [0, 0.4375, 0.0875, 0.525, 0.175, 0.6125, 0.2625, 0.7, 0.35, 0, 0.4375, 0.0875, 0.525, 0.175, 0.6125, 0.2625, 0.7, 0.35, 0, 0.4375, 0.0875, 0.525, 0.175, 0.6125, 0.2625, 0.7, 0.35, 0, 0.4375, 0.0875, 0.525, 0.175, 0.6125, 0.2625, 0.7, 0.35, 0, 0.4375, 0.0875, 0.525, 0.175, 0.6125, 0.2625, 0.7, 0.35, 0, 0.4375, 0.0875, 0.525, 0.175, 0.6125, 0.2625, 0.7, 0.35, 0, 0.4375, 0.0875, 0.525, 0.175, 0.6125, 0.2625, 0.7, 0.35, 0, 0.4375, 0.0875, 0.525, 0.175, 0.6125, 0.2625, 0.7, 0.35],
  "SoftwareVersions": "syngo MR B19",
  "SpacingBetweenSlices": 2,
  "StationName": "MRC35450",
  "TaskName": "cpro",
  "TotalReadoutTime": 0.0710717,
  "TxRefAmp": 342.655,
  "dcmmeta_affine": [
    [-2.0, 0.0, 0.0, 106.03389739990234],
    [0.0, 1.9994029998779297, -0.04886435344815254, -84.52958679199219],
    [0.0, 0.04886435344815254, 1.9994029998779297, -92.61527252197266],
    [0.0, 0.0, 0.0, 1.0]
],
  "dcmmeta_reorient_transform": [
    [0.0, -1.0, 0.0, 103.0],
    [1.0, 0.0, 0.0, 0.0],
    [0.0, 0.0, 1.0, 0.0],
    [0.0, 0.0, 0.0, 1.0]
],
  "dcmmeta_shape": [104, 104, 72, 581],
  "dcmmeta_slice_dim": 2,
  "dcmmeta_version": 0.6,
  "global": {
    "const": {
      "AcquisitionMatrix": [104, 0, 0, 104],
      "AngioFlag": "N",
      "BitsAllocated": 16,
      "BitsStored": 12,
      "Columns": 936,
      "EchoNumbers": 1,
      "EchoTime": 34.8,
      "EchoTrainLength": 1,
      "FlipAngle": 55.0,
      "HighBit": 11,
      "ImageOrientationPatient": [1.0, 0.0, 0.0, 0.0, 0.99970148981559, -0.0244321767449],
      "ImagePositionPatient": [-938.03389835358, -953.16056257652, -67.254674400279],
      "ImageType": [
        "ORIGINAL",
        "PRIMARY",
        "M",
        "MB",
        "ND",
        "MOSAIC"
],
      "ImagedNucleus": "1H",
      "ImagingFrequency": 123.234436,
      "InPlanePhaseEncodingDirection": "COL",
      "MRAcquisitionType": "2D",
      "MagneticFieldStrength": 3.0,
      "Manufacturer": "SIEMENS",
      "ManufacturerModelName": "TrioTim",
      "Modality": "MR",
      "NumberOfAverages": 1.0,
      "NumberOfPhaseEncodingSteps": 91,
      "PercentPhaseFieldOfView": 100.0,
      "PercentSampling": 100.0,
      "PerformedProcedureStepStartTime": "120023.203000",
      "PhotometricInterpretation": "MONOCHROME2",
      "PixelBandwidth": 1923.0,
      "PixelRepresentation": 0,
      "PixelSpacing": [2.0, 2.0],
      "ProtocolName": "cmrr_mbep2d_bold_2mm_MB8_Task_8x",
      "RepetitionTime": 785.0,
      "Rows": 936,
      "SAR": 0.14467457270026,
      "SamplesPerPixel": 1,
      "ScanOptions": [
        "PFP",
        "FS"
],
      "ScanningSequence": "EP",
      "SequenceName": "epfid2d1_104",
      "SequenceVariant": [
        "SK",
        "SS"
],
      "SeriesDescription": "cmrr_mbep2d_bold_2mm_MB8_Task_8x",
      "SeriesNumber": 21,
      "SeriesTime": "132009.812000",
      "SliceLocation": -90.52238552615,
      "SliceThickness": 2.0,
      "SmallestImagePixelValue": 0,
      "SoftwareVersions": "syngo MR B19",
      "SpacingBetweenSlices": 1.9999999936567,
      "SpecificCharacterSet": "ISO_IR 100",
      "StudyID": "1",
      "StudyTime": "120023.078000",
      "TransmitCoilName": "Body",
      "VariableFlipAngleFlag": "N",
      "WindowCenterWidthExplanation": "Algo1",
      "dBdt": 0.0},
    "slices": {}
  },
  "time": {
    "samples": {
      "AcquisitionNumber": [1, 2, 3, 4, 5, 6, 7, 8, 9, 10, 11, 12, 13, 14, 15, 16, 17, 18, 19, 20, 21, 22, 23, 24, 25, 26, 27, 28, 29, 30, 31, 32, 33, 34, 35, 36, 37, 38, 39, 40, 41, 42, 43, 44, 45, 46, 47, 48, 49, 50, 51, 52, 53, 54, 55, 56, 57, 58, 59, 60, 61, 62, 63, 64, 65, 66, 67, 68, 69, 70, 71, 72, 73, 74, 75, 76, 77, 78, 79, 80, 81, 82, 83, 84, 85, 86, 87, 88, 89, 90, 91, 92, 93, 94, 95, 96, 97, 98, 99, 100, 101, 102, 103, 104, 105, 106, 107, 108, 109, 110, 111, 112, 113, 114, 115, 116, 117, 118, 119, 120, 121, 122, 123, 124, 125, 126, 127, 128, 129, 130, 131, 132, 133, 134, 135, 136, 137, 138, 139, 140, 141, 142, 143, 144, 145, 146, 147, 148, 149, 150, 151, 152, 153, 154, 155, 156, 157, 158, 159, 160, 161, 162, 163, 164, 165, 166, 167, 168, 169, 170, 171, 172, 173, 174, 175, 176, 177, 178, 179, 180, 181, 182, 183, 184, 185, 186, 187, 188, 189, 190, 191, 192, 193, 194, 195, 196, 197, 198, 199, 200, 201, 202, 203, 204, 205, 206, 207, 208, 209, 210, 211, 212, 213, 214, 215, 216, 217, 218, 219, 220, 221, 222, 223, 224, 225, 226, 227, 228, 229, 230, 231, 232, 233, 234, 235, 236, 237, 238, 239, 240, 241, 242, 243, 244, 245, 246, 247, 248, 249, 250, 251, 252, 253, 254, 255, 256, 257, 258, 259, 260, 261, 262, 263, 264, 265, 266, 267, 268, 269, 270, 271, 272, 273, 274, 275, 276, 277, 278, 279, 280, 281, 282, 283, 284, 285, 286, 287, 288, 289, 290, 291, 292, 293, 294, 295, 296, 297, 298, 299, 300, 301, 302, 303, 304, 305, 306, 307, 308, 309, 310, 311, 312, 313, 314, 315, 316, 317, 318, 319, 320, 321, 322, 323, 324, 325, 326, 327, 328, 329, 330, 331, 332, 333, 334, 335, 336, 337, 338, 339, 340, 341, 342, 343, 344, 345, 346, 347, 348, 349, 350, 351, 352, 353, 354, 355, 356, 357, 358, 359, 360, 361, 362, 363, 364, 365, 366, 367, 368, 369, 370, 371, 372, 373, 374, 375, 376, 377, 378, 379, 380, 381, 382, 383, 384, 385, 386, 387, 388, 389, 390, 391, 392, 393, 394, 395, 396, 397, 398, 399, 400, 401, 402, 403, 404, 405, 406, 407, 408, 409, 410, 411, 412, 413, 414, 415, 416, 417, 418, 419, 420, 421, 422, 423, 424, 425, 426, 427, 428, 429, 430, 431, 432, 433, 434, 435, 436, 437, 438, 439, 440, 441, 442, 443, 444, 445, 446, 447, 448, 449, 450, 451, 452, 453, 454, 455, 456, 457, 458, 459, 460, 461, 462, 463, 464, 465, 466, 467, 468, 469, 470, 471, 472, 473, 474, 475, 476, 477, 478, 479, 480, 481, 482, 483, 484, 485, 486, 487, 488, 489, 490, 491, 492, 493, 494, 495, 496, 497, 498, 499, 500, 501, 502, 503, 504, 505, 506, 507, 508, 509, 510, 511, 512, 513, 514, 515, 516, 517, 518, 519, 520, 521, 522, 523, 524, 525, 526, 527, 528, 529, 530, 531, 532, 533, 534, 535, 536, 537, 538, 539, 540, 541, 542, 543, 544, 545, 546, 547, 548, 549, 550, 551, 552, 553, 554, 555, 556, 557, 558, 559, 560, 561, 562, 563, 564, 565, 566, 567, 568, 569, 570, 571, 572, 573, 574, 575, 576, 577, 578, 579, 580, 581],
      "AcquisitionTime": ["131934.740000", "131935.527500", "131936.315000", "131937.105000", "131937.892500", "131938.680000", "131939.467500", "131940.257500", "131941.045000", "131941.832500", "131942.620000", "131943.410000", "131944.197500", "131944.985000", "131945.775000", "131946.562500", "131947.350000", "131948.137500", "131948.927500", "131949.715000", "131950.502500", "131951.290000", "131952.080000", "131952.867500", "131953.655000", "131954.442500", "131955.232500", "131956.020000", "131956.807500", "131957.595000", "131958.385000", "131959.172500", "131959.960000", "132000.747500", "132001.537500", "132002.325000", "132003.112500", "132003.902500", "132004.690000", "132005.477500", "132006.265000", "132007.055000", "132007.842500", "132008.630000", "132009.417500", "132010.207500", "132010.995000", "132011.782500", "132012.570000", "132013.360000", "132014.147500", "132014.935000", "132015.722500", "132016.512500", "132017.300000", "132018.087500", "132018.875000", "132019.665000", "132020.452500", "132021.240000", "132022.030000", "132022.817500", "132023.605000", "132024.392500", "132025.182500", "132025.970000", "132026.757500", "132027.545000", "132028.335000", "132029.122500", "132029.910000", "132030.697500", "132031.487500", "132032.275000", "132033.062500", "132033.850000", "132034.640000", "132035.427500", "132036.215000", "132037.002500", "132037.792500", "132038.580000", "132039.367500", "132040.157500", "132040.945000", "132041.732500", "132042.520000", "132043.310000", "132044.097500", "132044.885000", "132045.672500", "132046.462500", "132047.250000", "132048.037500", "132048.825000", "132049.615000", "132050.402500", "132051.190000", "132051.977500", "132052.767500", "132053.555000", "132054.342500", "132055.130000", "132055.920000", "132056.707500", "132057.495000", "132058.285000", "132059.072500", "132059.860000", "132100.647500", "132101.437500", "132102.225000", "132103.012500", "132103.800000", "132104.590000", "132105.377500", "132106.165000", "132106.952500", "132107.742500", "132108.530000", "132109.317500", "132110.105000", "132110.895000", "132111.682500", "132112.470000", "132113.257500", "132114.047500", "132114.835000", "132115.622500", "132116.412500", "132117.200000", "132117.987500", "132118.775000", "132119.565000", "132120.352500", "132121.140000", "132121.927500", "132122.717500", "132123.505000", "132124.292500", "132125.080000", "132125.870000", "132126.657500", "132127.445000", "132128.232500", "132129.022500", "132129.810000", "132130.597500", "132131.385000", "132132.175000", "132132.962500", "132133.750000", "132134.540000", "132135.327500", "132136.115000", "132136.902500", "132137.692500", "132138.480000", "132139.267500", "132140.055000", "132140.845000", "132141.632500", "132142.420000", "132143.207500", "132143.997500", "132144.785000", "132145.572500", "132146.360000", "132147.150000", "132147.937500", "132148.725000", "132149.512500", "132150.302500", "132151.090000", "132151.877500", "132152.667500", "132153.455000", "132154.242500", "132155.030000", "132155.820000", "132156.607500", "132157.395000", "132158.182500", "132158.972500", "132159.760000", "132200.547500", "132201.335000", "132202.125000", "132202.912500", "132203.700000", "132204.487500", "132205.277500", "132206.065000", "132206.852500", "132207.640000", "132208.430000", "132209.217500", "132210.005000", "132210.795000", "132211.582500", "132212.370000", "132213.157500", "132213.947500", "132214.735000", "132215.522500", "132216.310000", "132217.100000", "132217.887500", "132218.675000", "132219.462500", "132220.252500", "132221.040000", "132221.827500", "132222.615000", "132223.405000", "132224.192500", "132224.980000", "132225.770000", "132226.557500", "132227.345000", "132228.132500", "132228.922500", "132229.710000", "132230.497500", "132231.285000", "132232.075000", "132232.862500", "132233.650000", "132234.437500", "132235.227500", "132236.015000", "132236.802500", "132237.590000", "132238.380000", "132239.167500", "132239.955000", "132240.742500", "132241.532500", "132242.320000", "132243.107500", "132243.897500", "132244.685000", "132245.472500", "132246.260000", "132247.050000", "132247.837500", "132248.625000", "132249.412500", "132250.202500", "132250.990000", "132251.777500", "132252.565000", "132253.355000", "132254.142500", "132254.930000", "132255.717500", "132256.507500", "132257.295000", "132258.082500", "132258.870000", "132259.660000", "132300.447500", "132301.235000", "132302.025000", "132302.812500", "132303.600000", "132304.387500", "132305.177500", "132305.965000", "132306.752500", "132307.540000", "132308.330000", "132309.117500", "132309.905000", "132310.692500", "132311.482500", "132312.270000", "132313.057500", "132313.845000", "132314.635000", "132315.422500", "132316.210000", "132316.997500", "132317.787500", "132318.575000", "132319.362500", "132320.152500", "132320.940000", "132321.727500", "132322.515000", "132323.305000", "132324.092500", "132324.880000", "132325.667500", "132326.457500", "132327.245000", "132328.032500", "132328.820000", "132329.610000", "132330.397500", "132331.185000", "132331.972500", "132332.762500", "132333.550000", "132334.337500", "132335.125000", "132335.915000", "132336.702500", "132337.490000", "132338.280000", "132339.067500", "132339.855000", "132340.642500", "132341.432500", "132342.220000", "132343.007500", "132343.795000", "132344.585000", "132345.372500", "132346.160000", "132346.947500", "132347.737500", "132348.525000", "132349.312500", "132350.100000", "132350.890000", "132351.677500", "132352.465000", "132353.252500", "132354.042500", "132354.830000", "132355.617500", "132356.407500", "132357.195000", "132357.982500", "132358.770000", "132359.560000", "132400.347500", "132401.135000", "132401.922500", "132402.712500", "132403.500000", "132404.287500", "132405.075000", "132405.865000", "132406.652500", "132407.440000", "132408.227500", "132409.017500", "132409.805000", "132410.592500", "132411.380000", "132412.170000", "132412.957500", "132413.745000", "132414.535000", "132415.322500", "132416.110000", "132416.897500", "132417.687500", "132418.475000", "132419.262500", "132420.050000", "132420.840000", "132421.627500", "132422.415000", "132423.202500", "132423.992500", "132424.780000", "132425.567500", "132426.355000", "132427.145000", "132427.932500", "132428.720000", "132429.507500", "132430.297500", "132431.085000", "132431.872500", "132432.662500", "132433.450000", "132434.237500", "132435.025000", "132435.815000", "132436.602500", "132437.390000", "132438.177500", "132438.967500", "132439.755000", "132440.542500", "132441.330000", "132442.120000", "132442.907500", "132443.695000", "132444.482500", "132445.272500", "132446.060000", "132446.847500", "132447.635000", "132448.425000", "132449.212500", "132450.000000", "132450.790000", "132451.577500", "132452.365000", "132453.152500", "132453.942500", "132454.730000", "132455.517500", "132456.305000", "132457.095000", "132457.882500", "132458.670000", "132459.457500", "132500.247500", "132501.035000", "132501.822500", "132502.610000", "132503.400000", "132504.187500", "132504.975000", "132505.762500", "132506.552500", "132507.340000", "132508.127500", "132508.917500", "132509.705000", "132510.492500", "132511.280000", "132512.070000", "132512.857500", "132513.645000", "132514.432500", "132515.222500", "132516.010000", "132516.797500", "132517.585000", "132518.375000", "132519.162500", "132519.950000", "132520.737500", "132521.527500", "132522.315000", "132523.102500", "132523.890000", "132524.680000", "132525.467500", "132526.255000", "132527.045000", "132527.832500", "132528.620000", "132529.407500", "132530.197500", "132530.985000", "132531.772500", "132532.560000", "132533.350000", "132534.137500", "132534.925000", "132535.712500", "132536.502500", "132537.290000", "132538.077500", "132538.865000", "132539.655000", "132540.442500", "132541.230000", "132542.020000", "132542.807500", "132543.595000", "132544.382500", "132545.172500", "132545.960000", "132546.747500", "132547.535000", "132548.325000", "132549.112500", "132549.900000", "132550.687500", "132551.477500", "132552.265000", "132553.052500", "132553.840000", "132554.630000", "132555.417500", "132556.205000", "132556.992500", "132557.782500", "132558.570000", "132559.357500", "132600.147500", "132600.935000", "132601.722500", "132602.510000", "132603.300000", "132604.087500", "132604.875000", "132605.662500", "132606.452500", "132607.240000", "132608.027500", "132608.815000", "132609.605000", "132610.392500", "132611.180000", "132611.967500", "132612.757500", "132613.545000", "132614.332500", "132615.120000", "132615.910000", "132616.697500", "132617.485000", "132618.275000", "132619.062500", "132619.850000", "132620.637500", "132621.427500", "132622.215000", "132623.002500", "132623.790000", "132624.580000", "132625.367500", "132626.155000", "132626.942500", "132627.732500", "132628.520000", "132629.307500", "132630.095000", "132630.885000", "132631.672500", "132632.460000", "132633.247500", "132634.037500", "132634.825000", "132635.612500", "132636.402500", "132637.190000", "132637.977500", "132638.765000", "132639.555000", "132640.342500", "132641.130000", "132641.917500", "132642.707500", "132643.495000", "132644.282500", "132645.070000", "132645.860000", "132646.647500", "132647.435000", "132648.222500", "132649.012500", "132649.800000", "132650.587500", "132651.375000", "132652.165000", "132652.952500", "132653.740000", "132654.530000", "132655.317500", "132656.105000", "132656.892500", "132657.682500", "132658.470000", "132659.257500", "132700.045000", "132700.835000", "132701.622500", "132702.410000", "132703.197500", "132703.987500", "132704.775000", "132705.562500", "132706.350000", "132707.140000", "132707.927500", "132708.715000", "132709.502500", "132710.292500", "132711.080000", "132711.867500"],
      "ContentTime": ["132009.812000", "132009.812000", "132009.812000", "132009.812000", "132009.812000", "132009.812000", "132009.828000", "132009.828000", "132009.828000", "132009.828000", "132009.828000", "132009.828000", "132009.828000", "132009.843000", "132009.843000", "132009.843000", "132009.843000", "132009.843000", "132009.843000", "132009.843000", "132009.859000", "132009.859000", "132009.859000", "132009.859000", "132009.859000", "132009.859000", "132009.859000", "132009.875000", "132009.875000", "132009.875000", "132009.875000", "132009.875000", "132009.890000", "132009.890000", "132009.890000", "132009.890000", "132009.890000", "132009.890000", "132009.906000", "132009.906000", "132009.906000", "132009.906000", "132029.781000", "132029.781000", "132029.781000", "132029.781000", "132029.781000", "132029.781000", "132029.796000", "132029.796000", "132029.796000", "132029.796000", "132029.796000", "132029.796000", "132029.796000", "132029.812000", "132029.812000", "132029.812000", "132029.812000", "132029.812000", "132029.812000", "132029.812000", "132029.828000", "132029.828000", "132029.828000", "132029.828000", "132029.828000", "132029.843000", "132049.781000", "132049.781000", "132049.781000", "132049.781000", "132049.781000", "132049.796000", "132049.796000", "132049.796000", "132049.796000", "132049.796000", "132049.796000", "132049.812000", "132049.812000", "132049.812000", "132049.812000", "132049.812000", "132049.812000", "132049.812000", "132049.828000", "132049.828000", "132049.828000", "132049.828000", "132049.828000", "132049.828000", "132049.843000", "132109.781000", "132109.781000", "132109.781000", "132109.781000", "132109.781000", "132109.796000", "132109.796000", "132109.796000", "132109.796000", "132109.796000", "132109.796000", "132109.796000", "132109.812000", "132109.812000", "132109.812000", "132109.812000", "132109.812000", "132109.812000", "132109.812000", "132109.828000", "132109.828000", "132109.828000", "132109.828000", "132109.828000", "132109.828000", "132109.828000", "132129.781000", "132129.781000", "132129.781000", "132129.781000", "132129.781000", "132129.781000", "132129.796000", "132129.796000", "132129.796000", "132129.796000", "132129.796000", "132129.796000", "132129.796000", "132129.812000", "132129.812000", "132129.812000", "132129.812000", "132129.812000", "132129.812000", "132129.812000", "132129.828000", "132129.828000", "132129.828000", "132129.828000", "132129.828000", "132149.781000", "132149.781000", "132149.781000", "132149.781000", "132149.781000", "132149.781000", "132149.796000", "132149.796000", "132149.796000", "132149.796000", "132149.796000", "132149.796000", "132149.796000", "132149.812000", "132149.812000", "132149.812000", "132149.812000", "132149.812000", "132149.812000", "132149.828000", "132149.828000", "132149.828000", "132149.828000", "132149.828000", "132149.828000", "132149.843000", "132209.781000", "132209.781000", "132209.781000", "132209.781000", "132209.781000", "132209.781000", "132209.796000", "132209.796000", "132209.796000", "132209.796000", "132209.796000", "132209.796000", "132209.796000", "132209.812000", "132209.812000", "132209.812000", "132209.812000", "132209.812000", "132209.812000", "132209.812000", "132209.828000", "132209.828000", "132209.828000", "132209.828000", "132209.828000", "132229.781000", "132229.781000", "132229.781000", "132229.781000", "132229.781000", "132229.781000", "132229.796000", "132229.796000", "132229.796000", "132229.796000", "132229.796000", "132229.796000", "132229.796000", "132229.812000", "132229.812000", "132229.812000", "132229.812000", "132229.812000", "132229.812000", "132229.812000", "132229.828000", "132229.828000", "132229.828000", "132229.828000", "132229.828000", "132229.828000", "132249.781000", "132249.781000", "132249.781000", "132249.781000", "132249.781000", "132249.781000", "132249.796000", "132249.796000", "132249.796000", "132249.796000", "132249.796000", "132249.796000", "132249.796000", "132249.812000", "132249.812000", "132249.812000", "132249.812000", "132249.812000", "132249.812000", "132249.828000", "132249.828000", "132249.828000", "132249.828000", "132249.828000", "132249.828000", "132309.781000", "132309.781000", "132309.781000", "132309.781000", "132309.781000", "132309.781000", "132309.796000", "132309.796000", "132309.796000", "132309.796000", "132309.796000", "132309.796000", "132309.796000", "132309.812000", "132309.812000", "132309.812000", "132309.812000", "132309.812000", "132309.812000", "132309.812000", "132309.828000", "132309.828000", "132309.828000", "132309.828000", "132309.828000", "132309.828000", "132329.781000", "132329.781000", "132329.781000", "132329.781000", "132329.781000", "132329.781000", "132329.796000", "132329.796000", "132329.796000", "132329.812000", "132329.812000", "132329.812000", "132329.812000", "132329.812000", "132329.812000", "132329.812000", "132329.828000", "132329.828000", "132329.828000", "132329.828000", "132329.828000", "132329.828000", "132329.828000", "132329.843000", "132329.843000", "132349.781000", "132349.781000", "132349.781000", "132349.781000", "132349.781000", "132349.781000", "132349.796000", "132349.796000", "132349.796000", "132349.796000", "132349.796000", "132349.796000", "132349.812000", "132349.812000", "132349.812000", "132349.812000", "132349.812000", "132349.812000", "132349.812000", "132349.828000", "132349.828000", "132349.828000", "132349.828000", "132349.828000", "132349.828000", "132349.843000", "132409.781000", "132409.781000", "132409.781000", "132409.781000", "132409.781000", "132409.781000", "132409.796000", "132409.796000", "132409.796000", "132409.796000", "132409.796000", "132409.796000", "132409.796000", "132409.812000", "132409.812000", "132409.812000", "132409.812000", "132409.812000", "132409.828000", "132409.828000", "132409.828000", "132409.828000", "132409.828000", "132409.828000", "132409.828000", "132429.781000", "132429.781000", "132429.781000", "132429.781000", "132429.781000", "132429.781000", "132429.796000", "132429.796000", "132429.796000", "132429.796000", "132429.796000", "132429.796000", "132429.812000", "132429.812000", "132429.812000", "132429.812000", "132429.812000", "132429.812000", "132429.812000", "132429.812000", "132429.828000", "132429.828000", "132429.828000", "132429.828000", "132429.828000", "132429.828000", "132449.781000", "132449.781000", "132449.781000", "132449.781000", "132449.781000", "132449.781000", "132449.796000", "132449.796000", "132449.796000", "132449.796000", "132449.796000", "132449.796000", "132449.812000", "132449.812000", "132449.812000", "132449.812000", "132449.812000", "132449.812000", "132449.812000", "132449.828000", "132449.828000", "132449.828000", "132449.828000", "132449.828000", "132449.828000", "132509.781000", "132509.781000", "132509.781000", "132509.781000", "132509.781000", "132509.796000", "132509.796000", "132509.796000", "132509.796000", "132509.796000", "132509.796000", "132509.796000", "132509.812000", "132509.812000", "132509.812000", "132509.812000", "132509.812000", "132509.812000", "132509.812000", "132509.828000", "132509.828000", "132509.828000", "132509.828000", "132509.828000", "132509.828000", "132509.828000", "132529.781000", "132529.781000", "132529.781000", "132529.781000", "132529.781000", "132529.781000", "132529.796000", "132529.796000", "132529.796000", "132529.796000", "132529.796000", "132529.796000", "132529.796000", "132529.812000", "132529.812000", "132529.812000", "132529.812000", "132529.812000", "132529.812000", "132529.812000", "132529.828000", "132529.828000", "132529.828000", "132529.828000", "132529.828000", "132549.781000", "132549.781000", "132549.781000", "132549.781000", "132549.781000", "132549.796000", "132549.796000", "132549.796000", "132549.796000", "132549.812000", "132549.812000", "132549.812000", "132549.812000", "132549.812000", "132549.812000", "132549.828000", "132549.828000", "132549.828000", "132549.828000", "132549.828000", "132549.828000", "132549.843000", "132549.843000", "132549.843000", "132549.843000", "132609.781000", "132609.781000", "132609.781000", "132609.781000", "132609.781000", "132609.781000", "132609.796000", "132609.796000", "132609.796000", "132609.796000", "132609.796000", "132609.796000", "132609.812000", "132609.812000", "132609.812000", "132609.812000", "132609.812000", "132609.812000", "132609.828000", "132609.828000", "132609.828000", "132609.828000", "132609.828000", "132609.828000", "132609.828000", "132609.843000", "132629.781000", "132629.781000", "132629.781000", "132629.781000", "132629.781000", "132629.796000", "132629.796000", "132629.796000", "132629.796000", "132629.796000", "132629.796000", "132629.796000", "132629.812000", "132629.812000", "132629.812000", "132629.812000", "132629.812000", "132629.812000", "132629.812000", "132629.828000", "132629.828000", "132629.828000", "132629.828000", "132629.828000", "132629.828000", "132649.781000", "132649.781000", "132649.781000", "132649.781000", "132649.781000", "132649.781000", "132649.796000", "132649.796000", "132649.796000", "132649.796000", "132649.796000", "132649.796000", "132649.812000", "132649.812000", "132649.812000", "132649.812000", "132649.812000", "132649.812000", "132649.812000", "132649.828000", "132649.828000", "132649.828000", "132649.828000", "132649.828000", "132649.843000", "132649.843000", "132709.781000", "132709.781000", "132709.781000", "132709.781000", "132709.781000", "132709.781000", "132709.796000", "132709.796000", "132709.796000", "132709.796000", "132709.796000", "132709.796000", "132709.796000", "132709.812000", "132709.812000", "132709.812000", "132709.812000", "132709.812000", "132709.812000", "132709.812000", "132709.828000", "132709.828000", "132709.828000", "132709.828000", "132709.828000", "132712.281000", "132712.281000", "132712.296000", "132712.296000"],
      "DataSetTrailingPadding": [
        "\u0000\u0000\u0000\u0000\u0000\u0000\u0000\u0000\u0000\u0000\u0000\u0000\u0000\u0000\u0000\u0000\u0000\u0000\u0000\u0000\u0000\u0000\u0000\u0000\u0000\u0000\u0000\u0000\u0000\u0000\u0000\u0000\u0000\u0000\u0000\u0000\u0000\u0000\u0000\u0000\u0000\u0000\u0000\u0000\u0000\u0000\u0000\u0000\u0000\u0000\u0000\u0000\u0000\u0000\u0000\u0000\u0000\u0000\u0000\u0000\u0000\u0000\u0000\u0000\u0000\u0000\u0000\u0000\u0000\u0000\u0000\u0000\u0000\u0000\u0000\u0000\u0000\u0000\u0000\u0000\u0000\u0000\u0000\u0000\u0000\u0000\u0000\u0000\u0000\u0000\u0000\u0000\u0000\u0000\u0000\u0000\u0000\u0000\u0000\u0000\u0000\u0000\u0000\u0000\u0000\u0000\u0000\u0000\u0000\u0000\u0000\u0000\u0000\u0000\u0000\u0000\u0000\u0000\u0000\u0000\u0000\u0000\u0000\u0000\u0000\u0000\u0000\u0000\u0000\u0000\u0000\u0000\u0000\u0000\u0000\u0000\u0000\u0000\u0000\u0000\u0000\u0000\u0000\u0000\u0000\u0000\u0000\u0000\u0000\u0000",
        "\u0000\u0000\u0000\u0000\u0000\u0000\u0000\u0000\u0000\u0000\u0000\u0000\u0000\u0000\u0000\u0000\u0000\u0000\u0000\u0000\u0000\u0000\u0000\u0000\u0000\u0000\u0000\u0000\u0000\u0000\u0000\u0000\u0000\u0000\u0000\u0000\u0000\u0000\u0000\u0000\u0000\u0000\u0000\u0000\u0000\u0000\u0000\u0000\u0000\u0000\u0000\u0000\u0000\u0000\u0000\u0000\u0000\u0000\u0000\u0000\u0000\u0000\u0000\u0000\u0000\u0000\u0000\u0000\u0000\u0000\u0000\u0000\u0000\u0000\u0000\u0000\u0000\u0000\u0000\u0000\u0000\u0000\u0000\u0000\u0000\u0000\u0000\u0000\u0000\u0000\u0000\u0000\u0000\u0000\u0000\u0000\u0000\u0000\u0000\u0000\u0000\u0000\u0000\u0000\u0000\u0000\u0000\u0000\u0000\u0000\u0000\u0000\u0000\u0000\u0000\u0000\u0000\u0000\u0000\u0000\u0000\u0000\u0000\u0000\u0000\u0000\u0000\u0000\u0000\u0000\u0000\u0000\u0000\u0000\u0000\u0000\u0000\u0000\u0000\u0000\u0000\u0000\u0000\u0000\u0000\u0000\u0000\u0000\u0000\u0000",
