{
  "AcquisitionMatrixPE": 104,
  "AcquisitionNumber": 1,
  "AcquisitionTime": "13:02:29.707500",
  "BandwidthPerPixelPhaseEncode": 13.935,
  "BaseResolution": 104,
  "CoilString": "C:HEA;HEP",
  "ConversionSoftware": "dcm2niix",
  "ConversionSoftwareVersion": "v1.0.20210317",
  "DerivedVendorReportedEchoSpacing": 0.000690017,
  "DeviceSerialNumber": "35450",
  "DwellTime": 2.5e-06,
  "EchoTime": 0.0348,
  "EffectiveEchoSpacing": 0.000690017,
  "FlipAngle": 55,
  "ImageComments": "Unaliased MB8/PE3 (remote)",
  "ImageOrientationPatientDICOM": [1, 0, 0, 0, 0.999701, -0.0244322],
  "ImageType": [
    "ORIGINAL",
    "PRIMARY",
    "M",
    "MB",
    "ND",
    "MOSAIC"
],
  "ImagingFrequency": 123.234,
  "InPlanePhaseEncodingDirectionDICOM": "COL",
  "InstitutionAddress": "Univeristy Ave. 197,Newark,North East,US,07102-1814",
  "InstitutionName": "RUBIC",
  "InstitutionalDepartmentName": "Department",
  "MRAcquisitionType": "2D",
  "MagneticFieldStrength": 3,
  "Manufacturer": "Siemens",
  "ManufacturersModelName": "TrioTim",
  "Modality": "MR",
  "MultibandAccelerationFactor": 8,
  "PartialFourier": 0.875,
  "PatientPosition": "HFS",
  "PercentPhaseFOV": 100,
  "PercentSampling": 100,
  "PhaseEncodingDirection": "j-",
  "PhaseEncodingSteps": 91,
  "PhaseResolution": 1,
  "PixelBandwidth": 1923,
  "ProcedureStepDescription": "Cole^Michael",
  "ProtocolName": "cmrr_mbep2d_bold_2mm_MB8_Task_8x",
  "PulseSequenceDetails": "%CustomerSeq%\\cmrr_mbep2d_bold",
  "ReceiveCoilName": "32Ch_Head",
  "ReconMatrixPE": 104,
  "RepetitionTime": 0.785,
  "SAR": 0.144675,
  "ScanOptions": "PFP\\FS",
  "ScanningSequence": "EP",
  "SequenceName": "epfid2d1_104",
  "SequenceVariant": "SK\\SS",
  "SeriesDescription": "cmrr_mbep2d_bold_2mm_MB8_Task_8x",
  "SeriesNumber": 17,
  "ShimSetting": [2129, -488, -7255, 449, 26, -445, 44, 3],
  "SliceThickness": 2,
  "SliceTiming": [0, 0.4375, 0.0875, 0.525, 0.175, 0.6125, 0.2625, 0.7, 0.35, 0, 0.4375, 0.0875, 0.525, 0.175, 0.6125, 0.2625, 0.7, 0.35, 0, 0.4375, 0.0875, 0.525, 0.175, 0.6125, 0.2625, 0.7, 0.35, 0, 0.4375, 0.0875, 0.525, 0.175, 0.6125, 0.2625, 0.7, 0.35, 0, 0.4375, 0.0875, 0.525, 0.175, 0.6125, 0.2625, 0.7, 0.35, 0, 0.4375, 0.0875, 0.525, 0.175, 0.6125, 0.2625, 0.7, 0.35, 0, 0.4375, 0.0875, 0.525, 0.175, 0.6125, 0.2625, 0.7, 0.35, 0, 0.4375, 0.0875, 0.525, 0.175, 0.6125, 0.2625, 0.7, 0.35],
  "SoftwareVersions": "syngo MR B19",
  "SpacingBetweenSlices": 2,
  "StationName": "MRC35450",
  "TaskName": "cpro",
  "TotalReadoutTime": 0.0710717,
  "TxRefAmp": 342.655,
  "dcmmeta_affine": [
    [-2.0, 0.0, 0.0, 106.03389739990234],
    [0.0, 1.9994029998779297, -0.04886435344815254, -84.52958679199219],
    [0.0, 0.04886435344815254, 1.9994029998779297, -92.61527252197266],
    [0.0, 0.0, 0.0, 1.0]
],
  "dcmmeta_reorient_transform": [
    [0.0, -1.0, 0.0, 103.0],
    [1.0, 0.0, 0.0, 0.0],
    [0.0, 0.0, 1.0, 0.0],
    [0.0, 0.0, 0.0, 1.0]
],
  "dcmmeta_shape": [104, 104, 72, 581],
  "dcmmeta_slice_dim": 2,
  "dcmmeta_version": 0.6,
  "global": {
    "const": {
      "AcquisitionMatrix": [104, 0, 0, 104],
      "AngioFlag": "N",
      "BitsAllocated": 16,
      "BitsStored": 12,
      "Columns": 936,
      "EchoNumbers": 1,
      "EchoTime": 34.8,
      "EchoTrainLength": 1,
      "FlipAngle": 55.0,
      "HighBit": 11,
      "ImageOrientationPatient": [1.0, 0.0, 0.0, 0.0, 0.99970148981559, -0.0244321767449],
      "ImagePositionPatient": [-938.03389835358, -953.16056257652, -67.254674400279],
      "ImageType": [
        "ORIGINAL",
        "PRIMARY",
        "M",
        "MB",
        "ND",
        "MOSAIC"
],
      "ImagedNucleus": "1H",
      "ImagingFrequency": 123.234436,
      "InPlanePhaseEncodingDirection": "COL",
      "MRAcquisitionType": "2D",
      "MagneticFieldStrength": 3.0,
      "Manufacturer": "SIEMENS",
      "ManufacturerModelName": "TrioTim",
      "Modality": "MR",
      "NumberOfAverages": 1.0,
      "NumberOfPhaseEncodingSteps": 91,
      "PercentPhaseFieldOfView": 100.0,
      "PercentSampling": 100.0,
      "PerformedProcedureStepStartTime": "120023.203000",
      "PhotometricInterpretation": "MONOCHROME2",
      "PixelBandwidth": 1923.0,
      "PixelRepresentation": 0,
      "PixelSpacing": [2.0, 2.0],
      "ProtocolName": "cmrr_mbep2d_bold_2mm_MB8_Task_8x",
      "RepetitionTime": 785.0,
      "Rows": 936,
      "SAR": 0.14467457270026,
      "SamplesPerPixel": 1,
      "ScanOptions": [
        "PFP",
        "FS"
],
      "ScanningSequence": "EP",
      "SequenceName": "epfid2d1_104",
      "SequenceVariant": [
        "SK",
        "SS"
],
      "SeriesDescription": "cmrr_mbep2d_bold_2mm_MB8_Task_8x",
      "SeriesNumber": 17,
      "SeriesTime": "130249.796000",
      "SliceLocation": -90.52238552615,
      "SliceThickness": 2.0,
      "SmallestImagePixelValue": 0,
      "SoftwareVersions": "syngo MR B19",
      "SpacingBetweenSlices": 1.9999999936567,
      "SpecificCharacterSet": "ISO_IR 100",
      "StudyID": "1",
      "StudyTime": "120023.078000",
      "TransmitCoilName": "Body",
      "VariableFlipAngleFlag": "N",
      "WindowCenterWidthExplanation": "Algo1",
      "dBdt": 0.0},
    "slices": {}
  },
  "time": {
    "samples": {
      "AcquisitionNumber": [1, 2, 3, 4, 5, 6, 7, 8, 9, 10, 11, 12, 13, 14, 15, 16, 17, 18, 19, 20, 21, 22, 23, 24, 25, 26, 27, 28, 29, 30, 31, 32, 33, 34, 35, 36, 37, 38, 39, 40, 41, 42, 43, 44, 45, 46, 47, 48, 49, 50, 51, 52, 53, 54, 55, 56, 57, 58, 59, 60, 61, 62, 63, 64, 65, 66, 67, 68, 69, 70, 71, 72, 73, 74, 75, 76, 77, 78, 79, 80, 81, 82, 83, 84, 85, 86, 87, 88, 89, 90, 91, 92, 93, 94, 95, 96, 97, 98, 99, 100, 101, 102, 103, 104, 105, 106, 107, 108, 109, 110, 111, 112, 113, 114, 115, 116, 117, 118, 119, 120, 121, 122, 123, 124, 125, 126, 127, 128, 129, 130, 131, 132, 133, 134, 135, 136, 137, 138, 139, 140, 141, 142, 143, 144, 145, 146, 147, 148, 149, 150, 151, 152, 153, 154, 155, 156, 157, 158, 159, 160, 161, 162, 163, 164, 165, 166, 167, 168, 169, 170, 171, 172, 173, 174, 175, 176, 177, 178, 179, 180, 181, 182, 183, 184, 185, 186, 187, 188, 189, 190, 191, 192, 193, 194, 195, 196, 197, 198, 199, 200, 201, 202, 203, 204, 205, 206, 207, 208, 209, 210, 211, 212, 213, 214, 215, 216, 217, 218, 219, 220, 221, 222, 223, 224, 225, 226, 227, 228, 229, 230, 231, 232, 233, 234, 235, 236, 237, 238, 239, 240, 241, 242, 243, 244, 245, 246, 247, 248, 249, 250, 251, 252, 253, 254, 255, 256, 257, 258, 259, 260, 261, 262, 263, 264, 265, 266, 267, 268, 269, 270, 271, 272, 273, 274, 275, 276, 277, 278, 279, 280, 281, 282, 283, 284, 285, 286, 287, 288, 289, 290, 291, 292, 293, 294, 295, 296, 297, 298, 299, 300, 301, 302, 303, 304, 305, 306, 307, 308, 309, 310, 311, 312, 313, 314, 315, 316, 317, 318, 319, 320, 321, 322, 323, 324, 325, 326, 327, 328, 329, 330, 331, 332, 333, 334, 335, 336, 337, 338, 339, 340, 341, 342, 343, 344, 345, 346, 347, 348, 349, 350, 351, 352, 353, 354, 355, 356, 357, 358, 359, 360, 361, 362, 363, 364, 365, 366, 367, 368, 369, 370, 371, 372, 373, 374, 375, 376, 377, 378, 379, 380, 381, 382, 383, 384, 385, 386, 387, 388, 389, 390, 391, 392, 393, 394, 395, 396, 397, 398, 399, 400, 401, 402, 403, 404, 405, 406, 407, 408, 409, 410, 411, 412, 413, 414, 415, 416, 417, 418, 419, 420, 421, 422, 423, 424, 425, 426, 427, 428, 429, 430, 431, 432, 433, 434, 435, 436, 437, 438, 439, 440, 441, 442, 443, 444, 445, 446, 447, 448, 449, 450, 451, 452, 453, 454, 455, 456, 457, 458, 459, 460, 461, 462, 463, 464, 465, 466, 467, 468, 469, 470, 471, 472, 473, 474, 475, 476, 477, 478, 479, 480, 481, 482, 483, 484, 485, 486, 487, 488, 489, 490, 491, 492, 493, 494, 495, 496, 497, 498, 499, 500, 501, 502, 503, 504, 505, 506, 507, 508, 509, 510, 511, 512, 513, 514, 515, 516, 517, 518, 519, 520, 521, 522, 523, 524, 525, 526, 527, 528, 529, 530, 531, 532, 533, 534, 535, 536, 537, 538, 539, 540, 541, 542, 543, 544, 545, 546, 547, 548, 549, 550, 551, 552, 553, 554, 555, 556, 557, 558, 559, 560, 561, 562, 563, 564, 565, 566, 567, 568, 569, 570, 571, 572, 573, 574, 575, 576, 577, 578, 579, 580, 581],
      "AcquisitionTime": ["130229.707500", "130230.495000", "130231.282500", "130232.070000", "130232.860000", "130233.647500", "130234.435000", "130235.222500", "130236.012500", "130236.800000", "130237.587500", "130238.377500", "130239.165000", "130239.952500", "130240.740000", "130241.530000", "130242.317500", "130243.105000", "130243.892500", "130244.682500", "130245.470000", "130246.257500", "130247.045000", "130247.835000", "130248.622500", "130249.410000", "130250.197500", "130250.987500", "130251.775000", "130252.562500", "130253.350000", "130254.140000", "130254.927500", "130255.715000", "130256.505000", "130257.292500", "130258.080000", "130258.867500", "130259.657500", "130300.445000", "130301.232500", "130302.020000", "130302.810000", "130303.597500", "130304.385000", "130305.172500", "130305.962500", "130306.750000", "130307.537500", "130308.325000", "130309.115000", "130309.902500", "130310.690000", "130311.477500", "130312.267500", "130313.055000", "130313.842500", "130314.632500", "130315.420000", "130316.207500", "130316.995000", "130317.785000", "130318.572500", "130319.360000", "130320.147500", "130320.937500", "130321.725000", "130322.512500", "130323.300000", "130324.090000", "130324.877500", "130325.665000", "130326.452500", "130327.242500", "130328.030000", "130328.817500", "130329.605000", "130330.395000", "130331.182500", "130331.970000", "130332.760000", "130333.547500", "130334.335000", "130335.122500", "130335.912500", "130336.700000", "130337.487500", "130338.275000", "130339.065000", "130339.852500", "130340.640000", "130341.427500", "130342.217500", "130343.005000", "130343.792500", "130344.580000", "130345.370000", "130346.157500", "130346.945000", "130347.732500", "130348.522500", "130349.310000", "130350.097500", "130350.887500", "130351.675000", "130352.462500", "130353.250000", "130354.040000", "130354.827500", "130355.615000", "130356.402500", "130357.192500", "130357.980000", "130358.767500", "130359.555000", "130400.345000", "130401.132500", "130401.920000", "130402.707500", "130403.497500", "130404.285000", "130405.072500", "130405.860000", "130406.650000", "130407.437500", "130408.225000", "130409.015000", "130409.802500", "130410.590000", "130411.377500", "130412.167500", "130412.955000", "130413.742500", "130414.530000", "130415.320000", "130416.107500", "130416.895000", "130417.682500", "130418.472500", "130419.260000", "130420.047500", "130420.835000", "130421.625000", "130422.412500", "130423.200000", "130423.987500", "130424.777500", "130425.565000", "130426.352500", "130427.142500", "130427.930000", "130428.717500", "130429.505000", "130430.295000", "130431.082500", "130431.870000", "130432.657500", "130433.447500", "130434.235000", "130435.022500", "130435.810000", "130436.600000", "130437.387500", "130438.175000", "130438.962500", "130439.752500", "130440.540000", "130441.327500", "130442.117500", "130442.905000", "130443.692500", "130444.480000", "130445.270000", "130446.057500", "130446.845000", "130447.632500", "130448.422500", "130449.210000", "130449.997500", "130450.785000", "130451.575000", "130452.362500", "130453.150000", "130453.937500", "130454.727500", "130455.515000", "130456.302500", "130457.090000", "130457.880000", "130458.667500", "130459.455000", "130500.245000", "130501.032500", "130501.820000", "130502.607500", "130503.397500", "130504.185000", "130504.972500", "130505.760000", "130506.550000", "130507.337500", "130508.125000", "130508.912500", "130509.702500", "130510.490000", "130511.277500", "130512.065000", "130512.855000", "130513.642500", "130514.430000", "130515.217500", "130516.007500", "130516.795000", "130517.582500", "130518.372500", "130519.160000", "130519.947500", "130520.735000", "130521.525000", "130522.312500", "130523.100000", "130523.887500", "130524.677500", "130525.465000", "130526.252500", "130527.040000", "130527.830000", "130528.617500", "130529.405000", "130530.192500", "130530.982500", "130531.770000", "130532.557500", "130533.345000", "130534.135000", "130534.922500", "130535.710000", "130536.500000", "130537.287500", "130538.075000", "130538.862500", "130539.652500", "130540.440000", "130541.227500", "130542.015000", "130542.805000", "130543.592500", "130544.380000", "130545.167500", "130545.957500", "130546.745000", "130547.532500", "130548.320000", "130549.110000", "130549.897500", "130550.685000", "130551.472500", "130552.262500", "130553.050000", "130553.837500", "130554.627500", "130555.415000", "130556.202500", "130556.990000", "130557.780000", "130558.567500", "130559.355000", "130600.142500", "130600.932500", "130601.720000", "130602.507500", "130603.295000", "130604.085000", "130604.872500", "130605.660000", "130606.447500", "130607.237500", "130608.025000", "130608.812500", "130609.600000", "130610.390000", "130611.177500", "130611.965000", "130612.755000", "130613.542500", "130614.330000", "130615.117500", "130615.907500", "130616.695000", "130617.482500", "130618.270000", "130619.060000", "130619.847500", "130620.635000", "130621.422500", "130622.212500", "130623.000000", "130623.787500", "130624.575000", "130625.365000", "130626.152500", "130626.940000", "130627.727500", "130628.517500", "130629.305000", "130630.092500", "130630.882500", "130631.670000", "130632.457500", "130633.245000", "130634.035000", "130634.822500", "130635.610000", "130636.397500", "130637.187500", "130637.975000", "130638.762500", "130639.550000", "130640.340000", "130641.127500", "130641.915000", "130642.702500", "130643.492500", "130644.280000", "130645.067500", "130645.855000", "130646.645000", "130647.432500", "130648.220000", "130649.010000", "130649.797500", "130650.585000", "130651.372500", "130652.162500", "130652.950000", "130653.737500", "130654.525000", "130655.315000", "130656.102500", "130656.890000", "130657.677500", "130658.467500", "130659.255000", "130700.042500", "130700.830000", "130701.620000", "130702.407500", "130703.195000", "130703.982500", "130704.772500", "130705.560000", "130706.347500", "130707.137500", "130707.925000", "130708.712500", "130709.500000", "130710.290000", "130711.077500", "130711.865000", "130712.652500", "130713.442500", "130714.230000", "130715.017500", "130715.805000", "130716.595000", "130717.382500", "130718.170000", "130718.957500", "130719.747500", "130720.535000", "130721.322500", "130722.110000", "130722.900000", "130723.687500", "130724.475000", "130725.265000", "130726.052500", "130726.840000", "130727.627500", "130728.417500", "130729.205000", "130729.992500", "130730.780000", "130731.570000", "130732.357500", "130733.145000", "130733.932500", "130734.722500", "130735.510000", "130736.297500", "130737.085000", "130737.875000", "130738.662500", "130739.450000", "130740.237500", "130741.027500", "130741.815000", "130742.602500", "130743.392500", "130744.180000", "130744.967500", "130745.755000", "130746.545000", "130747.332500", "130748.120000", "130748.907500", "130749.697500", "130750.485000", "130751.272500", "130752.060000", "130752.850000", "130753.637500", "130754.425000", "130755.212500", "130756.002500", "130756.790000", "130757.577500", "130758.367500", "130759.155000", "130759.942500", "130800.730000", "130801.520000", "130802.307500", "130803.095000", "130803.882500", "130804.672500", "130805.460000", "130806.247500", "130807.035000", "130807.825000", "130808.612500", "130809.400000", "130810.187500", "130810.977500", "130811.765000", "130812.552500", "130813.340000", "130814.130000", "130814.917500", "130815.705000", "130816.495000", "130817.282500", "130818.070000", "130818.857500", "130819.647500", "130820.435000", "130821.222500", "130822.010000", "130822.800000", "130823.587500", "130824.375000", "130825.162500", "130825.952500", "130826.740000", "130827.527500", "130828.315000", "130829.105000", "130829.892500", "130830.680000", "130831.467500", "130832.257500", "130833.045000", "130833.832500", "130834.622500", "130835.410000", "130836.197500", "130836.985000", "130837.775000", "130838.562500", "130839.350000", "130840.137500", "130840.927500", "130841.715000", "130842.502500", "130843.290000", "130844.080000", "130844.867500", "130845.655000", "130846.442500", "130847.232500", "130848.020000", "130848.807500", "130849.595000", "130850.385000", "130851.172500", "130851.960000", "130852.750000", "130853.537500", "130854.325000", "130855.112500", "130855.902500", "130856.690000", "130857.477500", "130858.265000", "130859.055000", "130859.842500", "130900.630000", "130901.417500", "130902.207500", "130902.995000", "130903.782500", "130904.570000", "130905.360000", "130906.147500", "130906.935000", "130907.722500", "130908.512500", "130909.300000", "130910.087500", "130910.877500", "130911.665000", "130912.452500", "130913.240000", "130914.030000", "130914.817500", "130915.605000", "130916.392500", "130917.182500", "130917.970000", "130918.757500", "130919.545000", "130920.335000", "130921.122500", "130921.910000", "130922.697500", "130923.487500", "130924.275000", "130925.062500", "130925.850000", "130926.640000", "130927.427500", "130928.215000", "130929.005000", "130929.792500", "130930.580000", "130931.367500", "130932.157500", "130932.945000", "130933.732500", "130934.520000", "130935.310000", "130936.097500", "130936.885000", "130937.672500", "130938.462500", "130939.250000", "130940.037500", "130940.825000", "130941.615000", "130942.402500", "130943.190000", "130943.977500", "130944.767500", "130945.555000", "130946.342500", "130947.132500", "130947.920000", "130948.707500", "130949.495000", "130950.285000", "130951.072500", "130951.860000", "130952.647500", "130953.437500", "130954.225000", "130955.012500", "130955.800000", "130956.590000", "130957.377500", "130958.165000", "130958.952500", "130959.742500", "131000.530000", "131001.317500", "131002.105000", "131002.895000", "131003.682500", "131004.470000", "131005.260000", "131006.047500", "131006.835000"],
      "ContentTime": ["130249.796000", "130249.796000", "130249.796000", "130249.796000", "130249.796000", "130249.812000", "130249.812000", "130249.812000", "130249.812000", "130249.812000", "130249.812000", "130249.812000", "130249.828000", "130249.828000", "130249.828000", "130249.828000", "130249.828000", "130249.828000", "130249.828000", "130249.843000", "130249.843000", "130249.843000", "130249.843000", "130309.765000", "130309.765000", "130309.765000", "130309.765000", "130309.765000", "130309.781000", "130309.781000", "130309.781000", "130309.781000", "130309.781000", "130309.781000", "130309.781000", "130309.796000", "130309.796000", "130309.796000", "130309.796000", "130309.796000", "130309.796000", "130309.812000", "130309.812000", "130309.812000", "130309.812000", "130309.812000", "130309.812000", "130309.828000", "130329.765000", "130329.765000", "130329.765000", "130329.765000", "130329.765000", "130329.765000", "130329.781000", "130329.781000", "130329.781000", "130329.781000", "130329.781000", "130329.781000", "130329.796000", "130329.796000", "130329.796000", "130329.796000", "130329.796000", "130329.796000", "130329.812000", "130329.812000", "130329.812000", "130329.812000", "130329.812000", "130329.812000", "130329.812000", "130329.828000", "130349.765000", "130349.765000", "130349.765000", "130349.765000", "130349.765000", "130349.765000", "130349.781000", "130349.781000", "130349.781000", "130349.781000", "130349.781000", "130349.781000", "130349.781000", "130349.796000", "130349.796000", "130349.796000", "130349.796000", "130349.796000", "130349.796000", "130349.796000", "130349.812000", "130349.812000", "130349.812000", "130349.812000", "130349.812000", "130409.765000", "130409.765000", "130409.765000", "130409.765000", "130409.765000", "130409.765000", "130409.781000", "130409.781000", "130409.781000", "130409.781000", "130409.781000", "130409.781000", "130409.781000", "130409.796000", "130409.796000", "130409.796000", "130409.796000", "130409.796000", "130409.796000", "130409.812000", "130409.812000", "130409.812000", "130409.812000", "130409.812000", "130409.812000", "130409.828000", "130429.765000", "130429.765000", "130429.765000", "130429.765000", "130429.765000", "130429.781000", "130429.781000", "130429.781000", "130429.781000", "130429.781000", "130429.781000", "130429.781000", "130429.796000", "130429.796000", "130429.796000", "130429.796000", "130429.796000", "130429.796000", "130429.812000", "130429.812000", "130429.812000", "130429.812000", "130429.812000", "130429.812000", "130429.812000", "130449.765000", "130449.765000", "130449.765000", "130449.765000", "130449.765000", "130449.765000", "130449.781000", "130449.781000", "130449.781000", "130449.781000", "130449.781000", "130449.781000", "130449.796000", "130449.796000", "130449.796000", "130449.796000", "130449.796000", "130449.796000", "130449.796000", "130449.812000", "130449.812000", "130449.812000", "130449.812000", "130449.812000", "130449.812000", "130449.812000", "130509.765000", "130509.765000", "130509.765000", "130509.765000", "130509.765000", "130509.765000", "130509.781000", "130509.781000", "130509.781000", "130509.781000", "130509.781000", "130509.781000", "130509.781000", "130509.796000", "130509.796000", "130509.796000", "130509.796000", "130509.796000", "130509.796000", "130509.812000", "130509.812000", "130509.812000", "130509.812000", "130509.812000", "130509.812000", "130529.765000", "130529.765000", "130529.765000", "130529.765000", "130529.765000", "130529.781000", "130529.781000", "130529.781000", "130529.781000", "130529.781000", "130529.781000", "130529.781000", "130529.796000", "130529.796000", "130529.796000", "130529.796000", "130529.796000", "130529.796000", "130529.796000", "130529.812000", "130529.812000", "130529.812000", "130529.812000", "130529.812000", "130529.812000", "130529.812000", "130549.765000", "130549.765000", "130549.765000", "130549.765000", "130549.765000", "130549.765000", "130549.781000", "130549.781000", "130549.781000", "130549.781000", "130549.781000", "130549.781000", "130549.781000", "130549.796000", "130549.796000", "130549.796000", "130549.796000", "130549.796000", "130549.796000", "130549.812000", "130549.812000", "130549.812000", "130549.812000", "130549.812000", "130549.812000", "130609.765000", "130609.765000", "130609.765000", "130609.765000", "130609.765000", "130609.765000", "130609.781000", "130609.781000", "130609.781000", "130609.781000", "130609.781000", "130609.781000", "130609.781000", "130609.796000", "130609.796000", "130609.796000", "130609.796000", "130609.796000", "130609.796000", "130609.796000", "130609.812000", "130609.812000", "130609.812000", "130609.812000", "130609.812000", "130609.812000", "130629.765000", "130629.765000", "130629.765000", "130629.765000", "130629.765000", "130629.765000", "130629.781000", "130629.781000", "130629.781000", "130629.781000", "130629.781000", "130629.781000", "130629.781000", "130629.796000", "130629.796000", "130629.796000", "130629.796000", "130629.796000", "130629.796000", "130629.796000", "130629.812000", "130629.812000", "130629.812000", "130629.812000", "130629.812000", "130649.765000", "130649.765000", "130649.765000", "130649.765000", "130649.765000", "130649.765000", "130649.781000", "130649.781000", "130649.781000", "130649.781000", "130649.781000", "130649.781000", "130649.781000", "130649.796000", "130649.796000", "130649.796000", "130649.796000", "130649.796000", "130649.812000", "130649.812000", "130649.812000", "130649.812000", "130649.812000", "130649.828000", "130649.828000", "130649.828000", "130709.765000", "130709.765000", "130709.765000", "130709.765000", "130709.765000", "130709.781000", "130709.781000", "130709.781000", "130709.781000", "130709.781000", "130709.781000", "130709.796000", "130709.796000", "130709.796000", "130709.796000", "130709.796000", "130709.812000", "130709.812000", "130709.812000", "130709.812000", "130709.812000", "130709.812000", "130709.828000", "130709.828000", "130709.828000", "130729.765000", "130729.765000", "130729.765000", "130729.765000", "130729.765000", "130729.765000", "130729.781000", "130729.781000", "130729.781000", "130729.781000", "130729.781000", "130729.781000", "130729.781000", "130729.796000", "130729.796000", "130729.796000", "130729.796000", "130729.796000", "130729.796000", "130729.812000", "130729.812000", "130729.812000", "130729.812000", "130729.812000", "130729.812000", "130729.812000", "130749.765000", "130749.765000", "130749.765000", "130749.765000", "130749.765000", "130749.765000", "130749.781000", "130749.781000", "130749.781000", "130749.781000", "130749.781000", "130749.796000", "130749.796000", "130749.796000", "130749.796000", "130749.796000", "130749.796000", "130749.812000", "130749.812000", "130749.812000", "130749.812000", "130749.812000", "130749.812000", "130749.828000", "130749.828000", "130809.765000", "130809.765000", "130809.765000", "130809.765000", "130809.765000", "130809.765000", "130809.781000", "130809.781000", "130809.781000", "130809.781000", "130809.781000", "130809.781000", "130809.781000", "130809.796000", "130809.796000", "130809.796000", "130809.796000", "130809.796000", "130809.796000", "130809.812000", "130809.812000", "130809.812000", "130809.812000", "130809.812000", "130809.812000", "130809.812000", "130829.765000", "130829.765000", "130829.765000", "130829.765000", "130829.765000", "130829.781000", "130829.781000", "130829.781000", "130829.781000", "130829.781000", "130829.781000", "130829.781000", "130829.796000", "130829.796000", "130829.796000", "130829.796000", "130829.796000", "130829.796000", "130829.796000", "130829.812000", "130829.812000", "130829.812000", "130829.812000", "130829.812000", "130829.812000", "130849.765000", "130849.765000", "130849.765000", "130849.765000", "130849.765000", "130849.765000", "130849.781000", "130849.781000", "130849.781000", "130849.781000", "130849.781000", "130849.781000", "130849.796000", "130849.796000", "130849.796000", "130849.796000", "130849.796000", "130849.796000", "130849.796000", "130849.812000", "130849.812000", "130849.812000", "130849.812000", "130849.812000", "130849.812000", "130909.765000", "130909.765000", "130909.765000", "130909.765000", "130909.765000", "130909.765000", "130909.781000", "130909.781000", "130909.781000", "130909.781000", "130909.781000", "130909.781000", "130909.781000", "130909.796000", "130909.796000", "130909.796000", "130909.796000", "130909.796000", "130909.796000", "130909.812000", "130909.812000", "130909.812000", "130909.812000", "130909.812000", "130909.812000", "130909.812000", "130929.765000", "130929.765000", "130929.765000", "130929.765000", "130929.765000", "130929.781000", "130929.781000", "130929.781000", "130929.781000", "130929.781000", "130929.781000", "130929.781000", "130929.796000", "130929.796000", "130929.796000", "130929.796000", "130929.796000", "130929.812000", "130929.812000", "130929.812000", "130929.812000", "130929.812000", "130929.812000", "130929.812000", "130929.828000", "130949.765000", "130949.765000", "130949.765000", "130949.765000", "130949.765000", "130949.781000", "130949.781000", "130949.781000", "130949.781000", "130949.781000", "130949.781000", "130949.781000", "130949.796000", "130949.796000", "130949.796000", "130949.796000", "130949.796000", "130949.796000", "130949.796000", "130949.812000", "130949.812000", "130949.812000", "130949.812000", "130949.828000", "130949.828000", "130949.828000", "131007.531000", "131007.546000", "131007.546000", "131007.546000", "131007.546000", "131007.546000", "131007.546000", "131007.562000", "131007.562000", "131007.562000", "131007.562000", "131007.562000", "131007.562000", "131007.562000", "131007.578000", "131007.578000", "131007.578000", "131007.578000", "131007.578000", "131007.578000", "131007.578000", "131007.593000", "131007.593000"],
      "DataSetTrailingPadding": [
        "\u0000\u0000\u0000\u0000\u0000\u0000\u0000\u0000\u0000\u0000\u0000\u0000\u0000\u0000\u0000\u0000\u0000\u0000\u0000\u0000\u0000\u0000\u0000\u0000\u0000\u0000\u0000\u0000\u0000\u0000\u0000\u0000\u0000\u0000\u0000\u0000\u0000\u0000\u0000\u0000\u0000\u0000\u0000\u0000\u0000\u0000\u0000\u0000\u0000\u0000\u0000\u0000\u0000\u0000\u0000\u0000\u0000\u0000\u0000\u0000\u0000\u0000\u0000\u0000\u0000\u0000\u0000\u0000\u0000\u0000\u0000\u0000\u0000\u0000\u0000\u0000\u0000\u0000\u0000\u0000\u0000\u0000\u0000\u0000\u0000\u0000\u0000\u0000\u0000\u0000\u0000\u0000\u0000\u0000\u0000\u0000\u0000\u0000\u0000\u0000\u0000\u0000\u0000\u0000\u0000\u0000\u0000\u0000\u0000\u0000\u0000\u0000\u0000\u0000\u0000\u0000\u0000\u0000\u0000\u0000\u0000\u0000\u0000\u0000\u0000\u0000\u0000\u0000\u0000\u0000\u0000\u0000\u0000\u0000\u0000\u0000\u0000\u0000\u0000\u0000\u0000\u0000\u0000\u0000\u0000\u0000\u0000\u0000\u0000\u0000\u0000\u0000",
        "\u0000\u0000\u0000\u0000\u0000\u0000\u0000\u0000\u0000\u0000\u0000\u0000\u0000\u0000\u0000\u0000\u0000\u0000\u0000\u0000\u0000\u0000\u0000\u0000\u0000\u0000\u0000\u0000\u0000\u0000\u0000\u0000\u0000\u0000\u0000\u0000\u0000\u0000\u0000\u0000\u0000\u0000\u0000\u0000\u0000\u0000\u0000\u0000\u0000\u0000\u0000\u0000\u0000\u0000\u0000\u0000\u0000\u0000\u0000\u0000\u0000\u0000\u0000\u0000\u0000\u0000\u0000\u0000\u0000\u0000\u0000\u0000\u0000\u0000\u0000\u0000\u0000\u0000\u0000\u0000\u0000\u0000\u0000\u0000\u0000\u0000\u0000\u0000\u0000\u0000\u0000\u0000\u0000\u0000\u0000\u0000\u0000\u0000\u0000\u0000\u0000\u0000\u0000\u0000\u0000\u0000\u0000\u0000\u0000\u0000\u0000\u0000\u0000\u0000\u0000\u0000\u0000\u0000\u0000\u0000\u0000\u0000\u0000\u0000\u0000\u0000\u0000\u0000\u0000\u0000\u0000\u0000\u0000\u0000\u0000\u0000\u0000\u0000\u0000\u0000\u0000\u0000\u0000\u0000\u0000\u0000\u0000\u0000",
