{
  "AcquisitionMatrixPE": 104,
  "AcquisitionNumber": 1,
  "AcquisitionTime": "15:23:23.760000",
  "BandwidthPerPixelPhaseEncode": 13.935,
  "BaseResolution": 104,
  "CoilString": "C:HEA;HEP",
  "ConversionSoftware": "dcm2niix",
  "ConversionSoftwareVersion": "v1.0.20210317",
  "DerivedVendorReportedEchoSpacing": 0.000690017,
  "DeviceSerialNumber": "35450",
  "DwellTime": 2.5e-06,
  "EchoTime": 0.0348,
  "EffectiveEchoSpacing": 0.000690017,
  "FlipAngle": 55,
  "ImageComments": "Unaliased MB8/PE3",
  "ImageOrientationPatientDICOM": [0.999777, 0.00176062, 0.0210307, 1.39433e-08, 0.996514, -0.0834255],
  "ImageType": [
    "ORIGINAL",
    "PRIMARY",
    "M",
    "MB",
    "ND",
    "MOSAIC"
],
  "ImagingFrequency": 123.234,
  "InPlanePhaseEncodingDirectionDICOM": "COL",
  "InstitutionAddress": "Univeristy Ave. 197,Newark,North East,US,07102-1814",
  "InstitutionName": "RUBIC",
  "InstitutionalDepartmentName": "Department",
  "MRAcquisitionType": "2D",
  "MagneticFieldStrength": 3,
  "Manufacturer": "Siemens",
  "ManufacturersModelName": "TrioTim",
  "Modality": "MR",
  "MultibandAccelerationFactor": 8,
  "PartialFourier": 0.875,
  "PatientPosition": "HFS",
  "PercentPhaseFOV": 100,
  "PercentSampling": 100,
  "PhaseEncodingDirection": "j-",
  "PhaseEncodingSteps": 91,
  "PhaseResolution": 1,
  "PixelBandwidth": 1923,
  "ProcedureStepDescription": "Cole^Michael",
  "ProtocolName": "cmrr_mbep2d_bold_2mm_MB8_Rest",
  "PulseSequenceDetails": "%CustomerSeq%\\cmrr_mbep2d_bold",
  "ReceiveCoilName": "32Ch_Head",
  "ReconMatrixPE": 104,
  "RepetitionTime": 0.785,
  "SAR": 0.131001,
  "ScanOptions": "PFP\\FS",
  "ScanningSequence": "EP",
  "SequenceName": "epfid2d1_104",
  "SequenceVariant": "SK\\SS",
  "SeriesDescription": "cmrr_mbep2d_bold_2mm_MB8_Rest",
  "SeriesNumber": 9,
  "ShimSetting": [2159, -336, -7299, 826, 166, -240, 90, -51],
  "SliceThickness": 2,
  "SliceTiming": [0, 0.4375, 0.0875, 0.525, 0.175, 0.6125, 0.2625, 0.7, 0.35, 0, 0.4375, 0.0875, 0.525, 0.175, 0.6125, 0.2625, 0.7, 0.35, 0, 0.4375, 0.0875, 0.525, 0.175, 0.6125, 0.2625, 0.7, 0.35, 0, 0.4375, 0.0875, 0.525, 0.175, 0.6125, 0.2625, 0.7, 0.35, 0, 0.4375, 0.0875, 0.525, 0.175, 0.6125, 0.2625, 0.7, 0.35, 0, 0.4375, 0.0875, 0.525, 0.175, 0.6125, 0.2625, 0.7, 0.35, 0, 0.4375, 0.0875, 0.525, 0.175, 0.6125, 0.2625, 0.7, 0.35, 0, 0.4375, 0.0875, 0.525, 0.175, 0.6125, 0.2625, 0.7, 0.35],
  "SoftwareVersions": "syngo MR B19",
  "SpacingBetweenSlices": 2,
  "StationName": "MRC35450",
  "TaskName": "rest",
  "TotalReadoutTime": 0.0710717,
  "TxRefAmp": 327.821,
  "dcmmeta_affine": [
    [-1.9995545148849487, 2.7886626341455667e-08, 0.042208634316921234, 102.43126678466797],
    [-0.0035212470684200525, 1.9930280447006226, -0.16681377589702606, -77.25505828857422],
    [0.042061496526002884, 0.16685092449188232, 1.992584228515625, -107.58609771728516],
    [0.0, 0.0, 0.0, 1.0]
],
  "dcmmeta_reorient_transform": [
    [0.0, -1.0, 0.0, 103.0],
    [1.0, 0.0, 0.0, 0.0],
    [0.0, 0.0, 1.0, 0.0],
    [0.0, 0.0, 0.0, 1.0]
],
  "dcmmeta_shape": [104, 104, 72, 1070],
  "dcmmeta_slice_dim": 2,
  "dcmmeta_version": 0.6,
  "global": {
    "const": {
      "AcquisitionMatrix": [104, 0, 0, 104],
      "AngioFlag": "N",
      "BitsAllocated": 16,
      "BitsStored": 12,
      "Columns": 936,
      "EchoNumbers": 1,
      "EchoTime": 34.8,
      "EchoTrainLength": 1,
      "FlipAngle": 55.0,
      "HighBit": 11,
      "ImageOrientationPatient": [0.99977727910647, 0.00176062353795, 0.02103074861289, 1.3943313e-08, 0.99651401987728, -0.0834254648654],
      "ImagePositionPatient": [-934.24597449055, -958.5913345472, -38.488049066617],
      "ImageType": [
        "ORIGINAL",
        "PRIMARY",
        "M",
        "MB",
        "ND",
        "MOSAIC"
],
      "ImagedNucleus": "1H",
      "ImagingFrequency": 123.234356,
      "InPlanePhaseEncodingDirection": "COL",
      "MRAcquisitionType": "2D",
      "MagneticFieldStrength": 3.0,
      "Manufacturer": "SIEMENS",
      "ManufacturerModelName": "TrioTim",
      "Modality": "MR",
      "NumberOfAverages": 1.0,
      "NumberOfPhaseEncodingSteps": 91,
      "PercentPhaseFieldOfView": 100.0,
      "PercentSampling": 100.0,
      "PerformedProcedureStepStartTime": "145545.781000",
      "PhotometricInterpretation": "MONOCHROME2",
      "PixelBandwidth": 1923.0,
      "PixelRepresentation": 0,
      "PixelSpacing": [2.0, 2.0],
      "ProtocolName": "cmrr_mbep2d_bold_2mm_MB8_Rest",
      "RepetitionTime": 785.0,
      "Rows": 936,
      "SAR": 0.13100141309031,
      "SamplesPerPixel": 1,
      "ScanOptions": [
        "PFP",
        "FS"
],
      "ScanningSequence": "EP",
      "SequenceName": "epfid2d1_104",
      "SequenceVariant": [
        "SK",
        "SS"
],
      "SeriesDescription": "cmrr_mbep2d_bold_2mm_MB8_Rest",
      "SeriesNumber": 9,
      "SeriesTime": "152429.312000",
      "SliceLocation": -98.581832165198,
      "SliceThickness": 2.0,
      "SmallestImagePixelValue": 0,
      "SoftwareVersions": "syngo MR B19",
      "SpacingBetweenSlices": 2.0000000251118,
      "SpecificCharacterSet": "ISO_IR 100",
      "StudyID": "1",
      "StudyTime": "145545.687000",
      "TransmitCoilName": "Body",
      "VariableFlipAngleFlag": "N",
      "WindowCenterWidthExplanation": "Algo1",
      "dBdt": 0.0},
    "slices": {}
  },
  "time": {
    "samples": {
      "AcquisitionNumber": [1, 2, 3, 4, 5, 6, 7, 8, 9, 10, 11, 12, 13, 14, 15, 16, 17, 18, 19, 20, 21, 22, 23, 24, 25, 26, 27, 28, 29, 30, 31, 32, 33, 34, 35, 36, 37, 38, 39, 40, 41, 42, 43, 44, 45, 46, 47, 48, 49, 50, 51, 52, 53, 54, 55, 56, 57, 58, 59, 60, 61, 62, 63, 64, 65, 66, 67, 68, 69, 70, 71, 72, 73, 74, 75, 76, 77, 78, 79, 80, 81, 82, 83, 84, 85, 86, 87, 88, 89, 90, 91, 92, 93, 94, 95, 96, 97, 98, 99, 100, 101, 102, 103, 104, 105, 106, 107, 108, 109, 110, 111, 112, 113, 114, 115, 116, 117, 118, 119, 120, 121, 122, 123, 124, 125, 126, 127, 128, 129, 130, 131, 132, 133, 134, 135, 136, 137, 138, 139, 140, 141, 142, 143, 144, 145, 146, 147, 148, 149, 150, 151, 152, 153, 154, 155, 156, 157, 158, 159, 160, 161, 162, 163, 164, 165, 166, 167, 168, 169, 170, 171, 172, 173, 174, 175, 176, 177, 178, 179, 180, 181, 182, 183, 184, 185, 186, 187, 188, 189, 190, 191, 192, 193, 194, 195, 196, 197, 198, 199, 200, 201, 202, 203, 204, 205, 206, 207, 208, 209, 210, 211, 212, 213, 214, 215, 216, 217, 218, 219, 220, 221, 222, 223, 224, 225, 226, 227, 228, 229, 230, 231, 232, 233, 234, 235, 236, 237, 238, 239, 240, 241, 242, 243, 244, 245, 246, 247, 248, 249, 250, 251, 252, 253, 254, 255, 256, 257, 258, 259, 260, 261, 262, 263, 264, 265, 266, 267, 268, 269, 270, 271, 272, 273, 274, 275, 276, 277, 278, 279, 280, 281, 282, 283, 284, 285, 286, 287, 288, 289, 290, 291, 292, 293, 294, 295, 296, 297, 298, 299, 300, 301, 302, 303, 304, 305, 306, 307, 308, 309, 310, 311, 312, 313, 314, 315, 316, 317, 318, 319, 320, 321, 322, 323, 324, 325, 326, 327, 328, 329, 330, 331, 332, 333, 334, 335, 336, 337, 338, 339, 340, 341, 342, 343, 344, 345, 346, 347, 348, 349, 350, 351, 352, 353, 354, 355, 356, 357, 358, 359, 360, 361, 362, 363, 364, 365, 366, 367, 368, 369, 370, 371, 372, 373, 374, 375, 376, 377, 378, 379, 380, 381, 382, 383, 384, 385, 386, 387, 388, 389, 390, 391, 392, 393, 394, 395, 396, 397, 398, 399, 400, 401, 402, 403, 404, 405, 406, 407, 408, 409, 410, 411, 412, 413, 414, 415, 416, 417, 418, 419, 420, 421, 422, 423, 424, 425, 426, 427, 428, 429, 430, 431, 432, 433, 434, 435, 436, 437, 438, 439, 440, 441, 442, 443, 444, 445, 446, 447, 448, 449, 450, 451, 452, 453, 454, 455, 456, 457, 458, 459, 460, 461, 462, 463, 464, 465, 466, 467, 468, 469, 470, 471, 472, 473, 474, 475, 476, 477, 478, 479, 480, 481, 482, 483, 484, 485, 486, 487, 488, 489, 490, 491, 492, 493, 494, 495, 496, 497, 498, 499, 500, 501, 502, 503, 504, 505, 506, 507, 508, 509, 510, 511, 512, 513, 514, 515, 516, 517, 518, 519, 520, 521, 522, 523, 524, 525, 526, 527, 528, 529, 530, 531, 532, 533, 534, 535, 536, 537, 538, 539, 540, 541, 542, 543, 544, 545, 546, 547, 548, 549, 550, 551, 552, 553, 554, 555, 556, 557, 558, 559, 560, 561, 562, 563, 564, 565, 566, 567, 568, 569, 570, 571, 572, 573, 574, 575, 576, 577, 578, 579, 580, 581, 582, 583, 584, 585, 586, 587, 588, 589, 590, 591, 592, 593, 594, 595, 596, 597, 598, 599, 600, 601, 602, 603, 604, 605, 606, 607, 608, 609, 610, 611, 612, 613, 614, 615, 616, 617, 618, 619, 620, 621, 622, 623, 624, 625, 626, 627, 628, 629, 630, 631, 632, 633, 634, 635, 636, 637, 638, 639, 640, 641, 642, 643, 644, 645, 646, 647, 648, 649, 650, 651, 652, 653, 654, 655, 656, 657, 658, 659, 660, 661, 662, 663, 664, 665, 666, 667, 668, 669, 670, 671, 672, 673, 674, 675, 676, 677, 678, 679, 680, 681, 682, 683, 684, 685, 686, 687, 688, 689, 690, 691, 692, 693, 694, 695, 696, 697, 698, 699, 700, 701, 702, 703, 704, 705, 706, 707, 708, 709, 710, 711, 712, 713, 714, 715, 716, 717, 718, 719, 720, 721, 722, 723, 724, 725, 726, 727, 728, 729, 730, 731, 732, 733, 734, 735, 736, 737, 738, 739, 740, 741, 742, 743, 744, 745, 746, 747, 748, 749, 750, 751, 752, 753, 754, 755, 756, 757, 758, 759, 760, 761, 762, 763, 764, 765, 766, 767, 768, 769, 770, 771, 772, 773, 774, 775, 776, 777, 778, 779, 780, 781, 782, 783, 784, 785, 786, 787, 788, 789, 790, 791, 792, 793, 794, 795, 796, 797, 798, 799, 800, 801, 802, 803, 804, 805, 806, 807, 808, 809, 810, 811, 812, 813, 814, 815, 816, 817, 818, 819, 820, 821, 822, 823, 824, 825, 826, 827, 828, 829, 830, 831, 832, 833, 834, 835, 836, 837, 838, 839, 840, 841, 842, 843, 844, 845, 846, 847, 848, 849, 850, 851, 852, 853, 854, 855, 856, 857, 858, 859, 860, 861, 862, 863, 864, 865, 866, 867, 868, 869, 870, 871, 872, 873, 874, 875, 876, 877, 878, 879, 880, 881, 882, 883, 884, 885, 886, 887, 888, 889, 890, 891, 892, 893, 894, 895, 896, 897, 898, 899, 900, 901, 902, 903, 904, 905, 906, 907, 908, 909, 910, 911, 912, 913, 914, 915, 916, 917, 918, 919, 920, 921, 922, 923, 924, 925, 926, 927, 928, 929, 930, 931, 932, 933, 934, 935, 936, 937, 938, 939, 940, 941, 942, 943, 944, 945, 946, 947, 948, 949, 950, 951, 952, 953, 954, 955, 956, 957, 958, 959, 960, 961, 962, 963, 964, 965, 966, 967, 968, 969, 970, 971, 972, 973, 974, 975, 976, 977, 978, 979, 980, 981, 982, 983, 984, 985, 986, 987, 988, 989, 990, 991, 992, 993, 994, 995, 996, 997, 998, 999, 1000, 1001, 1002, 1003, 1004, 1005, 1006, 1007, 1008, 1009, 1010, 1011, 1012, 1013, 1014, 1015, 1016, 1017, 1018, 1019, 1020, 1021, 1022, 1023, 1024, 1025, 1026, 1027, 1028, 1029, 1030, 1031, 1032, 1033, 1034, 1035, 1036, 1037, 1038, 1039, 1040, 1041, 1042, 1043, 1044, 1045, 1046, 1047, 1048, 1049, 1050, 1051, 1052, 1053, 1054, 1055, 1056, 1057, 1058, 1059, 1060, 1061, 1062, 1063, 1064, 1065, 1066, 1067, 1068, 1069, 1070],
      "AcquisitionTime": ["152323.760000", "152324.547500", "152325.337500", "152326.125000", "152326.912500", "152327.700000", "152328.490000", "152329.277500", "152330.065000", "152330.855000", "152331.642500", "152332.430000", "152333.217500", "152334.007500", "152334.795000", "152335.582500", "152336.370000", "152337.160000", "152337.947500", "152338.735000", "152339.522500", "152340.312500", "152341.100000", "152341.887500", "152342.675000", "152343.465000", "152344.252500", "152345.040000", "152345.830000", "152346.617500", "152347.405000", "152348.192500", "152348.982500", "152349.770000", "152350.557500", "152351.345000", "152352.135000", "152352.922500", "152353.710000", "152354.497500", "152355.287500", "152356.075000", "152356.862500", "152357.650000", "152358.440000", "152359.227500", "152400.015000", "152400.802500", "152401.592500", "152402.380000", "152403.167500", "152403.957500", "152404.745000", "152405.532500", "152406.320000", "152407.110000", "152407.897500", "152408.685000", "152409.472500", "152410.262500", "152411.050000", "152411.837500", "152412.625000", "152413.415000", "152414.202500", "152414.990000", "152415.777500", "152416.567500", "152417.355000", "152418.142500", "152418.930000", "152419.720000", "152420.507500", "152421.295000", "152422.085000", "152422.872500", "152423.660000", "152424.447500", "152425.237500", "152426.025000", "152426.812500", "152427.600000", "152428.390000", "152429.177500", "152429.965000", "152430.752500", "152431.542500", "152432.330000", "152433.117500", "152433.905000", "152434.695000", "152435.482500", "152436.270000", "152437.057500", "152437.847500", "152438.635000", "152439.422500", "152440.212500", "152441.000000", "152441.787500", "152442.575000", "152443.365000", "152444.152500", "152444.940000", "152445.727500", "152446.517500", "152447.305000", "152448.092500", "152448.880000", "152449.670000", "152450.457500", "152451.245000", "152452.032500", "152452.822500", "152453.610000", "152454.397500", "152455.185000", "152455.975000", "152456.762500", "152457.550000", "152458.340000", "152459.127500", "152459.915000", "152500.702500", "152501.492500", "152502.280000", "152503.067500", "152503.855000", "152504.645000", "152505.432500", "152506.220000", "152507.007500", "152507.797500", "152508.585000", "152509.372500", "152510.160000", "152510.950000", "152511.737500", "152512.525000", "152513.312500", "152514.102500", "152514.890000", "152515.677500", "152516.467500", "152517.255000", "152518.042500", "152518.830000", "152519.620000", "152520.407500", "152521.195000", "152521.982500", "152522.772500", "152523.560000", "152524.347500", "152525.135000", "152525.925000", "152526.712500", "152527.500000", "152528.287500", "152529.077500", "152529.865000", "152530.652500", "152531.440000", "152532.230000", "152533.017500", "152533.805000", "152534.595000", "152535.382500", "152536.170000", "152536.957500", "152537.747500", "152538.535000", "152539.322500", "152540.110000", "152540.900000", "152541.687500", "152542.475000", "152543.262500", "152544.052500", "152544.840000", "152545.627500", "152546.415000", "152547.205000", "152547.992500", "152548.780000", "152549.567500", "152550.357500", "152551.145000", "152551.932500", "152552.722500", "152553.510000", "152554.297500", "152555.085000", "152555.875000", "152556.662500", "152557.450000", "152558.237500", "152559.027500", "152559.815000", "152600.602500", "152601.390000", "152602.180000", "152602.967500", "152603.755000", "152604.542500", "152605.332500", "152606.120000", "152606.907500", "152607.695000", "152608.485000", "152609.272500", "152610.060000", "152610.850000", "152611.637500", "152612.425000", "152613.212500", "152614.002500", "152614.790000", "152615.577500", "152616.365000", "152617.155000", "152617.942500", "152618.730000", "152619.517500", "152620.307500", "152621.095000", "152621.882500", "152622.670000", "152623.460000", "152624.247500", "152625.035000", "152625.822500", "152626.612500", "152627.400000", "152628.187500", "152628.977500", "152629.765000", "152630.552500", "152631.340000", "152632.130000", "152632.917500", "152633.705000", "152634.492500", "152635.282500", "152636.070000", "152636.857500", "152637.645000", "152638.435000", "152639.222500", "152640.010000", "152640.797500", "152641.587500", "152642.375000", "152643.162500", "152643.950000", "152644.740000", "152645.527500", "152646.315000", "152647.105000", "152647.892500", "152648.680000", "152649.467500", "152650.257500", "152651.045000", "152651.832500", "152652.620000", "152653.410000", "152654.197500", "152654.985000", "152655.772500", "152656.562500", "152657.350000", "152658.137500", "152658.925000", "152659.715000", "152700.502500", "152701.290000", "152702.080000", "152702.867500", "152703.655000", "152704.442500", "152705.232500", "152706.020000", "152706.807500", "152707.595000", "152708.385000", "152709.172500", "152709.960000", "152710.747500", "152711.537500", "152712.325000", "152713.112500", "152713.900000", "152714.690000", "152715.477500", "152716.265000", "152717.052500", "152717.842500", "152718.630000", "152719.417500", "152720.207500", "152720.995000", "152721.782500", "152722.570000", "152723.360000", "152724.147500", "152724.935000", "152725.722500", "152726.512500", "152727.300000", "152728.087500", "152728.875000", "152729.665000", "152730.452500", "152731.240000", "152732.027500", "152732.817500", "152733.605000", "152734.392500", "152735.180000", "152735.970000", "152736.757500", "152737.545000", "152738.335000", "152739.122500", "152739.910000", "152740.697500", "152741.487500", "152742.275000", "152743.062500", "152743.850000", "152744.640000", "152745.427500", "152746.215000", "152747.002500", "152747.792500", "152748.580000", "152749.367500", "152750.155000", "152750.945000", "152751.732500", "152752.520000", "152753.307500", "152754.097500", "152754.885000", "152755.672500", "152756.462500", "152757.250000", "152758.037500", "152758.825000", "152759.615000", "152800.402500", "152801.190000", "152801.977500", "152802.767500", "152803.555000", "152804.342500", "152805.130000", "152805.920000", "152806.707500", "152807.495000", "152808.282500", "152809.072500", "152809.860000", "152810.647500", "152811.435000", "152812.225000", "152813.012500", "152813.800000", "152814.590000", "152815.377500", "152816.165000", "152816.952500", "152817.742500", "152818.530000", "152819.317500", "152820.105000", "152820.895000", "152821.682500", "152822.470000", "152823.257500", "152824.047500", "152824.835000", "152825.622500", "152826.410000", "152827.200000", "152827.987500", "152828.775000", "152829.562500", "152830.352500", "152831.140000", "152831.927500", "152832.717500", "152833.505000", "152834.292500", "152835.080000", "152835.870000", "152836.657500", "152837.445000", "152838.232500", "152839.022500", "152839.810000", "152840.597500", "152841.385000", "152842.175000", "152842.962500", "152843.750000", "152844.537500", "152845.327500", "152846.115000", "152846.902500", "152847.690000", "152848.480000", "152849.267500", "152850.055000", "152850.845000", "152851.632500", "152852.420000", "152853.207500", "152853.997500", "152854.785000", "152855.572500", "152856.360000", "152857.150000", "152857.937500", "152858.725000", "152859.512500", "152900.302500", "152901.090000", "152901.877500", "152902.665000", "152903.455000", "152904.242500", "152905.030000", "152905.817500", "152906.607500", "152907.395000", "152908.182500", "152908.972500", "152909.760000", "152910.547500", "152911.335000", "152912.125000", "152912.912500", "152913.700000", "152914.487500", "152915.277500", "152916.065000", "152916.852500", "152917.640000", "152918.430000", "152919.217500", "152920.005000", "152920.792500", "152921.582500", "152922.370000", "152923.157500", "152923.945000", "152924.735000", "152925.522500", "152926.310000", "152927.100000", "152927.887500", "152928.675000", "152929.462500", "152930.252500", "152931.040000", "152931.827500", "152932.615000", "152933.405000", "152934.192500", "152934.980000", "152935.767500", "152936.557500", "152937.345000", "152938.132500", "152938.920000", "152939.710000", "152940.497500", "152941.285000", "152942.072500", "152942.862500", "152943.650000", "152944.437500", "152945.227500", "152946.015000", "152946.802500", "152947.590000", "152948.380000", "152949.167500", "152949.955000", "152950.742500", "152951.532500", "152952.320000", "152953.107500", "152953.895000", "152954.685000", "152955.472500", "152956.260000", "152957.047500", "152957.837500", "152958.625000", "152959.412500", "153000.200000", "153000.990000", "153001.777500", "153002.565000", "153003.355000", "153004.142500", "153004.930000", "153005.717500", "153006.507500", "153007.295000", "153008.082500", "153008.870000", "153009.660000", "153010.447500", "153011.235000", "153012.022500", "153012.812500", "153013.600000", "153014.387500", "153015.175000", "153015.965000", "153016.752500", "153017.540000", "153018.330000", "153019.117500", "153019.905000", "153020.692500", "153021.482500", "153022.270000", "153023.057500", "153023.845000", "153024.635000", "153025.422500", "153026.210000", "153026.997500", "153027.787500", "153028.575000", "153029.362500", "153030.150000", "153030.940000", "153031.727500", "153032.515000", "153033.302500", "153034.092500", "153034.880000", "153035.667500", "153036.457500", "153037.245000", "153038.032500", "153038.820000", "153039.610000", "153040.397500", "153041.185000", "153041.972500", "153042.762500", "153043.550000", "153044.337500", "153045.125000", "153045.915000", "153046.702500", "153047.490000", "153048.277500", "153049.067500", "153049.855000", "153050.642500", "153051.430000", "153052.220000", "153053.007500", "153053.795000", "153054.585000", "153055.372500", "153056.160000", "153056.947500", "153057.737500", "153058.525000", "153059.312500", "153100.100000", "153100.890000", "153101.677500", "153102.465000", "153103.252500", "153104.042500", "153104.830000", "153105.617500", "153106.405000", "153107.195000", "153107.982500", "153108.770000", "153109.557500", "153110.347500", "153111.135000", "153111.922500", "153112.712500", "153113.500000", "153114.287500", "153115.075000", "153115.865000", "153116.652500", "153117.440000", "153118.227500", "153119.017500", "153119.805000", "153120.592500", "153121.380000", "153122.170000", "153122.957500", "153123.745000", "153124.532500", "153125.322500", "153126.110000", "153126.897500", "153127.685000", "153128.475000", "153129.262500", "153130.050000", "153130.840000", "153131.627500", "153132.415000", "153133.202500", "153133.992500", "153134.780000", "153135.567500", "153136.355000", "153137.145000", "153137.932500", "153138.720000", "153139.507500", "153140.297500", "153141.085000", "153141.872500", "153142.660000", "153143.450000", "153144.237500", "153145.025000", "153145.812500", "153146.602500", "153147.390000", "153148.177500", "153148.967500", "153149.755000", "153150.542500", "153151.330000", "153152.120000", "153152.907500", "153153.695000", "153154.482500", "153155.272500", "153156.060000", "153156.847500", "153157.635000", "153158.425000", "153159.212500", "153200.000000", "153200.787500", "153201.577500", "153202.365000", "153203.152500", "153203.940000", "153204.730000", "153205.517500", "153206.305000", "153207.095000", "153207.882500", "153208.670000", "153209.457500", "153210.247500", "153211.035000", "153211.822500", "153212.610000", "153213.400000", "153214.187500", "153214.975000", "153215.762500", "153216.552500", "153217.340000", "153218.127500", "153218.915000", "153219.705000", "153220.492500", "153221.280000", "153222.067500", "153222.857500", "153223.645000", "153224.432500", "153225.222500", "153226.010000", "153226.797500", "153227.585000", "153228.375000", "153229.162500", "153229.950000", "153230.737500", "153231.527500", "153232.315000", "153233.102500", "153233.890000", "153234.680000", "153235.467500", "153236.255000", "153237.042500", "153237.832500", "153238.620000", "153239.407500", "153240.195000", "153240.985000", "153241.772500", "153242.560000", "153243.350000", "153244.137500", "153244.925000", "153245.712500", "153246.502500", "153247.290000", "153248.077500", "153248.865000", "153249.655000", "153250.442500", "153251.230000", "153252.017500", "153252.807500", "153253.595000", "153254.382500", "153255.170000", "153255.960000", "153256.747500", "153257.535000", "153258.322500", "153259.112500", "153259.900000", "153300.687500", "153301.477500", "153302.265000", "153303.052500", "153303.840000", "153304.630000", "153305.417500", "153306.205000", "153306.992500", "153307.782500", "153308.570000", "153309.357500", "153310.145000", "153310.935000", "153311.722500", "153312.510000", "153313.297500", "153314.087500", "153314.875000", "153315.662500", "153316.450000", "153317.240000", "153318.027500", "153318.815000", "153319.605000", "153320.392500", "153321.180000", "153321.967500", "153322.757500", "153323.545000", "153324.332500", "153325.120000", "153325.910000", "153326.697500", "153327.485000", "153328.272500", "153329.062500", "153329.850000", "153330.637500", "153331.425000", "153332.215000", "153333.002500", "153333.790000", "153334.580000", "153335.367500", "153336.155000", "153336.942500", "153337.732500", "153338.520000", "153339.307500", "153340.095000", "153340.885000", "153341.672500", "153342.460000", "153343.247500", "153344.037500", "153344.825000", "153345.612500", "153346.400000", "153347.190000", "153347.977500", "153348.765000", "153349.552500", "153350.342500", "153351.130000", "153351.917500", "153352.707500", "153353.495000", "153354.282500", "153355.070000", "153355.860000", "153356.647500", "153357.435000", "153358.222500", "153359.012500", "153359.800000", "153400.587500", "153401.375000", "153402.165000", "153402.952500", "153403.740000", "153404.527500", "153405.317500", "153406.105000", "153406.892500", "153407.680000", "153408.470000", "153409.257500", "153410.045000", "153410.835000", "153411.622500", "153412.410000", "153413.197500", "153413.987500", "153414.775000", "153415.562500", "153416.350000", "153417.140000", "153417.927500", "153418.715000", "153419.502500", "153420.292500", "153421.080000", "153421.867500", "153422.655000", "153423.445000", "153424.232500", "153425.020000", "153425.807500", "153426.597500", "153427.385000", "153428.172500", "153428.962500", "153429.750000", "153430.537500", "153431.325000", "153432.115000", "153432.902500", "153433.690000", "153434.477500", "153435.267500", "153436.055000", "153436.842500", "153437.630000", "153438.420000", "153439.207500", "153439.995000", "153440.782500", "153441.572500", "153442.360000", "153443.147500", "153443.935000", "153444.725000", "153445.512500", "153446.300000", "153447.090000", "153447.877500", "153448.665000", "153449.452500", "153450.242500", "153451.030000", "153451.817500", "153452.605000", "153453.395000", "153454.182500", "153454.970000", "153455.757500", "153456.547500", "153457.335000", "153458.122500", "153458.910000", "153459.700000", "153500.487500", "153501.275000", "153502.062500", "153502.852500", "153503.640000", "153504.427500", "153505.217500", "153506.005000", "153506.792500", "153507.580000", "153508.370000", "153509.157500", "153509.945000", "153510.732500", "153511.522500", "153512.310000", "153513.097500", "153513.885000", "153514.675000", "153515.462500", "153516.250000", "153517.037500", "153517.827500", "153518.615000", "153519.402500", "153520.190000", "153520.980000", "153521.767500", "153522.555000", "153523.345000", "153524.132500", "153524.920000", "153525.707500", "153526.497500", "153527.285000", "153528.072500", "153528.860000", "153529.650000", "153530.437500", "153531.225000", "153532.012500", "153532.802500", "153533.590000", "153534.377500", "153535.165000", "153535.955000", "153536.742500", "153537.530000", "153538.317500", "153539.107500", "153539.895000", "153540.682500", "153541.472500", "153542.260000", "153543.047500", "153543.835000", "153544.625000", "153545.412500", "153546.200000", "153546.987500", "153547.777500", "153548.565000", "153549.352500", "153550.140000", "153550.930000", "153551.717500", "153552.505000", "153553.292500", "153554.082500", "153554.870000", "153555.657500", "153556.445000", "153557.235000", "153558.022500", "153558.810000", "153559.600000", "153600.387500", "153601.175000", "153601.962500", "153602.752500", "153603.540000", "153604.327500", "153605.115000", "153605.905000", "153606.692500", "153607.480000", "153608.267500", "153609.057500", "153609.845000", "153610.632500", "153611.420000", "153612.210000", "153612.997500", "153613.785000", "153614.572500", "153615.362500", "153616.150000", "153616.937500", "153617.727500", "153618.515000", "153619.302500", "153620.090000", "153620.880000", "153621.667500", "153622.455000", "153623.242500", "153624.032500", "153624.820000", "153625.607500", "153626.395000", "153627.185000", "153627.972500", "153628.760000", "153629.547500", "153630.337500", "153631.125000", "153631.912500", "153632.700000", "153633.490000", "153634.277500", "153635.065000", "153635.855000", "153636.642500", "153637.430000", "153638.217500", "153639.007500", "153639.795000", "153640.582500", "153641.370000", "153642.160000", "153642.947500", "153643.735000", "153644.522500", "153645.312500", "153646.100000", "153646.887500", "153647.675000", "153648.465000", "153649.252500", "153650.040000", "153650.830000", "153651.617500", "153652.405000", "153653.192500", "153653.982500", "153654.770000", "153655.557500", "153656.345000", "153657.135000", "153657.922500", "153658.710000", "153659.497500", "153700.287500", "153701.075000", "153701.862500", "153702.650000", "153703.440000", "153704.227500", "153705.015000", "153705.802500", "153706.592500", "153707.380000", "153708.167500", "153708.957500", "153709.745000", "153710.532500", "153711.320000", "153712.110000", "153712.897500", "153713.685000", "153714.472500", "153715.262500", "153716.050000", "153716.837500", "153717.625000", "153718.415000", "153719.202500", "153719.990000", "153720.777500", "153721.567500", "153722.355000", "153723.142500", "153723.930000", "153724.720000", "153725.507500", "153726.295000"],
