{
  "AcquisitionMatrixPE": 104,
  "AcquisitionNumber": 1,
  "AcquisitionTime": "10:51:35.145000",
  "BandwidthPerPixelPhaseEncode": 13.935,
  "BaseResolution": 104,
  "CoilString": "C:HEA;HEP",
  "ConversionSoftware": "dcm2niix",
  "ConversionSoftwareVersion": "v1.0.20210317",
  "DerivedVendorReportedEchoSpacing": 0.000690017,
  "DeviceSerialNumber": "35450",
  "DwellTime": 2.5e-06,
  "EchoTime": 0.0348,
  "EffectiveEchoSpacing": 0.000690017,
  "FlipAngle": 55,
  "ImageComments": "Unaliased MB8/PE3 (remote)",
  "ImageOrientationPatientDICOM": [0.999452, -0.00363331, -0.0329077, -1.55814e-08, 0.99396, -0.109743],
  "ImageType": [
    "ORIGINAL",
    "PRIMARY",
    "M",
    "MB",
    "ND",
    "MOSAIC"
],
  "ImagingFrequency": 123.235,
  "InPlanePhaseEncodingDirectionDICOM": "COL",
  "InstitutionAddress": "Univeristy Ave. 197,Newark,North East,US,07102-1814",
  "InstitutionName": "RUBIC",
  "InstitutionalDepartmentName": "Department",
  "MRAcquisitionType": "2D",
  "MagneticFieldStrength": 3,
  "Manufacturer": "Siemens",
  "ManufacturersModelName": "TrioTim",
  "Modality": "MR",
  "MultibandAccelerationFactor": 8,
  "PartialFourier": 0.875,
  "PatientPosition": "HFS",
  "PercentPhaseFOV": 100,
  "PercentSampling": 100,
  "PhaseEncodingDirection": "j-",
  "PhaseEncodingSteps": 91,
  "PhaseResolution": 1,
  "PixelBandwidth": 1923,
  "ProcedureStepDescription": "Cole^Michael",
  "ProtocolName": "cmrr_mbep2d_bold_2mm_MB8_Task_8x",
  "PulseSequenceDetails": "%CustomerSeq%\\cmrr_mbep2d_bold",
  "ReceiveCoilName": "32Ch_Head",
  "ReconMatrixPE": 104,
  "RepetitionTime": 0.785,
  "SAR": 0.186869,
  "ScanOptions": "PFP\\FS",
  "ScanningSequence": "EP",
  "SequenceName": "epfid2d1_104",
  "SequenceVariant": "SK\\SS",
  "SeriesDescription": "cmrr_mbep2d_bold_2mm_MB8_Task_8x",
  "SeriesNumber": 13,
  "ShimSetting": [2141, -500, -7666, 521, 0, -619, -1111, 18],
  "SliceThickness": 2,
  "SliceTiming": [0, 0.4375, 0.0875, 0.525, 0.175, 0.6125, 0.2625, 0.7, 0.35, 0, 0.4375, 0.0875, 0.525, 0.175, 0.6125, 0.2625, 0.7, 0.35, 0, 0.4375, 0.0875, 0.525, 0.175, 0.6125, 0.2625, 0.7, 0.35, 0, 0.4375, 0.0875, 0.525, 0.175, 0.6125, 0.2625, 0.7, 0.35, 0, 0.4375, 0.0875, 0.525, 0.175, 0.6125, 0.2625, 0.7, 0.35, 0, 0.4375, 0.0875, 0.525, 0.175, 0.6125, 0.2625, 0.7, 0.35, 0, 0.4375, 0.0875, 0.525, 0.175, 0.6125, 0.2625, 0.7, 0.35, 0, 0.4375, 0.0875, 0.525, 0.175, 0.6125, 0.2625, 0.7, 0.35],
  "SoftwareVersions": "syngo MR B19",
  "SpacingBetweenSlices": 2,
  "StationName": "MRC35450",
  "TaskName": "cpro",
  "TotalReadoutTime": 0.0710717,
  "TxRefAmp": 349.969,
  "dcmmeta_affine": [
    [-1.9989036321640015, -3.1162716851440564e-08, -0.0662154108285904, 103.55355072021484],
    [0.007266628555953503, 1.9879200458526611, -0.21936510503292084, -75.86308288574219],
    [-0.06581547856330872, 0.21948543190956116, 1.986830234527588, -119.38642120361328],
    [0.0, 0.0, 0.0, 1.0]
],
  "dcmmeta_reorient_transform": [
    [0.0, -1.0, 0.0, 103.0],
    [1.0, 0.0, 0.0, 0.0],
    [0.0, 0.0, 1.0, 0.0],
    [0.0, 0.0, 0.0, 1.0]
],
  "dcmmeta_shape": [104, 104, 72, 581],
  "dcmmeta_slice_dim": 2,
  "dcmmeta_version": 0.6,
  "global": {
    "const": {
      "AcquisitionMatrix": [104, 0, 0, 104],
      "AngioFlag": "N",
      "BitsAllocated": 16,
      "BitsStored": 12,
      "Columns": 936,
      "EchoNumbers": 1,
      "EchoTime": 34.8,
      "EchoTrainLength": 1,
      "FlipAngle": 55.0,
      "HighBit": 11,
      "ImageOrientationPatient": [0.9994517896099, -0.0036333141749, -0.0329077388114, -1.5581358e-08, 0.99396002752351, -0.1097427158652],
      "ImagePositionPatient": [-935.09742090789, -952.84450631572, 21.90575904895],
      "ImageType": [
        "ORIGINAL",
        "PRIMARY",
        "M",
        "MB",
        "ND",
        "MOSAIC"
],
      "ImagedNucleus": "1H",
      "ImagingFrequency": 123.234752,
      "InPlanePhaseEncodingDirection": "COL",
      "MRAcquisitionType": "2D",
      "MagneticFieldStrength": 3.0,
      "Manufacturer": "SIEMENS",
      "ManufacturerModelName": "TrioTim",
      "Modality": "MR",
      "NumberOfAverages": 1.0,
      "NumberOfPhaseEncodingSteps": 91,
      "PercentPhaseFieldOfView": 100.0,
      "PercentSampling": 100.0,
      "PerformedProcedureStepStartTime": "100406.109000",
      "PhotometricInterpretation": "MONOCHROME2",
      "PixelBandwidth": 1923.0,
      "PixelRepresentation": 0,
      "PixelSpacing": [2.0, 2.0],
      "ProtocolName": "cmrr_mbep2d_bold_2mm_MB8_Task_8x",
      "RepetitionTime": 785.0,
      "Rows": 936,
      "SAR": 0.18686891592509,
      "SamplesPerPixel": 1,
      "ScanOptions": [
        "PFP",
        "FS"
],
      "ScanningSequence": "EP",
      "SequenceName": "epfid2d1_104",
      "SequenceVariant": [
        "SK",
        "SS"
],
      "SeriesDescription": "cmrr_mbep2d_bold_2mm_MB8_Task_8x",
      "SeriesNumber": 13,
      "SeriesTime": "105152.453000",
      "SliceLocation": -113.70783803472,
      "SliceThickness": 2.0,
      "SmallestImagePixelValue": 0,
      "SoftwareVersions": "syngo MR B19",
      "SpacingBetweenSlices": 1.9999999831704,
      "SpecificCharacterSet": "ISO_IR 100",
      "StudyID": "1",
      "StudyTime": "100406.046000",
      "TransmitCoilName": "Body",
      "VariableFlipAngleFlag": "N",
      "WindowCenterWidthExplanation": "Algo1",
      "dBdt": 0.0},
    "slices": {}
  },
  "time": {
    "samples": {
      "AcquisitionNumber": [1, 2, 3, 4, 5, 6, 7, 8, 9, 10, 11, 12, 13, 14, 15, 16, 17, 18, 19, 20, 21, 22, 23, 24, 25, 26, 27, 28, 29, 30, 31, 32, 33, 34, 35, 36, 37, 38, 39, 40, 41, 42, 43, 44, 45, 46, 47, 48, 49, 50, 51, 52, 53, 54, 55, 56, 57, 58, 59, 60, 61, 62, 63, 64, 65, 66, 67, 68, 69, 70, 71, 72, 73, 74, 75, 76, 77, 78, 79, 80, 81, 82, 83, 84, 85, 86, 87, 88, 89, 90, 91, 92, 93, 94, 95, 96, 97, 98, 99, 100, 101, 102, 103, 104, 105, 106, 107, 108, 109, 110, 111, 112, 113, 114, 115, 116, 117, 118, 119, 120, 121, 122, 123, 124, 125, 126, 127, 128, 129, 130, 131, 132, 133, 134, 135, 136, 137, 138, 139, 140, 141, 142, 143, 144, 145, 146, 147, 148, 149, 150, 151, 152, 153, 154, 155, 156, 157, 158, 159, 160, 161, 162, 163, 164, 165, 166, 167, 168, 169, 170, 171, 172, 173, 174, 175, 176, 177, 178, 179, 180, 181, 182, 183, 184, 185, 186, 187, 188, 189, 190, 191, 192, 193, 194, 195, 196, 197, 198, 199, 200, 201, 202, 203, 204, 205, 206, 207, 208, 209, 210, 211, 212, 213, 214, 215, 216, 217, 218, 219, 220, 221, 222, 223, 224, 225, 226, 227, 228, 229, 230, 231, 232, 233, 234, 235, 236, 237, 238, 239, 240, 241, 242, 243, 244, 245, 246, 247, 248, 249, 250, 251, 252, 253, 254, 255, 256, 257, 258, 259, 260, 261, 262, 263, 264, 265, 266, 267, 268, 269, 270, 271, 272, 273, 274, 275, 276, 277, 278, 279, 280, 281, 282, 283, 284, 285, 286, 287, 288, 289, 290, 291, 292, 293, 294, 295, 296, 297, 298, 299, 300, 301, 302, 303, 304, 305, 306, 307, 308, 309, 310, 311, 312, 313, 314, 315, 316, 317, 318, 319, 320, 321, 322, 323, 324, 325, 326, 327, 328, 329, 330, 331, 332, 333, 334, 335, 336, 337, 338, 339, 340, 341, 342, 343, 344, 345, 346, 347, 348, 349, 350, 351, 352, 353, 354, 355, 356, 357, 358, 359, 360, 361, 362, 363, 364, 365, 366, 367, 368, 369, 370, 371, 372, 373, 374, 375, 376, 377, 378, 379, 380, 381, 382, 383, 384, 385, 386, 387, 388, 389, 390, 391, 392, 393, 394, 395, 396, 397, 398, 399, 400, 401, 402, 403, 404, 405, 406, 407, 408, 409, 410, 411, 412, 413, 414, 415, 416, 417, 418, 419, 420, 421, 422, 423, 424, 425, 426, 427, 428, 429, 430, 431, 432, 433, 434, 435, 436, 437, 438, 439, 440, 441, 442, 443, 444, 445, 446, 447, 448, 449, 450, 451, 452, 453, 454, 455, 456, 457, 458, 459, 460, 461, 462, 463, 464, 465, 466, 467, 468, 469, 470, 471, 472, 473, 474, 475, 476, 477, 478, 479, 480, 481, 482, 483, 484, 485, 486, 487, 488, 489, 490, 491, 492, 493, 494, 495, 496, 497, 498, 499, 500, 501, 502, 503, 504, 505, 506, 507, 508, 509, 510, 511, 512, 513, 514, 515, 516, 517, 518, 519, 520, 521, 522, 523, 524, 525, 526, 527, 528, 529, 530, 531, 532, 533, 534, 535, 536, 537, 538, 539, 540, 541, 542, 543, 544, 545, 546, 547, 548, 549, 550, 551, 552, 553, 554, 555, 556, 557, 558, 559, 560, 561, 562, 563, 564, 565, 566, 567, 568, 569, 570, 571, 572, 573, 574, 575, 576, 577, 578, 579, 580, 581],
      "AcquisitionTime": ["105135.145000", "105135.932500", "105136.720000", "105137.510000", "105138.297500", "105139.085000", "105139.872500", "105140.662500", "105141.450000", "105142.237500", "105143.025000", "105143.815000", "105144.602500", "105145.390000", "105146.177500", "105146.967500", "105147.755000", "105148.542500", "105149.330000", "105150.120000", "105150.907500", "105151.695000", "105152.485000", "105153.272500", "105154.060000", "105154.847500", "105155.637500", "105156.425000", "105157.212500", "105158.000000", "105158.790000", "105159.577500", "105200.365000", "105201.152500", "105201.942500", "105202.730000", "105203.517500", "105204.305000", "105205.095000", "105205.882500", "105206.670000", "105207.457500", "105208.247500", "105209.035000", "105209.822500", "105210.612500", "105211.400000", "105212.187500", "105212.975000", "105213.765000", "105214.552500", "105215.340000", "105216.127500", "105216.917500", "105217.705000", "105218.492500", "105219.280000", "105220.070000", "105220.857500", "105221.645000", "105222.432500", "105223.222500", "105224.010000", "105224.797500", "105225.585000", "105226.375000", "105227.162500", "105227.950000", "105228.740000", "105229.527500", "105230.315000", "105231.102500", "105231.892500", "105232.680000", "105233.467500", "105234.255000", "105235.045000", "105235.832500", "105236.620000", "105237.407500", "105238.197500", "105238.985000", "105239.772500", "105240.560000", "105241.350000", "105242.137500", "105242.925000", "105243.715000", "105244.502500", "105245.290000", "105246.077500", "105246.867500", "105247.655000", "105248.442500", "105249.230000", "105250.020000", "105250.807500", "105251.595000", "105252.382500", "105253.172500", "105253.960000", "105254.747500", "105255.535000", "105256.325000", "105257.112500", "105257.900000", "105258.687500", "105259.477500", "105300.265000", "105301.052500", "105301.842500", "105302.630000", "105303.417500", "105304.205000", "105304.995000", "105305.782500", "105306.570000", "105307.357500", "105308.147500", "105308.935000", "105309.722500", "105310.510000", "105311.300000", "105312.087500", "105312.875000", "105313.662500", "105314.452500", "105315.240000", "105316.027500", "105316.815000", "105317.605000", "105318.392500", "105319.180000", "105319.970000", "105320.757500", "105321.545000", "105322.332500", "105323.122500", "105323.910000", "105324.697500", "105325.485000", "105326.275000", "105327.062500", "105327.850000", "105328.637500", "105329.427500", "105330.215000", "105331.002500", "105331.790000", "105332.580000", "105333.367500", "105334.155000", "105334.942500", "105335.732500", "105336.520000", "105337.307500", "105338.097500", "105338.885000", "105339.672500", "105340.460000", "105341.250000", "105342.037500", "105342.825000", "105343.612500", "105344.402500", "105345.190000", "105345.977500", "105346.765000", "105347.555000", "105348.342500", "105349.130000", "105349.917500", "105350.707500", "105351.495000", "105352.282500", "105353.070000", "105353.860000", "105354.647500", "105355.435000", "105356.225000", "105357.012500", "105357.800000", "105358.587500", "105359.377500", "105400.165000", "105400.952500", "105401.740000", "105402.530000", "105403.317500", "105404.105000", "105404.892500", "105405.682500", "105406.470000", "105407.257500", "105408.045000", "105408.835000", "105409.622500", "105410.410000", "105411.197500", "105411.987500", "105412.775000", "105413.562500", "105414.352500", "105415.140000", "105415.927500", "105416.715000", "105417.505000", "105418.292500", "105419.080000", "105419.867500", "105420.657500", "105421.445000", "105422.232500", "105423.020000", "105423.810000", "105424.597500", "105425.385000", "105426.172500", "105426.962500", "105427.750000", "105428.537500", "105429.325000", "105430.115000", "105430.902500", "105431.690000", "105432.480000", "105433.267500", "105434.055000", "105434.842500", "105435.632500", "105436.420000", "105437.207500", "105437.995000", "105438.785000", "105439.572500", "105440.360000", "105441.147500", "105441.937500", "105442.725000", "105443.512500", "105444.300000", "105445.090000", "105445.877500", "105446.665000", "105447.452500", "105448.242500", "105449.030000", "105449.817500", "105450.607500", "105451.395000", "105452.182500", "105452.970000", "105453.760000", "105454.547500", "105455.335000", "105456.122500", "105456.912500", "105457.700000", "105458.487500", "105459.275000", "105500.065000", "105500.852500", "105501.640000", "105502.427500", "105503.217500", "105504.005000", "105504.792500", "105505.580000", "105506.370000", "105507.157500", "105507.945000", "105508.735000", "105509.522500", "105510.310000", "105511.097500", "105511.887500", "105512.675000", "105513.462500", "105514.250000", "105515.040000", "105515.827500", "105516.615000", "105517.402500", "105518.192500", "105518.980000", "105519.767500", "105520.555000", "105521.345000", "105522.132500", "105522.920000", "105523.707500", "105524.497500", "105525.285000", "105526.072500", "105526.862500", "105527.650000", "105528.437500", "105529.225000", "105530.015000", "105530.802500", "105531.590000", "105532.377500", "105533.167500", "105533.955000", "105534.742500", "105535.530000", "105536.320000", "105537.107500", "105537.895000", "105538.682500", "105539.472500", "105540.260000", "105541.047500", "105541.835000", "105542.625000", "105543.412500", "105544.200000", "105544.990000", "105545.777500", "105546.565000", "105547.352500", "105548.142500", "105548.930000", "105549.717500", "105550.505000", "105551.295000", "105552.082500", "105552.870000", "105553.657500", "105554.447500", "105555.235000", "105556.022500", "105556.810000", "105557.600000", "105558.387500", "105559.175000", "105559.965000", "105600.752500", "105601.540000", "105602.327500", "105603.117500", "105603.905000", "105604.692500", "105605.480000", "105606.270000", "105607.057500", "105607.845000", "105608.632500", "105609.422500", "105610.210000", "105610.997500", "105611.785000", "105612.575000", "105613.362500", "105614.150000", "105614.937500", "105615.727500", "105616.515000", "105617.302500", "105618.092500", "105618.880000", "105619.667500", "105620.455000", "105621.245000", "105622.032500", "105622.820000", "105623.607500", "105624.397500", "105625.185000", "105625.972500", "105626.760000", "105627.550000", "105628.337500", "105629.125000", "105629.912500", "105630.702500", "105631.490000", "105632.277500", "105633.065000", "105633.855000", "105634.642500", "105635.430000", "105636.220000", "105637.007500", "105637.795000", "105638.582500", "105639.372500", "105640.160000", "105640.947500", "105641.735000", "105642.525000", "105643.312500", "105644.100000", "105644.887500", "105645.677500", "105646.465000", "105647.252500", "105648.040000", "105648.830000", "105649.617500", "105650.405000", "105651.192500", "105651.982500", "105652.770000", "105653.557500", "105654.347500", "105655.135000", "105655.922500", "105656.710000", "105657.500000", "105658.287500", "105659.075000", "105659.862500", "105700.652500", "105701.440000", "105702.227500", "105703.015000", "105703.805000", "105704.592500", "105705.380000", "105706.167500", "105706.957500", "105707.745000", "105708.532500", "105709.320000", "105710.110000", "105710.897500", "105711.685000", "105712.475000", "105713.262500", "105714.050000", "105714.837500", "105715.627500", "105716.415000", "105717.202500", "105717.990000", "105718.780000", "105719.567500", "105720.355000", "105721.142500", "105721.932500", "105722.720000", "105723.507500", "105724.295000", "105725.085000", "105725.872500", "105726.660000", "105727.447500", "105728.237500", "105729.025000", "105729.812500", "105730.602500", "105731.390000", "105732.177500", "105732.965000", "105733.755000", "105734.542500", "105735.330000", "105736.117500", "105736.907500", "105737.695000", "105738.482500", "105739.270000", "105740.060000", "105740.847500", "105741.635000", "105742.422500", "105743.212500", "105744.000000", "105744.787500", "105745.575000", "105746.365000", "105747.152500", "105747.940000", "105748.730000", "105749.517500", "105750.305000", "105751.092500", "105751.882500", "105752.670000", "105753.457500", "105754.245000", "105755.035000", "105755.822500", "105756.610000", "105757.397500", "105758.187500", "105758.975000", "105759.762500", "105800.550000", "105801.340000", "105802.127500", "105802.915000", "105803.702500", "105804.492500", "105805.280000", "105806.067500", "105806.857500", "105807.645000", "105808.432500", "105809.220000", "105810.010000", "105810.797500", "105811.585000", "105812.372500", "105813.162500", "105813.950000", "105814.737500", "105815.525000", "105816.315000", "105817.102500", "105817.890000", "105818.677500", "105819.467500", "105820.255000", "105821.042500", "105821.830000", "105822.620000", "105823.407500", "105824.195000", "105824.985000", "105825.772500", "105826.560000", "105827.347500", "105828.137500", "105828.925000", "105829.712500", "105830.500000", "105831.290000", "105832.077500", "105832.865000", "105833.652500", "105834.442500", "105835.230000", "105836.017500", "105836.805000", "105837.595000", "105838.382500", "105839.170000", "105839.957500", "105840.747500", "105841.535000", "105842.322500", "105843.112500", "105843.900000", "105844.687500", "105845.475000", "105846.265000", "105847.052500", "105847.840000", "105848.627500", "105849.417500", "105850.205000", "105850.992500", "105851.780000", "105852.570000", "105853.357500", "105854.145000", "105854.932500", "105855.722500", "105856.510000", "105857.297500", "105858.085000", "105858.875000", "105859.662500", "105900.450000", "105901.240000", "105902.027500", "105902.815000", "105903.602500", "105904.392500", "105905.180000", "105905.967500", "105906.755000", "105907.545000", "105908.332500", "105909.120000", "105909.907500", "105910.697500", "105911.485000", "105912.272500"],
      "ContentTime": ["105152.453000", "105152.453000", "105152.453000", "105152.453000", "105152.453000", "105152.468000", "105152.468000", "105152.468000", "105152.468000", "105152.468000", "105152.468000", "105152.484000", "105152.484000", "105152.484000", "105152.484000", "105152.484000", "105152.484000", "105152.484000", "105152.484000", "105152.500000", "105212.421000", "105212.437000", "105212.437000", "105212.437000", "105212.437000", "105212.437000", "105212.453000", "105212.453000", "105212.453000", "105212.453000", "105212.453000", "105212.453000", "105212.453000", "105212.453000", "105212.468000", "105212.468000", "105212.468000", "105212.468000", "105212.468000", "105212.468000", "105212.468000", "105212.484000", "105212.484000", "105212.484000", "105212.484000", "105232.421000", "105232.437000", "105232.437000", "105232.437000", "105232.437000", "105232.437000", "105232.437000", "105232.437000", "105232.437000", "105232.453000", "105232.453000", "105232.453000", "105232.453000", "105232.468000", "105232.468000", "105232.468000", "105232.468000", "105232.468000", "105232.468000", "105232.468000", "105232.484000", "105232.484000", "105232.484000", "105232.484000", "105232.484000", "105232.484000", "105252.421000", "105252.437000", "105252.437000", "105252.437000", "105252.437000", "105252.437000", "105252.437000", "105252.437000", "105252.437000", "105252.453000", "105252.453000", "105252.453000", "105252.453000", "105252.453000", "105252.453000", "105252.453000", "105252.468000", "105252.468000", "105252.468000", "105252.468000", "105252.468000", "105252.468000", "105252.468000", "105252.468000", "105252.484000", "105312.421000", "105312.437000", "105312.437000", "105312.437000", "105312.437000", "105312.437000", "105312.437000", "105312.437000", "105312.437000", "105312.453000", "105312.453000", "105312.453000", "105312.453000", "105312.453000", "105312.453000", "105312.453000", "105312.468000", "105312.468000", "105312.468000", "105312.468000", "105312.468000", "105312.484000", "105312.484000", "105312.484000", "105312.484000", "105312.484000", "105332.421000", "105332.437000", "105332.437000", "105332.437000", "105332.437000", "105332.437000", "105332.437000", "105332.437000", "105332.437000", "105332.453000", "105332.453000", "105332.453000", "105332.453000", "105332.453000", "105332.453000", "105332.453000", "105332.468000", "105332.468000", "105332.468000", "105332.468000", "105332.468000", "105332.468000", "105332.484000", "105332.484000", "105332.484000", "105352.421000", "105352.437000", "105352.437000", "105352.437000", "105352.437000", "105352.437000", "105352.437000", "105352.437000", "105352.437000", "105352.453000", "105352.453000", "105352.453000", "105352.453000", "105352.453000", "105352.453000", "105352.453000", "105352.468000", "105352.468000", "105352.468000", "105352.468000", "105352.468000", "105352.468000", "105352.468000", "105352.468000", "105352.484000", "105352.484000", "105412.421000", "105412.437000", "105412.437000", "105412.437000", "105412.437000", "105412.437000", "105412.437000", "105412.453000", "105412.453000", "105412.453000", "105412.453000", "105412.453000", "105412.453000", "105412.468000", "105412.468000", "105412.468000", "105412.468000", "105412.468000", "105412.468000", "105412.468000", "105412.484000", "105412.484000", "105412.484000", "105412.484000", "105412.484000", "105432.421000", "105432.437000", "105432.437000", "105432.437000", "105432.437000", "105432.437000", "105432.437000", "105432.437000", "105432.437000", "105432.453000", "105432.453000", "105432.453000", "105432.453000", "105432.453000", "105432.453000", "105432.453000", "105432.468000", "105432.468000", "105432.468000", "105432.468000", "105432.468000", "105432.468000", "105432.468000", "105432.468000", "105432.484000", "105432.484000", "105452.421000", "105452.437000", "105452.437000", "105452.437000", "105452.437000", "105452.437000", "105452.437000", "105452.437000", "105452.437000", "105452.453000", "105452.453000", "105452.453000", "105452.453000", "105452.453000", "105452.453000", "105452.453000", "105452.468000", "105452.468000", "105452.468000", "105452.468000", "105452.468000", "105452.468000", "105452.484000", "105452.484000", "105452.484000", "105512.421000", "105512.437000", "105512.437000", "105512.437000", "105512.437000", "105512.437000", "105512.437000", "105512.437000", "105512.437000", "105512.453000", "105512.453000", "105512.453000", "105512.453000", "105512.453000", "105512.453000", "105512.453000", "105512.468000", "105512.468000", "105512.468000", "105512.468000", "105512.468000", "105512.468000", "105512.468000", "105512.484000", "105512.484000", "105512.484000", "105532.421000", "105532.437000", "105532.437000", "105532.437000", "105532.437000", "105532.437000", "105532.437000", "105532.437000", "105532.437000", "105532.453000", "105532.453000", "105532.453000", "105532.453000", "105532.453000", "105532.453000", "105532.453000", "105532.468000", "105532.468000", "105532.468000", "105532.468000", "105532.468000", "105532.468000", "105532.468000", "105532.468000", "105532.484000", "105552.421000", "105552.437000", "105552.437000", "105552.437000", "105552.437000", "105552.437000", "105552.437000", "105552.437000", "105552.453000", "105552.453000", "105552.453000", "105552.453000", "105552.453000", "105552.453000", "105552.453000", "105552.453000", "105552.468000", "105552.468000", "105552.468000", "105552.468000", "105552.468000", "105552.468000", "105552.468000", "105552.484000", "105552.484000", "105552.484000", "105612.421000", "105612.437000", "105612.437000", "105612.437000", "105612.437000", "105612.437000", "105612.437000", "105612.437000", "105612.437000", "105612.453000", "105612.453000", "105612.453000", "105612.453000", "105612.453000", "105612.453000", "105612.453000", "105612.468000", "105612.468000", "105612.468000", "105612.468000", "105612.468000", "105612.468000", "105612.468000", "105612.484000", "105612.484000", "105632.421000", "105632.437000", "105632.437000", "105632.437000", "105632.437000", "105632.437000", "105632.437000", "105632.437000", "105632.437000", "105632.453000", "105632.453000", "105632.453000", "105632.453000", "105632.453000", "105632.453000", "105632.453000", "105632.468000", "105632.468000", "105632.468000", "105632.468000", "105632.468000", "105632.468000", "105632.468000", "105632.484000", "105632.484000", "105632.484000", "105652.421000", "105652.437000", "105652.437000", "105652.437000", "105652.437000", "105652.437000", "105652.453000", "105652.453000", "105652.453000", "105652.453000", "105652.453000", "105652.453000", "105652.468000", "105652.468000", "105652.468000", "105652.468000", "105652.484000", "105652.484000", "105652.484000", "105652.484000", "105652.484000", "105652.484000", "105652.484000", "105652.500000", "105652.500000", "105712.421000", "105712.437000", "105712.437000", "105712.437000", "105712.437000", "105712.437000", "105712.437000", "105712.453000", "105712.453000", "105712.453000", "105712.453000", "105712.453000", "105712.453000", "105712.468000", "105712.468000", "105712.468000", "105712.468000", "105712.468000", "105712.468000", "105712.484000", "105712.484000", "105712.484000", "105712.484000", "105712.484000", "105712.484000", "105732.421000", "105732.437000", "105732.437000", "105732.437000", "105732.437000", "105732.437000", "105732.437000", "105732.437000", "105732.453000", "105732.453000", "105732.453000", "105732.453000", "105732.453000", "105732.453000", "105732.468000", "105732.468000", "105732.468000", "105732.468000", "105732.468000", "105732.468000", "105732.468000", "105732.484000", "105732.484000", "105732.484000", "105732.484000", "105732.484000", "105752.421000", "105752.437000", "105752.437000", "105752.437000", "105752.437000", "105752.437000", "105752.437000", "105752.437000", "105752.437000", "105752.453000", "105752.453000", "105752.453000", "105752.453000", "105752.453000", "105752.453000", "105752.453000", "105752.453000", "105752.468000", "105752.468000", "105752.468000", "105752.468000", "105752.468000", "105752.468000", "105752.484000", "105752.484000", "105752.484000", "105812.421000", "105812.437000", "105812.437000", "105812.437000", "105812.437000", "105812.437000", "105812.437000", "105812.437000", "105812.437000", "105812.453000", "105812.453000", "105812.453000", "105812.453000", "105812.453000", "105812.453000", "105812.453000", "105812.468000", "105812.468000", "105812.468000", "105812.468000", "105812.468000", "105812.468000", "105812.468000", "105812.468000", "105812.484000", "105832.421000", "105832.437000", "105832.437000", "105832.437000", "105832.437000", "105832.437000", "105832.437000", "105832.437000", "105832.437000", "105832.453000", "105832.453000", "105832.453000", "105832.453000", "105832.453000", "105832.453000", "105832.453000", "105832.468000", "105832.468000", "105832.468000", "105832.468000", "105832.468000", "105832.468000", "105832.468000", "105832.484000", "105832.484000", "105852.421000", "105852.437000", "105852.437000", "105852.437000", "105852.437000", "105852.437000", "105852.437000", "105852.437000", "105852.453000", "105852.453000", "105852.453000", "105852.453000", "105852.453000", "105852.453000", "105852.453000", "105852.453000", "105852.468000", "105852.468000", "105852.468000", "105852.468000", "105852.468000", "105852.468000", "105852.468000", "105852.484000", "105852.484000", "105852.484000", "105912.437000", "105912.437000", "105912.437000", "105912.437000", "105912.437000", "105912.453000", "105912.453000", "105912.453000", "105912.453000", "105912.453000", "105912.453000", "105912.468000", "105912.468000", "105912.468000", "105912.468000", "105912.468000", "105912.468000", "105912.468000", "105912.484000", "105912.484000", "105912.484000", "105912.484000", "105912.484000", "105912.484000", "105912.500000", "105912.500000"],
