{
  "AcquisitionMatrixPE": 104,
  "AcquisitionNumber": 1,
  "AcquisitionTime": "11:39:36.657500",
  "BandwidthPerPixelPhaseEncode": 13.935,
  "BaseResolution": 104,
  "CoilString": "C:HEA;HEP",
  "ConversionSoftware": "dcm2niix",
  "ConversionSoftwareVersion": "v1.0.20210317",
  "DerivedVendorReportedEchoSpacing": 0.000690017,
  "DeviceSerialNumber": "35450",
  "DwellTime": 2.5e-06,
  "EchoTime": 0.0348,
  "EffectiveEchoSpacing": 0.000690017,
  "FlipAngle": 55,
  "ImageComments": "Unaliased MB8/PE3 (remote)",
  "ImageOrientationPatientDICOM": [0.999452, -0.00363331, -0.0329077, -1.55814e-08, 0.99396, -0.109743],
  "ImageType": [
    "ORIGINAL",
    "PRIMARY",
    "M",
    "MB",
    "ND",
    "MOSAIC"
],
  "ImagingFrequency": 123.235,
  "InPlanePhaseEncodingDirectionDICOM": "COL",
  "InstitutionAddress": "Univeristy Ave. 197,Newark,North East,US,07102-1814",
  "InstitutionName": "RUBIC",
  "InstitutionalDepartmentName": "Department",
  "MRAcquisitionType": "2D",
  "MagneticFieldStrength": 3,
  "Manufacturer": "Siemens",
  "ManufacturersModelName": "TrioTim",
  "Modality": "MR",
  "MultibandAccelerationFactor": 8,
  "PartialFourier": 0.875,
  "PatientPosition": "HFS",
  "PercentPhaseFOV": 100,
  "PercentSampling": 100,
  "PhaseEncodingDirection": "j-",
  "PhaseEncodingSteps": 91,
  "PhaseResolution": 1,
  "PixelBandwidth": 1923,
  "ProcedureStepDescription": "Cole^Michael",
  "ProtocolName": "cmrr_mbep2d_bold_2mm_MB8_Task_8x",
  "PulseSequenceDetails": "%CustomerSeq%\\cmrr_mbep2d_bold",
  "ReceiveCoilName": "32Ch_Head",
  "ReconMatrixPE": 104,
  "RepetitionTime": 0.785,
  "SAR": 0.16972,
  "ScanOptions": "PFP\\FS",
  "ScanningSequence": "EP",
  "SequenceName": "epfid2d1_104",
  "SequenceVariant": "SK\\SS",
  "SeriesDescription": "cmrr_mbep2d_bold_2mm_MB8_Task_8x",
  "SeriesNumber": 25,
  "ShimSetting": [2141, -500, -7666, 521, 0, -619, -1111, 18],
  "SliceThickness": 2,
  "SliceTiming": [0, 0.4375, 0.0875, 0.525, 0.175, 0.6125, 0.2625, 0.7, 0.35, 0, 0.4375, 0.0875, 0.525, 0.175, 0.6125, 0.2625, 0.7, 0.35, 0, 0.4375, 0.0875, 0.525, 0.175, 0.6125, 0.2625, 0.7, 0.35, 0, 0.4375, 0.0875, 0.525, 0.175, 0.6125, 0.2625, 0.7, 0.35, 0, 0.4375, 0.0875, 0.525, 0.175, 0.6125, 0.2625, 0.7, 0.35, 0, 0.4375, 0.0875, 0.525, 0.175, 0.6125, 0.2625, 0.7, 0.35, 0, 0.4375, 0.0875, 0.525, 0.175, 0.6125, 0.2625, 0.7, 0.35, 0, 0.4375, 0.0875, 0.525, 0.175, 0.6125, 0.2625, 0.7, 0.35],
  "SoftwareVersions": "syngo MR B19",
  "SpacingBetweenSlices": 2,
  "StationName": "MRC35450",
  "TaskName": "cpro",
  "TotalReadoutTime": 0.0710717,
  "TxRefAmp": 349.969,
  "dcmmeta_affine": [
    [-1.9989036321640015, -3.1162716851440564e-08, -0.0662154108285904, 103.55355072021484],
    [0.007266628555953503, 1.9879200458526611, -0.21936510503292084, -75.86308288574219],
    [-0.06581547856330872, 0.21948543190956116, 1.986830234527588, -119.38642120361328],
    [0.0, 0.0, 0.0, 1.0]
],
  "dcmmeta_reorient_transform": [
    [0.0, -1.0, 0.0, 103.0],
    [1.0, 0.0, 0.0, 0.0],
    [0.0, 0.0, 1.0, 0.0],
    [0.0, 0.0, 0.0, 1.0]
],
  "dcmmeta_shape": [104, 104, 72, 581],
  "dcmmeta_slice_dim": 2,
  "dcmmeta_version": 0.6,
  "global": {
    "const": {
      "AcquisitionMatrix": [104, 0, 0, 104],
      "AngioFlag": "N",
      "BitsAllocated": 16,
      "BitsStored": 12,
      "Columns": 936,
      "EchoNumbers": 1,
      "EchoTime": 34.8,
      "EchoTrainLength": 1,
      "FlipAngle": 55.0,
      "HighBit": 11,
      "ImageOrientationPatient": [0.9994517896099, -0.0036333141749, -0.0329077388114, -1.5581358e-08, 0.99396002752351, -0.1097427158652],
      "ImagePositionPatient": [-935.09742090789, -952.84450631572, 21.90575904895],
      "ImageType": [
        "ORIGINAL",
        "PRIMARY",
        "M",
        "MB",
        "ND",
        "MOSAIC"
],
      "ImagedNucleus": "1H",
      "ImagingFrequency": 123.234752,
      "InPlanePhaseEncodingDirection": "COL",
      "MRAcquisitionType": "2D",
      "MagneticFieldStrength": 3.0,
      "Manufacturer": "SIEMENS",
      "ManufacturerModelName": "TrioTim",
      "Modality": "MR",
      "NumberOfAverages": 1.0,
      "NumberOfPhaseEncodingSteps": 91,
      "PercentPhaseFieldOfView": 100.0,
      "PercentSampling": 100.0,
      "PerformedProcedureStepStartTime": "100406.109000",
      "PhotometricInterpretation": "MONOCHROME2",
      "PixelBandwidth": 1923.0,
      "PixelRepresentation": 0,
      "PixelSpacing": [2.0, 2.0],
      "ProtocolName": "cmrr_mbep2d_bold_2mm_MB8_Task_8x",
      "RepetitionTime": 785.0,
      "Rows": 936,
      "SAR": 0.16971983118393,
      "SamplesPerPixel": 1,
      "ScanOptions": [
        "PFP",
        "FS"
],
      "ScanningSequence": "EP",
      "SequenceName": "epfid2d1_104",
      "SequenceVariant": [
        "SK",
        "SS"
],
      "SeriesDescription": "cmrr_mbep2d_bold_2mm_MB8_Task_8x",
      "SeriesNumber": 25,
      "SeriesTime": "114012.453000",
      "SliceLocation": -113.70783803472,
      "SliceThickness": 2.0,
      "SmallestImagePixelValue": 0,
      "SoftwareVersions": "syngo MR B19",
      "SpacingBetweenSlices": 1.9999999831704,
      "SpecificCharacterSet": "ISO_IR 100",
      "StudyID": "1",
      "StudyTime": "100406.046000",
      "TransmitCoilName": "Body",
      "VariableFlipAngleFlag": "N",
      "WindowCenterWidthExplanation": "Algo1",
      "dBdt": 0.0},
    "slices": {}
  },
  "time": {
    "samples": {
      "AcquisitionNumber": [1, 2, 3, 4, 5, 6, 7, 8, 9, 10, 11, 12, 13, 14, 15, 16, 17, 18, 19, 20, 21, 22, 23, 24, 25, 26, 27, 28, 29, 30, 31, 32, 33, 34, 35, 36, 37, 38, 39, 40, 41, 42, 43, 44, 45, 46, 47, 48, 49, 50, 51, 52, 53, 54, 55, 56, 57, 58, 59, 60, 61, 62, 63, 64, 65, 66, 67, 68, 69, 70, 71, 72, 73, 74, 75, 76, 77, 78, 79, 80, 81, 82, 83, 84, 85, 86, 87, 88, 89, 90, 91, 92, 93, 94, 95, 96, 97, 98, 99, 100, 101, 102, 103, 104, 105, 106, 107, 108, 109, 110, 111, 112, 113, 114, 115, 116, 117, 118, 119, 120, 121, 122, 123, 124, 125, 126, 127, 128, 129, 130, 131, 132, 133, 134, 135, 136, 137, 138, 139, 140, 141, 142, 143, 144, 145, 146, 147, 148, 149, 150, 151, 152, 153, 154, 155, 156, 157, 158, 159, 160, 161, 162, 163, 164, 165, 166, 167, 168, 169, 170, 171, 172, 173, 174, 175, 176, 177, 178, 179, 180, 181, 182, 183, 184, 185, 186, 187, 188, 189, 190, 191, 192, 193, 194, 195, 196, 197, 198, 199, 200, 201, 202, 203, 204, 205, 206, 207, 208, 209, 210, 211, 212, 213, 214, 215, 216, 217, 218, 219, 220, 221, 222, 223, 224, 225, 226, 227, 228, 229, 230, 231, 232, 233, 234, 235, 236, 237, 238, 239, 240, 241, 242, 243, 244, 245, 246, 247, 248, 249, 250, 251, 252, 253, 254, 255, 256, 257, 258, 259, 260, 261, 262, 263, 264, 265, 266, 267, 268, 269, 270, 271, 272, 273, 274, 275, 276, 277, 278, 279, 280, 281, 282, 283, 284, 285, 286, 287, 288, 289, 290, 291, 292, 293, 294, 295, 296, 297, 298, 299, 300, 301, 302, 303, 304, 305, 306, 307, 308, 309, 310, 311, 312, 313, 314, 315, 316, 317, 318, 319, 320, 321, 322, 323, 324, 325, 326, 327, 328, 329, 330, 331, 332, 333, 334, 335, 336, 337, 338, 339, 340, 341, 342, 343, 344, 345, 346, 347, 348, 349, 350, 351, 352, 353, 354, 355, 356, 357, 358, 359, 360, 361, 362, 363, 364, 365, 366, 367, 368, 369, 370, 371, 372, 373, 374, 375, 376, 377, 378, 379, 380, 381, 382, 383, 384, 385, 386, 387, 388, 389, 390, 391, 392, 393, 394, 395, 396, 397, 398, 399, 400, 401, 402, 403, 404, 405, 406, 407, 408, 409, 410, 411, 412, 413, 414, 415, 416, 417, 418, 419, 420, 421, 422, 423, 424, 425, 426, 427, 428, 429, 430, 431, 432, 433, 434, 435, 436, 437, 438, 439, 440, 441, 442, 443, 444, 445, 446, 447, 448, 449, 450, 451, 452, 453, 454, 455, 456, 457, 458, 459, 460, 461, 462, 463, 464, 465, 466, 467, 468, 469, 470, 471, 472, 473, 474, 475, 476, 477, 478, 479, 480, 481, 482, 483, 484, 485, 486, 487, 488, 489, 490, 491, 492, 493, 494, 495, 496, 497, 498, 499, 500, 501, 502, 503, 504, 505, 506, 507, 508, 509, 510, 511, 512, 513, 514, 515, 516, 517, 518, 519, 520, 521, 522, 523, 524, 525, 526, 527, 528, 529, 530, 531, 532, 533, 534, 535, 536, 537, 538, 539, 540, 541, 542, 543, 544, 545, 546, 547, 548, 549, 550, 551, 552, 553, 554, 555, 556, 557, 558, 559, 560, 561, 562, 563, 564, 565, 566, 567, 568, 569, 570, 571, 572, 573, 574, 575, 576, 577, 578, 579, 580, 581],
      "AcquisitionTime": ["113936.657500", "113937.445000", "113938.235000", "113939.022500", "113939.810000", "113940.597500", "113941.387500", "113942.175000", "113942.962500", "113943.750000", "113944.540000", "113945.327500", "113946.115000", "113946.905000", "113947.692500", "113948.480000", "113949.267500", "113950.057500", "113950.845000", "113951.632500", "113952.420000", "113953.210000", "113953.997500", "113954.785000", "113955.572500", "113956.362500", "113957.150000", "113957.937500", "113958.725000", "113959.515000", "114000.302500", "114001.090000", "114001.877500", "114002.667500", "114003.455000", "114004.242500", "114005.032500", "114005.820000", "114006.607500", "114007.395000", "114008.185000", "114008.972500", "114009.760000", "114010.547500", "114011.337500", "114012.125000", "114012.912500", "114013.700000", "114014.490000", "114015.277500", "114016.065000", "114016.852500", "114017.642500", "114018.430000", "114019.217500", "114020.005000", "114020.795000", "114021.582500", "114022.370000", "114023.160000", "114023.947500", "114024.735000", "114025.522500", "114026.312500", "114027.100000", "114027.887500", "114028.675000", "114029.465000", "114030.252500", "114031.040000", "114031.827500", "114032.617500", "114033.405000", "114034.192500", "114034.980000", "114035.770000", "114036.557500", "114037.345000", "114038.132500", "114038.922500", "114039.710000", "114040.497500", "114041.287500", "114042.075000", "114042.862500", "114043.650000", "114044.440000", "114045.227500", "114046.015000", "114046.802500", "114047.592500", "114048.380000", "114049.167500", "114049.955000", "114050.745000", "114051.532500", "114052.320000", "114053.107500", "114053.897500", "114054.685000", "114055.472500", "114056.260000", "114057.050000", "114057.837500", "114058.625000", "114059.415000", "114100.202500", "114100.990000", "114101.777500", "114102.567500", "114103.355000", "114104.142500", "114104.930000", "114105.720000", "114106.507500", "114107.295000", "114108.082500", "114108.872500", "114109.660000", "114110.447500", "114111.235000", "114112.025000", "114112.812500", "114113.600000", "114114.387500", "114115.177500", "114115.965000", "114116.752500", "114117.542500", "114118.330000", "114119.117500", "114119.905000", "114120.695000", "114121.482500", "114122.270000", "114123.057500", "114123.847500", "114124.635000", "114125.422500", "114126.210000", "114127.000000", "114127.787500", "114128.575000", "114129.362500", "114130.152500", "114130.940000", "114131.727500", "114132.515000", "114133.305000", "114134.092500", "114134.880000", "114135.670000", "114136.457500", "114137.245000", "114138.032500", "114138.822500", "114139.610000", "114140.397500", "114141.185000", "114141.975000", "114142.762500", "114143.550000", "114144.337500", "114145.127500", "114145.915000", "114146.702500", "114147.490000", "114148.280000", "114149.067500", "114149.855000", "114150.642500", "114151.432500", "114152.220000", "114153.007500", "114153.797500", "114154.585000", "114155.372500", "114156.160000", "114156.950000", "114157.737500", "114158.525000", "114159.312500", "114200.102500", "114200.890000", "114201.677500", "114202.465000", "114203.255000", "114204.042500", "114204.830000", "114205.617500", "114206.407500", "114207.195000", "114207.982500", "114208.770000", "114209.560000", "114210.347500", "114211.135000", "114211.925000", "114212.712500", "114213.500000", "114214.287500", "114215.077500", "114215.865000", "114216.652500", "114217.440000", "114218.230000", "114219.017500", "114219.805000", "114220.592500", "114221.382500", "114222.170000", "114222.957500", "114223.745000", "114224.535000", "114225.322500", "114226.110000", "114226.900000", "114227.687500", "114228.475000", "114229.262500", "114230.052500", "114230.840000", "114231.627500", "114232.415000", "114233.205000", "114233.992500", "114234.780000", "114235.567500", "114236.357500", "114237.145000", "114237.932500", "114238.720000", "114239.510000", "114240.297500", "114241.085000", "114241.872500", "114242.662500", "114243.450000", "114244.237500", "114245.027500", "114245.815000", "114246.602500", "114247.390000", "114248.180000", "114248.967500", "114249.755000", "114250.542500", "114251.332500", "114252.120000", "114252.907500", "114253.695000", "114254.485000", "114255.272500", "114256.060000", "114256.847500", "114257.637500", "114258.425000", "114259.212500", "114300.000000", "114300.790000", "114301.577500", "114302.365000", "114303.155000", "114303.942500", "114304.730000", "114305.517500", "114306.307500", "114307.095000", "114307.882500", "114308.670000", "114309.460000", "114310.247500", "114311.035000", "114311.822500", "114312.612500", "114313.400000", "114314.187500", "114314.975000", "114315.765000", "114316.552500", "114317.340000", "114318.127500", "114318.917500", "114319.705000", "114320.492500", "114321.282500", "114322.070000", "114322.857500", "114323.645000", "114324.435000", "114325.222500", "114326.010000", "114326.797500", "114327.587500", "114328.375000", "114329.162500", "114329.950000", "114330.740000", "114331.527500", "114332.315000", "114333.102500", "114333.892500", "114334.680000", "114335.467500", "114336.255000", "114337.045000", "114337.832500", "114338.620000", "114339.410000", "114340.197500", "114340.985000", "114341.772500", "114342.562500", "114343.350000", "114344.137500", "114344.925000", "114345.715000", "114346.502500", "114347.290000", "114348.077500", "114348.867500", "114349.655000", "114350.442500", "114351.230000", "114352.020000", "114352.807500", "114353.595000", "114354.382500", "114355.172500", "114355.960000", "114356.747500", "114357.537500", "114358.325000", "114359.112500", "114359.900000", "114400.690000", "114401.477500", "114402.265000", "114403.052500", "114403.842500", "114404.630000", "114405.417500", "114406.205000", "114406.995000", "114407.782500", "114408.570000", "114409.357500", "114410.147500", "114410.935000", "114411.722500", "114412.510000", "114413.300000", "114414.087500", "114414.875000", "114415.665000", "114416.452500", "114417.240000", "114418.027500", "114418.817500", "114419.605000", "114420.392500", "114421.180000", "114421.970000", "114422.757500", "114423.545000", "114424.332500", "114425.122500", "114425.910000", "114426.697500", "114427.485000", "114428.275000", "114429.062500", "114429.850000", "114430.637500", "114431.427500", "114432.215000", "114433.002500", "114433.792500", "114434.580000", "114435.367500", "114436.155000", "114436.945000", "114437.732500", "114438.520000", "114439.307500", "114440.097500", "114440.885000", "114441.672500", "114442.460000", "114443.250000", "114444.037500", "114444.825000", "114445.612500", "114446.402500", "114447.190000", "114447.977500", "114448.765000", "114449.555000", "114450.342500", "114451.130000", "114451.920000", "114452.707500", "114453.495000", "114454.282500", "114455.072500", "114455.860000", "114456.647500", "114457.435000", "114458.225000", "114459.012500", "114459.800000", "114500.587500", "114501.377500", "114502.165000", "114502.952500", "114503.740000", "114504.530000", "114505.317500", "114506.105000", "114506.892500", "114507.682500", "114508.470000", "114509.257500", "114510.047500", "114510.835000", "114511.622500", "114512.410000", "114513.200000", "114513.987500", "114514.775000", "114515.562500", "114516.352500", "114517.140000", "114517.927500", "114518.715000", "114519.505000", "114520.292500", "114521.080000", "114521.867500", "114522.657500", "114523.445000", "114524.232500", "114525.020000", "114525.810000", "114526.597500", "114527.385000", "114528.175000", "114528.962500", "114529.750000", "114530.537500", "114531.327500", "114532.115000", "114532.902500", "114533.690000", "114534.480000", "114535.267500", "114536.055000", "114536.842500", "114537.632500", "114538.420000", "114539.207500", "114539.995000", "114540.785000", "114541.572500", "114542.360000", "114543.150000", "114543.937500", "114544.725000", "114545.512500", "114546.302500", "114547.090000", "114547.877500", "114548.665000", "114549.455000", "114550.242500", "114551.030000", "114551.817500", "114552.607500", "114553.395000", "114554.182500", "114554.970000", "114555.760000", "114556.547500", "114557.335000", "114558.122500", "114558.912500", "114559.700000", "114600.487500", "114601.277500", "114602.065000", "114602.852500", "114603.640000", "114604.430000", "114605.217500", "114606.005000", "114606.792500", "114607.582500", "114608.370000", "114609.157500", "114609.945000", "114610.735000", "114611.522500", "114612.310000", "114613.097500", "114613.887500", "114614.675000", "114615.462500", "114616.250000", "114617.040000", "114617.827500", "114618.615000", "114619.405000", "114620.192500", "114620.980000", "114621.767500", "114622.557500", "114623.345000", "114624.132500", "114624.920000", "114625.710000", "114626.497500", "114627.285000", "114628.072500", "114628.862500", "114629.650000", "114630.437500", "114631.225000", "114632.015000", "114632.802500", "114633.590000", "114634.377500", "114635.167500", "114635.955000", "114636.742500", "114637.532500", "114638.320000", "114639.107500", "114639.895000", "114640.685000", "114641.472500", "114642.260000", "114643.047500", "114643.837500", "114644.625000", "114645.412500", "114646.200000", "114646.990000", "114647.777500", "114648.565000", "114649.352500", "114650.142500", "114650.930000", "114651.717500", "114652.505000", "114653.295000", "114654.082500", "114654.870000", "114655.660000", "114656.447500", "114657.235000", "114658.022500", "114658.812500", "114659.600000", "114700.387500", "114701.175000", "114701.965000", "114702.752500", "114703.540000", "114704.327500", "114705.117500", "114705.905000", "114706.692500", "114707.480000", "114708.270000", "114709.057500", "114709.845000", "114710.632500", "114711.422500", "114712.210000", "114712.997500", "114713.787500"],
      "ContentTime": ["114012.453000", "114012.453000", "114012.453000", "114012.468000", "114012.468000", "114012.468000", "114012.468000", "114012.468000", "114012.468000", "114012.468000", "114012.468000", "114012.484000", "114012.484000", "114012.484000", "114012.484000", "114012.484000", "114012.484000", "114012.484000", "114012.500000", "114012.500000", "114012.500000", "114012.500000", "114012.500000", "114012.500000", "114012.500000", "114012.500000", "114012.515000", "114012.515000", "114012.515000", "114012.515000", "114012.515000", "114012.515000", "114012.515000", "114012.531000", "114012.531000", "114012.531000", "114012.531000", "114012.531000", "114012.531000", "114012.531000", "114012.531000", "114012.546000", "114032.421000", "114032.437000", "114032.437000", "114032.437000", "114032.437000", "114032.437000", "114032.437000", "114032.437000", "114032.437000", "114032.453000", "114032.453000", "114032.453000", "114032.453000", "114032.453000", "114032.453000", "114032.453000", "114032.468000", "114032.468000", "114032.468000", "114032.468000", "114032.468000", "114032.468000", "114032.468000", "114032.468000", "114032.484000", "114032.484000", "114052.421000", "114052.437000", "114052.437000", "114052.437000", "114052.437000", "114052.437000", "114052.437000", "114052.437000", "114052.437000", "114052.453000", "114052.453000", "114052.453000", "114052.453000", "114052.453000", "114052.453000", "114052.453000", "114052.468000", "114052.468000", "114052.468000", "114052.468000", "114052.468000", "114052.468000", "114052.468000", "114052.484000", "114052.484000", "114112.421000", "114112.437000", "114112.437000", "114112.437000", "114112.437000", "114112.437000", "114112.437000", "114112.437000", "114112.437000", "114112.453000", "114112.453000", "114112.453000", "114112.453000", "114112.453000", "114112.453000", "114112.453000", "114112.468000", "114112.468000", "114112.468000", "114112.468000", "114112.468000", "114112.468000", "114112.484000", "114112.484000", "114112.484000", "114112.484000", "114132.421000", "114132.437000", "114132.437000", "114132.437000", "114132.437000", "114132.437000", "114132.437000", "114132.437000", "114132.437000", "114132.453000", "114132.453000", "114132.453000", "114132.453000", "114132.453000", "114132.453000", "114132.468000", "114132.468000", "114132.468000", "114132.468000", "114132.468000", "114132.468000", "114132.468000", "114132.484000", "114132.484000", "114132.484000", "114152.421000", "114152.437000", "114152.437000", "114152.437000", "114152.437000", "114152.437000", "114152.437000", "114152.437000", "114152.437000", "114152.453000", "114152.453000", "114152.453000", "114152.453000", "114152.453000", "114152.453000", "114152.453000", "114152.468000", "114152.468000", "114152.468000", "114152.468000", "114152.468000", "114152.468000", "114152.468000", "114152.484000", "114152.484000", "114152.484000", "114212.421000", "114212.437000", "114212.437000", "114212.437000", "114212.437000", "114212.437000", "114212.437000", "114212.437000", "114212.437000", "114212.453000", "114212.453000", "114212.453000", "114212.453000", "114212.453000", "114212.453000", "114212.453000", "114212.468000", "114212.468000", "114212.468000", "114212.468000", "114212.468000", "114212.468000", "114212.468000", "114212.484000", "114212.484000", "114212.484000", "114232.421000", "114232.437000", "114232.437000", "114232.437000", "114232.437000", "114232.437000", "114232.453000", "114232.453000", "114232.453000", "114232.453000", "114232.484000", "114232.484000", "114232.484000", "114232.484000", "114232.484000", "114232.500000", "114232.500000", "114232.500000", "114232.500000", "114232.500000", "114232.500000", "114232.500000", "114232.500000", "114232.515000", "114232.515000", "114252.421000", "114252.437000", "114252.437000", "114252.437000", "114252.437000", "114252.453000", "114252.453000", "114252.453000", "114252.453000", "114252.453000", "114252.453000", "114252.453000", "114252.453000", "114252.468000", "114252.468000", "114252.468000", "114252.468000", "114252.468000", "114252.484000", "114252.484000", "114252.484000", "114252.484000", "114252.484000", "114252.484000", "114252.500000", "114312.421000", "114312.437000", "114312.437000", "114312.437000", "114312.437000", "114312.437000", "114312.437000", "114312.437000", "114312.437000", "114312.453000", "114312.453000", "114312.453000", "114312.453000", "114312.453000", "114312.453000", "114312.453000", "114312.468000", "114312.468000", "114312.468000", "114312.468000", "114312.468000", "114312.468000", "114312.468000", "114312.484000", "114312.484000", "114312.484000", "114332.421000", "114332.437000", "114332.437000", "114332.437000", "114332.437000", "114332.437000", "114332.437000", "114332.437000", "114332.453000", "114332.453000", "114332.453000", "114332.453000", "114332.453000", "114332.453000", "114332.453000", "114332.453000", "114332.468000", "114332.468000", "114332.468000", "114332.468000", "114332.468000", "114332.468000", "114332.484000", "114332.484000", "114332.500000", "114352.421000", "114352.437000", "114352.437000", "114352.437000", "114352.437000", "114352.437000", "114352.437000", "114352.453000", "114352.453000", "114352.453000", "114352.453000", "114352.453000", "114352.453000", "114352.468000", "114352.468000", "114352.468000", "114352.468000", "114352.468000", "114352.468000", "114352.484000", "114352.484000", "114352.484000", "114352.484000", "114352.484000", "114352.484000", "114352.484000", "114412.421000", "114412.437000", "114412.437000", "114412.437000", "114412.437000", "114412.437000", "114412.437000", "114412.437000", "114412.453000", "114412.453000", "114412.453000", "114412.453000", "114412.453000", "114412.453000", "114412.453000", "114412.468000", "114412.468000", "114412.468000", "114412.484000", "114412.484000", "114412.484000", "114412.500000", "114412.500000", "114412.500000", "114412.500000", "114432.421000", "114432.437000", "114432.437000", "114432.437000", "114432.437000", "114432.437000", "114432.437000", "114432.437000", "114432.437000", "114432.453000", "114432.453000", "114432.453000", "114432.453000", "114432.453000", "114432.453000", "114432.453000", "114432.468000", "114432.468000", "114432.468000", "114432.468000", "114432.468000", "114432.468000", "114432.484000", "114432.484000", "114432.484000", "114432.484000", "114452.421000", "114452.437000", "114452.437000", "114452.437000", "114452.437000", "114452.437000", "114452.437000", "114452.437000", "114452.437000", "114452.453000", "114452.453000", "114452.453000", "114452.453000", "114452.453000", "114452.453000", "114452.453000", "114452.468000", "114452.468000", "114452.468000", "114452.468000", "114452.468000", "114452.468000", "114452.484000", "114452.484000", "114452.484000", "114512.421000", "114512.437000", "114512.437000", "114512.437000", "114512.437000", "114512.437000", "114512.453000", "114512.453000", "114512.453000", "114512.453000", "114512.453000", "114512.453000", "114512.453000", "114512.453000", "114512.468000", "114512.468000", "114512.468000", "114512.484000", "114512.484000", "114512.484000", "114512.484000", "114512.484000", "114512.484000", "114512.484000", "114512.500000", "114512.500000", "114532.421000", "114532.437000", "114532.437000", "114532.437000", "114532.437000", "114532.437000", "114532.453000", "114532.453000", "114532.453000", "114532.453000", "114532.453000", "114532.453000", "114532.453000", "114532.468000", "114532.468000", "114532.468000", "114532.484000", "114532.484000", "114532.484000", "114532.484000", "114532.484000", "114532.484000", "114532.500000", "114532.500000", "114532.500000", "114552.421000", "114552.437000", "114552.437000", "114552.437000", "114552.437000", "114552.437000", "114552.437000", "114552.437000", "114552.437000", "114552.453000", "114552.453000", "114552.453000", "114552.453000", "114552.453000", "114552.468000", "114552.468000", "114552.468000", "114552.468000", "114552.468000", "114552.468000", "114552.468000", "114552.468000", "114552.484000", "114552.484000", "114552.484000", "114552.484000", "114612.421000", "114612.437000", "114612.437000", "114612.437000", "114612.437000", "114612.437000", "114612.437000", "114612.437000", "114612.437000", "114612.453000", "114612.453000", "114612.453000", "114612.453000", "114612.453000", "114612.453000", "114612.453000", "114612.468000", "114612.468000", "114612.468000", "114612.468000", "114612.468000", "114612.468000", "114612.468000", "114612.468000", "114612.484000", "114632.421000", "114632.437000", "114632.437000", "114632.437000", "114632.437000", "114632.437000", "114632.437000", "114632.437000", "114632.437000", "114632.453000", "114632.453000", "114632.453000", "114632.453000", "114632.453000", "114632.453000", "114632.453000", "114632.468000", "114632.468000", "114632.468000", "114632.468000", "114632.468000", "114632.484000", "114632.484000", "114632.484000", "114632.484000", "114632.484000", "114652.421000", "114652.437000", "114652.437000", "114652.437000", "114652.437000", "114652.437000", "114652.437000", "114652.437000", "114652.437000", "114652.453000", "114652.453000", "114652.453000", "114652.453000", "114652.453000", "114652.453000", "114652.453000", "114652.468000", "114652.468000", "114652.468000", "114652.468000", "114652.468000", "114652.468000", "114652.468000", "114652.484000", "114652.484000", "114712.421000", "114712.437000", "114712.437000", "114712.437000", "114712.437000", "114712.437000", "114712.437000", "114712.437000", "114712.437000", "114712.453000", "114712.453000", "114712.453000", "114712.453000", "114712.453000", "114712.453000", "114712.453000", "114712.468000", "114712.468000", "114712.468000", "114712.484000", "114712.484000", "114712.484000", "114712.484000", "114712.484000", "114712.484000", "114712.484000", "114714.703000", "114714.703000", "114714.703000"],
