{
  "AcquisitionMatrixPE": 104,
  "AcquisitionNumber": 1,
  "AcquisitionTime": "11:31:32.705000",
  "BandwidthPerPixelPhaseEncode": 13.935,
  "BaseResolution": 104,
  "CoilString": "C:HEA;HEP",
  "ConversionSoftware": "dcm2niix",
  "ConversionSoftwareVersion": "v1.0.20210317",
  "DerivedVendorReportedEchoSpacing": 0.000690017,
  "DeviceSerialNumber": "35450",
  "DwellTime": 2.5e-06,
  "EchoTime": 0.0348,
  "EffectiveEchoSpacing": 0.000690017,
  "FlipAngle": 55,
  "ImageComments": "Unaliased MB8/PE3 (remote)",
  "ImageOrientationPatientDICOM": [0.999452, -0.00363331, -0.0329077, -1.55814e-08, 0.99396, -0.109743],
  "ImageType": [
    "ORIGINAL",
    "PRIMARY",
    "M",
    "MB",
    "ND",
    "MOSAIC"
],
  "ImagingFrequency": 123.235,
  "InPlanePhaseEncodingDirectionDICOM": "COL",
  "InstitutionAddress": "Univeristy Ave. 197,Newark,North East,US,07102-1814",
  "InstitutionName": "RUBIC",
  "InstitutionalDepartmentName": "Department",
  "MRAcquisitionType": "2D",
  "MagneticFieldStrength": 3,
  "Manufacturer": "Siemens",
  "ManufacturersModelName": "TrioTim",
  "Modality": "MR",
  "MultibandAccelerationFactor": 8,
  "PartialFourier": 0.875,
  "PatientPosition": "HFS",
  "PercentPhaseFOV": 100,
  "PercentSampling": 100,
  "PhaseEncodingDirection": "j-",
  "PhaseEncodingSteps": 91,
  "PhaseResolution": 1,
  "PixelBandwidth": 1923,
  "ProcedureStepDescription": "Cole^Michael",
  "ProtocolName": "cmrr_mbep2d_bold_2mm_MB8_Task_8x",
  "PulseSequenceDetails": "%CustomerSeq%\\cmrr_mbep2d_bold",
  "ReceiveCoilName": "32Ch_Head",
  "ReconMatrixPE": 104,
  "RepetitionTime": 0.785,
  "SAR": 0.16972,
  "ScanOptions": "PFP\\FS",
  "ScanningSequence": "EP",
  "SequenceName": "epfid2d1_104",
  "SequenceVariant": "SK\\SS",
  "SeriesDescription": "cmrr_mbep2d_bold_2mm_MB8_Task_8x",
  "SeriesNumber": 23,
  "ShimSetting": [2141, -500, -7666, 521, 0, -619, -1111, 18],
  "SliceThickness": 2,
  "SliceTiming": [0, 0.4375, 0.0875, 0.525, 0.175, 0.6125, 0.2625, 0.7, 0.35, 0, 0.4375, 0.0875, 0.525, 0.175, 0.6125, 0.2625, 0.7, 0.35, 0, 0.4375, 0.0875, 0.525, 0.175, 0.6125, 0.2625, 0.7, 0.35, 0, 0.4375, 0.0875, 0.525, 0.175, 0.6125, 0.2625, 0.7, 0.35, 0, 0.4375, 0.0875, 0.525, 0.175, 0.6125, 0.2625, 0.7, 0.35, 0, 0.4375, 0.0875, 0.525, 0.175, 0.6125, 0.2625, 0.7, 0.35, 0, 0.4375, 0.0875, 0.525, 0.175, 0.6125, 0.2625, 0.7, 0.35, 0, 0.4375, 0.0875, 0.525, 0.175, 0.6125, 0.2625, 0.7, 0.35],
  "SoftwareVersions": "syngo MR B19",
  "SpacingBetweenSlices": 2,
  "StationName": "MRC35450",
  "TaskName": "cpro",
  "TotalReadoutTime": 0.0710717,
  "TxRefAmp": 349.969,
  "dcmmeta_affine": [
    [-1.9989036321640015, -3.1162716851440564e-08, -0.0662154108285904, 103.55355072021484],
    [0.007266628555953503, 1.9879200458526611, -0.21936510503292084, -75.86308288574219],
    [-0.06581547856330872, 0.21948543190956116, 1.986830234527588, -119.38642120361328],
    [0.0, 0.0, 0.0, 1.0]
],
  "dcmmeta_reorient_transform": [
    [0.0, -1.0, 0.0, 103.0],
    [1.0, 0.0, 0.0, 0.0],
    [0.0, 0.0, 1.0, 0.0],
    [0.0, 0.0, 0.0, 1.0]
],
  "dcmmeta_shape": [104, 104, 72, 581],
  "dcmmeta_slice_dim": 2,
  "dcmmeta_version": 0.6,
  "global": {
    "const": {
      "AcquisitionMatrix": [104, 0, 0, 104],
      "AngioFlag": "N",
      "BitsAllocated": 16,
      "BitsStored": 12,
      "Columns": 936,
      "EchoNumbers": 1,
      "EchoTime": 34.8,
      "EchoTrainLength": 1,
      "FlipAngle": 55.0,
      "HighBit": 11,
      "ImageOrientationPatient": [0.9994517896099, -0.0036333141749, -0.0329077388114, -1.5581358e-08, 0.99396002752351, -0.1097427158652],
      "ImagePositionPatient": [-935.09742090789, -952.84450631572, 21.90575904895],
      "ImageType": [
        "ORIGINAL",
        "PRIMARY",
        "M",
        "MB",
        "ND",
        "MOSAIC"
],
      "ImagedNucleus": "1H",
      "ImagingFrequency": 123.234752,
      "InPlanePhaseEncodingDirection": "COL",
      "MRAcquisitionType": "2D",
      "MagneticFieldStrength": 3.0,
      "Manufacturer": "SIEMENS",
      "ManufacturerModelName": "TrioTim",
      "Modality": "MR",
      "NumberOfAverages": 1.0,
      "NumberOfPhaseEncodingSteps": 91,
      "PercentPhaseFieldOfView": 100.0,
      "PercentSampling": 100.0,
      "PerformedProcedureStepStartTime": "100406.109000",
      "PhotometricInterpretation": "MONOCHROME2",
      "PixelBandwidth": 1923.0,
      "PixelRepresentation": 0,
      "PixelSpacing": [2.0, 2.0],
      "ProtocolName": "cmrr_mbep2d_bold_2mm_MB8_Task_8x",
      "RepetitionTime": 785.0,
      "Rows": 936,
      "SAR": 0.16971983118393,
      "SamplesPerPixel": 1,
      "ScanOptions": [
        "PFP",
        "FS"
],
      "ScanningSequence": "EP",
      "SequenceName": "epfid2d1_104",
      "SequenceVariant": [
        "SK",
        "SS"
],
      "SeriesDescription": "cmrr_mbep2d_bold_2mm_MB8_Task_8x",
      "SeriesNumber": 23,
      "SeriesTime": "113159.328000",
      "SliceLocation": -113.70783803472,
      "SliceThickness": 2.0,
      "SmallestImagePixelValue": 0,
      "SoftwareVersions": "syngo MR B19",
      "SpacingBetweenSlices": 1.9999999831704,
      "SpecificCharacterSet": "ISO_IR 100",
      "StudyID": "1",
      "StudyTime": "100406.046000",
      "TransmitCoilName": "Body",
      "VariableFlipAngleFlag": "N",
      "WindowCenterWidthExplanation": "Algo1",
      "dBdt": 0.0},
    "slices": {}
  },
  "time": {
    "samples": {
      "AcquisitionNumber": [1, 2, 3, 4, 5, 6, 7, 8, 9, 10, 11, 12, 13, 14, 15, 16, 17, 18, 19, 20, 21, 22, 23, 24, 25, 26, 27, 28, 29, 30, 31, 32, 33, 34, 35, 36, 37, 38, 39, 40, 41, 42, 43, 44, 45, 46, 47, 48, 49, 50, 51, 52, 53, 54, 55, 56, 57, 58, 59, 60, 61, 62, 63, 64, 65, 66, 67, 68, 69, 70, 71, 72, 73, 74, 75, 76, 77, 78, 79, 80, 81, 82, 83, 84, 85, 86, 87, 88, 89, 90, 91, 92, 93, 94, 95, 96, 97, 98, 99, 100, 101, 102, 103, 104, 105, 106, 107, 108, 109, 110, 111, 112, 113, 114, 115, 116, 117, 118, 119, 120, 121, 122, 123, 124, 125, 126, 127, 128, 129, 130, 131, 132, 133, 134, 135, 136, 137, 138, 139, 140, 141, 142, 143, 144, 145, 146, 147, 148, 149, 150, 151, 152, 153, 154, 155, 156, 157, 158, 159, 160, 161, 162, 163, 164, 165, 166, 167, 168, 169, 170, 171, 172, 173, 174, 175, 176, 177, 178, 179, 180, 181, 182, 183, 184, 185, 186, 187, 188, 189, 190, 191, 192, 193, 194, 195, 196, 197, 198, 199, 200, 201, 202, 203, 204, 205, 206, 207, 208, 209, 210, 211, 212, 213, 214, 215, 216, 217, 218, 219, 220, 221, 222, 223, 224, 225, 226, 227, 228, 229, 230, 231, 232, 233, 234, 235, 236, 237, 238, 239, 240, 241, 242, 243, 244, 245, 246, 247, 248, 249, 250, 251, 252, 253, 254, 255, 256, 257, 258, 259, 260, 261, 262, 263, 264, 265, 266, 267, 268, 269, 270, 271, 272, 273, 274, 275, 276, 277, 278, 279, 280, 281, 282, 283, 284, 285, 286, 287, 288, 289, 290, 291, 292, 293, 294, 295, 296, 297, 298, 299, 300, 301, 302, 303, 304, 305, 306, 307, 308, 309, 310, 311, 312, 313, 314, 315, 316, 317, 318, 319, 320, 321, 322, 323, 324, 325, 326, 327, 328, 329, 330, 331, 332, 333, 334, 335, 336, 337, 338, 339, 340, 341, 342, 343, 344, 345, 346, 347, 348, 349, 350, 351, 352, 353, 354, 355, 356, 357, 358, 359, 360, 361, 362, 363, 364, 365, 366, 367, 368, 369, 370, 371, 372, 373, 374, 375, 376, 377, 378, 379, 380, 381, 382, 383, 384, 385, 386, 387, 388, 389, 390, 391, 392, 393, 394, 395, 396, 397, 398, 399, 400, 401, 402, 403, 404, 405, 406, 407, 408, 409, 410, 411, 412, 413, 414, 415, 416, 417, 418, 419, 420, 421, 422, 423, 424, 425, 426, 427, 428, 429, 430, 431, 432, 433, 434, 435, 436, 437, 438, 439, 440, 441, 442, 443, 444, 445, 446, 447, 448, 449, 450, 451, 452, 453, 454, 455, 456, 457, 458, 459, 460, 461, 462, 463, 464, 465, 466, 467, 468, 469, 470, 471, 472, 473, 474, 475, 476, 477, 478, 479, 480, 481, 482, 483, 484, 485, 486, 487, 488, 489, 490, 491, 492, 493, 494, 495, 496, 497, 498, 499, 500, 501, 502, 503, 504, 505, 506, 507, 508, 509, 510, 511, 512, 513, 514, 515, 516, 517, 518, 519, 520, 521, 522, 523, 524, 525, 526, 527, 528, 529, 530, 531, 532, 533, 534, 535, 536, 537, 538, 539, 540, 541, 542, 543, 544, 545, 546, 547, 548, 549, 550, 551, 552, 553, 554, 555, 556, 557, 558, 559, 560, 561, 562, 563, 564, 565, 566, 567, 568, 569, 570, 571, 572, 573, 574, 575, 576, 577, 578, 579, 580, 581],
      "AcquisitionTime": ["113132.705000", "113133.492500", "113134.282500", "113135.070000", "113135.857500", "113136.647500", "113137.435000", "113138.222500", "113139.010000", "113139.800000", "113140.587500", "113141.375000", "113142.162500", "113142.952500", "113143.740000", "113144.527500", "113145.315000", "113146.105000", "113146.892500", "113147.680000", "113148.467500", "113149.257500", "113150.045000", "113150.832500", "113151.620000", "113152.410000", "113153.197500", "113153.985000", "113154.775000", "113155.562500", "113156.350000", "113157.137500", "113157.927500", "113158.715000", "113159.502500", "113200.290000", "113201.080000", "113201.867500", "113202.655000", "113203.442500", "113204.232500", "113205.020000", "113205.807500", "113206.595000", "113207.385000", "113208.172500", "113208.960000", "113209.747500", "113210.537500", "113211.325000", "113212.112500", "113212.902500", "113213.690000", "113214.477500", "113215.265000", "113216.055000", "113216.842500", "113217.630000", "113218.417500", "113219.207500", "113219.995000", "113220.782500", "113221.570000", "113222.360000", "113223.147500", "113223.935000", "113224.722500", "113225.512500", "113226.300000", "113227.087500", "113227.875000", "113228.665000", "113229.452500", "113230.240000", "113231.030000", "113231.817500", "113232.605000", "113233.392500", "113234.182500", "113234.970000", "113235.757500", "113236.545000", "113237.335000", "113238.122500", "113238.910000", "113239.697500", "113240.487500", "113241.275000", "113242.062500", "113242.850000", "113243.640000", "113244.427500", "113245.215000", "113246.002500", "113246.792500", "113247.580000", "113248.367500", "113249.157500", "113249.945000", "113250.732500", "113251.520000", "113252.310000", "113253.097500", "113253.885000", "113254.672500", "113255.462500", "113256.250000", "113257.037500", "113257.825000", "113258.615000", "113259.402500", "113300.190000", "113300.977500", "113301.767500", "113302.555000", "113303.342500", "113304.130000", "113304.920000", "113305.707500", "113306.495000", "113307.285000", "113308.072500", "113308.860000", "113309.647500", "113310.437500", "113311.225000", "113312.012500", "113312.800000", "113313.590000", "113314.377500", "113315.165000", "113315.952500", "113316.742500", "113317.530000", "113318.317500", "113319.105000", "113319.895000", "113320.682500", "113321.470000", "113322.257500", "113323.047500", "113323.835000", "113324.622500", "113325.412500", "113326.200000", "113326.987500", "113327.775000", "113328.565000", "113329.352500", "113330.140000", "113330.927500", "113331.717500", "113332.505000", "113333.292500", "113334.080000", "113334.870000", "113335.657500", "113336.445000", "113337.232500", "113338.022500", "113338.810000", "113339.597500", "113340.385000", "113341.175000", "113341.962500", "113342.750000", "113343.540000", "113344.327500", "113345.115000", "113345.902500", "113346.692500", "113347.480000", "113348.267500", "113349.055000", "113349.845000", "113350.632500", "113351.420000", "113352.207500", "113352.997500", "113353.785000", "113354.572500", "113355.360000", "113356.150000", "113356.937500", "113357.725000", "113358.512500", "113359.302500", "113400.090000", "113400.877500", "113401.667500", "113402.455000", "113403.242500", "113404.030000", "113404.820000", "113405.607500", "113406.395000", "113407.182500", "113407.972500", "113408.760000", "113409.547500", "113410.335000", "113411.125000", "113411.912500", "113412.700000", "113413.487500", "113414.277500", "113415.065000", "113415.852500", "113416.640000", "113417.430000", "113418.217500", "113419.005000", "113419.795000", "113420.582500", "113421.370000", "113422.157500", "113422.947500", "113423.735000", "113424.522500", "113425.310000", "113426.100000", "113426.887500", "113427.675000", "113428.462500", "113429.252500", "113430.040000", "113430.827500", "113431.615000", "113432.405000", "113433.192500", "113433.980000", "113434.767500", "113435.557500", "113436.345000", "113437.132500", "113437.922500", "113438.710000", "113439.497500", "113440.285000", "113441.075000", "113441.862500", "113442.650000", "113443.437500", "113444.227500", "113445.015000", "113445.802500", "113446.590000", "113447.380000", "113448.167500", "113448.955000", "113449.742500", "113450.532500", "113451.320000", "113452.107500", "113452.897500", "113453.685000", "113454.472500", "113455.260000", "113456.050000", "113456.837500", "113457.625000", "113458.412500", "113459.202500", "113459.990000", "113500.777500", "113501.565000", "113502.355000", "113503.142500", "113503.930000", "113504.717500", "113505.507500", "113506.295000", "113507.082500", "113507.870000", "113508.660000", "113509.447500", "113510.235000", "113511.025000", "113511.812500", "113512.600000", "113513.387500", "113514.177500", "113514.965000", "113515.752500", "113516.540000", "113517.330000", "113518.117500", "113518.905000", "113519.692500", "113520.482500", "113521.270000", "113522.057500", "113522.845000", "113523.635000", "113524.422500", "113525.210000", "113525.997500", "113526.787500", "113527.575000", "113528.362500", "113529.152500", "113529.940000", "113530.727500", "113531.515000", "113532.305000", "113533.092500", "113533.880000", "113534.667500", "113535.457500", "113536.245000", "113537.032500", "113537.820000", "113538.610000", "113539.397500", "113540.185000", "113540.972500", "113541.762500", "113542.550000", "113543.337500", "113544.125000", "113544.915000", "113545.702500", "113546.490000", "113547.280000", "113548.067500", "113548.855000", "113549.642500", "113550.432500", "113551.220000", "113552.007500", "113552.795000", "113553.585000", "113554.372500", "113555.160000", "113555.947500", "113556.737500", "113557.525000", "113558.312500", "113559.100000", "113559.890000", "113600.677500", "113601.465000", "113602.252500", "113603.042500", "113603.830000", "113604.617500", "113605.407500", "113606.195000", "113606.982500", "113607.770000", "113608.560000", "113609.347500", "113610.135000", "113610.922500", "113611.712500", "113612.500000", "113613.287500", "113614.075000", "113614.865000", "113615.652500", "113616.440000", "113617.227500", "113618.017500", "113618.805000", "113619.592500", "113620.380000", "113621.170000", "113621.957500", "113622.745000", "113623.535000", "113624.322500", "113625.110000", "113625.897500", "113626.687500", "113627.475000", "113628.262500", "113629.050000", "113629.840000", "113630.627500", "113631.415000", "113632.202500", "113632.992500", "113633.780000", "113634.567500", "113635.355000", "113636.145000", "113636.932500", "113637.720000", "113638.507500", "113639.297500", "113640.085000", "113640.872500", "113641.662500", "113642.450000", "113643.237500", "113644.025000", "113644.815000", "113645.602500", "113646.390000", "113647.177500", "113647.967500", "113648.755000", "113649.542500", "113650.330000", "113651.120000", "113651.907500", "113652.695000", "113653.482500", "113654.272500", "113655.060000", "113655.847500", "113656.635000", "113657.425000", "113658.212500", "113659.000000", "113659.790000", "113700.577500", "113701.365000", "113702.152500", "113702.942500", "113703.730000", "113704.517500", "113705.305000", "113706.095000", "113706.882500", "113707.670000", "113708.457500", "113709.247500", "113710.035000", "113710.822500", "113711.610000", "113712.400000", "113713.187500", "113713.975000", "113714.762500", "113715.552500", "113716.340000", "113717.127500", "113717.917500", "113718.705000", "113719.492500", "113720.280000", "113721.070000", "113721.857500", "113722.645000", "113723.432500", "113724.222500", "113725.010000", "113725.797500", "113726.585000", "113727.375000", "113728.162500", "113728.950000", "113729.737500", "113730.527500", "113731.315000", "113732.102500", "113732.890000", "113733.680000", "113734.467500", "113735.255000", "113736.045000", "113736.832500", "113737.620000", "113738.407500", "113739.197500", "113739.985000", "113740.772500", "113741.560000", "113742.350000", "113743.137500", "113743.925000", "113744.712500", "113745.502500", "113746.290000", "113747.077500", "113747.865000", "113748.655000", "113749.442500", "113750.230000", "113751.017500", "113751.807500", "113752.595000", "113753.382500", "113754.172500", "113754.960000", "113755.747500", "113756.535000", "113757.325000", "113758.112500", "113758.900000", "113759.687500", "113800.477500", "113801.265000", "113802.052500", "113802.840000", "113803.630000", "113804.417500", "113805.205000", "113805.992500", "113806.782500", "113807.570000", "113808.357500", "113809.147500", "113809.935000", "113810.722500", "113811.510000", "113812.300000", "113813.087500", "113813.875000", "113814.662500", "113815.452500", "113816.240000", "113817.027500", "113817.815000", "113818.605000", "113819.392500", "113820.180000", "113820.967500", "113821.757500", "113822.545000", "113823.332500", "113824.120000", "113824.910000", "113825.697500", "113826.485000", "113827.275000", "113828.062500", "113828.850000", "113829.637500", "113830.427500", "113831.215000", "113832.002500", "113832.790000", "113833.580000", "113834.367500", "113835.155000", "113835.942500", "113836.732500", "113837.520000", "113838.307500", "113839.095000", "113839.885000", "113840.672500", "113841.460000", "113842.247500", "113843.037500", "113843.825000", "113844.612500", "113845.402500", "113846.190000", "113846.977500", "113847.765000", "113848.555000", "113849.342500", "113850.130000", "113850.917500", "113851.707500", "113852.495000", "113853.282500", "113854.070000", "113854.860000", "113855.647500", "113856.435000", "113857.222500", "113858.012500", "113858.800000", "113859.587500", "113900.375000", "113901.165000", "113901.952500", "113902.740000", "113903.530000", "113904.317500", "113905.105000", "113905.892500", "113906.682500", "113907.470000", "113908.257500", "113909.045000", "113909.835000"],
      "ContentTime": ["113159.328000", "113159.328000", "113159.343000", "113159.343000", "113159.343000", "113159.343000", "113159.343000", "113159.343000", "113159.343000", "113159.359000", "113159.359000", "113159.359000", "113159.359000", "113159.359000", "113159.359000", "113159.359000", "113159.359000", "113159.375000", "113159.375000", "113159.375000", "113159.375000", "113159.375000", "113159.375000", "113159.375000", "113159.390000", "113159.390000", "113159.390000", "113159.390000", "113159.390000", "113159.390000", "113159.390000", "113219.296000", "113219.312000", "113219.312000", "113219.312000", "113219.312000", "113219.312000", "113219.312000", "113219.312000", "113219.312000", "113219.328000", "113219.328000", "113219.328000", "113219.328000", "113219.328000", "113219.328000", "113219.328000", "113219.328000", "113219.343000", "113219.343000", "113219.343000", "113219.343000", "113219.343000", "113219.359000", "113219.359000", "113219.359000", "113219.359000", "113239.296000", "113239.312000", "113239.312000", "113239.312000", "113239.312000", "113239.312000", "113239.312000", "113239.312000", "113239.312000", "113239.328000", "113239.328000", "113239.328000", "113239.328000", "113239.328000", "113239.343000", "113239.343000", "113239.343000", "113239.343000", "113239.343000", "113239.343000", "113239.343000", "113239.359000", "113239.359000", "113239.359000", "113239.359000", "113259.296000", "113259.312000", "113259.312000", "113259.312000", "113259.312000", "113259.312000", "113259.312000", "113259.312000", "113259.312000", "113259.328000", "113259.328000", "113259.328000", "113259.328000", "113259.328000", "113259.328000", "113259.343000", "113259.343000", "113259.343000", "113259.343000", "113259.343000", "113259.343000", "113259.343000", "113259.359000", "113259.359000", "113259.359000", "113259.359000", "113319.296000", "113319.312000", "113319.312000", "113319.312000", "113319.312000", "113319.312000", "113319.312000", "113319.312000", "113319.312000", "113319.328000", "113319.328000", "113319.328000", "113319.328000", "113319.328000", "113319.328000", "113319.343000", "113319.343000", "113319.343000", "113319.343000", "113319.343000", "113319.343000", "113319.343000", "113319.343000", "113319.359000", "113319.359000", "113339.296000", "113339.312000", "113339.312000", "113339.312000", "113339.312000", "113339.312000", "113339.312000", "113339.312000", "113339.312000", "113339.328000", "113339.328000", "113339.328000", "113339.328000", "113339.328000", "113339.328000", "113339.328000", "113339.343000", "113339.343000", "113339.343000", "113339.343000", "113339.343000", "113339.343000", "113339.343000", "113339.343000", "113339.359000", "113339.359000", "113359.296000", "113359.312000", "113359.312000", "113359.312000", "113359.312000", "113359.312000", "113359.312000", "113359.312000", "113359.312000", "113359.328000", "113359.328000", "113359.328000", "113359.328000", "113359.328000", "113359.328000", "113359.328000", "113359.343000", "113359.343000", "113359.343000", "113359.343000", "113359.343000", "113359.343000", "113359.343000", "113359.343000", "113359.359000", "113419.296000", "113419.312000", "113419.312000", "113419.312000", "113419.312000", "113419.312000", "113419.312000", "113419.312000", "113419.312000", "113419.328000", "113419.328000", "113419.328000", "113419.328000", "113419.328000", "113419.328000", "113419.328000", "113419.343000", "113419.343000", "113419.343000", "113419.343000", "113419.343000", "113419.343000", "113419.343000", "113419.343000", "113419.359000", "113419.359000", "113439.296000", "113439.312000", "113439.312000", "113439.312000", "113439.312000", "113439.312000", "113439.312000", "113439.312000", "113439.312000", "113439.328000", "113439.328000", "113439.328000", "113439.328000", "113439.328000", "113439.328000", "113439.343000", "113439.343000", "113439.343000", "113439.343000", "113439.343000", "113439.343000", "113439.343000", "113439.359000", "113439.359000", "113439.359000", "113459.296000", "113459.312000", "113459.312000", "113459.312000", "113459.312000", "113459.312000", "113459.312000", "113459.312000", "113459.328000", "113459.328000", "113459.328000", "113459.328000", "113459.328000", "113459.328000", "113459.328000", "113459.328000", "113459.343000", "113459.343000", "113459.343000", "113459.343000", "113459.343000", "113459.343000", "113459.343000", "113459.343000", "113459.359000", "113459.359000", "113519.296000", "113519.312000", "113519.312000", "113519.312000", "113519.312000", "113519.312000", "113519.312000", "113519.312000", "113519.312000", "113519.328000", "113519.328000", "113519.328000", "113519.328000", "113519.328000", "113519.328000", "113519.328000", "113519.343000", "113519.343000", "113519.343000", "113519.343000", "113519.343000", "113519.359000", "113519.359000", "113519.359000", "113519.359000", "113539.296000", "113539.312000", "113539.312000", "113539.312000", "113539.312000", "113539.312000", "113539.312000", "113539.312000", "113539.312000", "113539.328000", "113539.328000", "113539.328000", "113539.328000", "113539.328000", "113539.328000", "113539.328000", "113539.343000", "113539.343000", "113539.343000", "113539.343000", "113539.343000", "113539.343000", "113539.343000", "113539.359000", "113539.359000", "113539.359000", "113559.296000", "113559.312000", "113559.312000", "113559.312000", "113559.312000", "113559.312000", "113559.312000", "113559.312000", "113559.312000", "113559.328000", "113559.328000", "113559.328000", "113559.328000", "113559.328000", "113559.328000", "113559.328000", "113559.343000", "113559.343000", "113559.343000", "113559.343000", "113559.343000", "113559.343000", "113559.343000", "113559.343000", "113559.359000", "113619.296000", "113619.312000", "113619.312000", "113619.312000", "113619.312000", "113619.312000", "113619.312000", "113619.312000", "113619.312000", "113619.328000", "113619.328000", "113619.328000", "113619.328000", "113619.328000", "113619.328000", "113619.328000", "113619.343000", "113619.343000", "113619.343000", "113619.343000", "113619.343000", "113619.343000", "113619.359000", "113619.359000", "113619.359000", "113619.359000", "113639.296000", "113639.312000", "113639.312000", "113639.312000", "113639.312000", "113639.312000", "113639.312000", "113639.312000", "113639.312000", "113639.328000", "113639.328000", "113639.328000", "113639.328000", "113639.328000", "113639.328000", "113639.328000", "113639.343000", "113639.343000", "113639.343000", "113639.343000", "113639.343000", "113639.343000", "113639.343000", "113639.359000", "113639.359000", "113659.296000", "113659.312000", "113659.312000", "113659.312000", "113659.312000", "113659.312000", "113659.312000", "113659.312000", "113659.312000", "113659.328000", "113659.328000", "113659.328000", "113659.328000", "113659.328000", "113659.328000", "113659.328000", "113659.343000", "113659.343000", "113659.343000", "113659.343000", "113659.343000", "113659.343000", "113659.359000", "113659.359000", "113659.359000", "113659.359000", "113719.296000", "113719.312000", "113719.312000", "113719.312000", "113719.312000", "113719.312000", "113719.312000", "113719.312000", "113719.312000", "113719.328000", "113719.328000", "113719.328000", "113719.328000", "113719.328000", "113719.328000", "113719.328000", "113719.343000", "113719.343000", "113719.343000", "113719.343000", "113719.343000", "113719.343000", "113719.359000", "113719.359000", "113719.359000", "113739.296000", "113739.312000", "113739.312000", "113739.312000", "113739.312000", "113739.312000", "113739.312000", "113739.312000", "113739.312000", "113739.328000", "113739.328000", "113739.328000", "113739.328000", "113739.328000", "113739.328000", "113739.328000", "113739.343000", "113739.343000", "113739.343000", "113739.343000", "113739.343000", "113739.343000", "113739.343000", "113739.343000", "113739.359000", "113739.359000", "113759.296000", "113759.312000", "113759.312000", "113759.312000", "113759.312000", "113759.312000", "113759.312000", "113759.312000", "113759.328000", "113759.328000", "113759.328000", "113759.328000", "113759.328000", "113759.328000", "113759.328000", "113759.343000", "113759.343000", "113759.343000", "113759.343000", "113759.343000", "113759.343000", "113759.343000", "113759.343000", "113759.359000", "113759.359000", "113819.296000", "113819.312000", "113819.312000", "113819.312000", "113819.312000", "113819.312000", "113819.312000", "113819.312000", "113819.312000", "113819.328000", "113819.328000", "113819.328000", "113819.328000", "113819.328000", "113819.328000", "113819.328000", "113819.343000", "113819.343000", "113819.343000", "113819.343000", "113819.343000", "113819.343000", "113819.343000", "113819.343000", "113819.359000", "113839.296000", "113839.312000", "113839.312000", "113839.312000", "113839.312000", "113839.312000", "113839.312000", "113839.312000", "113839.312000", "113839.328000", "113839.328000", "113839.328000", "113839.328000", "113839.328000", "113839.328000", "113839.328000", "113839.343000", "113839.343000", "113839.343000", "113839.343000", "113839.343000", "113839.343000", "113839.343000", "113839.343000", "113839.359000", "113839.359000", "113859.296000", "113859.312000", "113859.312000", "113859.312000", "113859.312000", "113859.312000", "113859.312000", "113859.312000", "113859.312000", "113859.328000", "113859.328000", "113859.328000", "113859.328000", "113859.328000", "113859.343000", "113859.343000", "113859.343000", "113859.343000", "113859.343000", "113859.359000", "113859.359000", "113859.406000", "113859.406000", "113859.421000", "113859.421000", "113910.390000", "113910.390000", "113910.390000", "113910.390000", "113910.390000", "113910.390000", "113910.390000", "113910.406000", "113910.406000", "113910.406000", "113910.406000", "113910.406000", "113910.406000", "113910.406000", "113910.421000"],
