{
  "AcquisitionMatrixPE": 104,
  "AcquisitionNumber": 1,
  "AcquisitionTime": "11:23:32.735000",
  "BandwidthPerPixelPhaseEncode": 13.935,
  "BaseResolution": 104,
  "CoilString": "C:HEA;HEP",
  "ConversionSoftware": "dcm2niix",
  "ConversionSoftwareVersion": "v1.0.20210317",
  "DerivedVendorReportedEchoSpacing": 0.000690017,
  "DeviceSerialNumber": "35450",
  "DwellTime": 2.5e-06,
  "EchoTime": 0.0348,
  "EffectiveEchoSpacing": 0.000690017,
  "FlipAngle": 55,
  "ImageComments": "Unaliased MB8/PE3 (remote)",
  "ImageOrientationPatientDICOM": [0.999452, -0.00363331, -0.0329077, -1.55814e-08, 0.99396, -0.109743],
  "ImageType": [
    "ORIGINAL",
    "PRIMARY",
    "M",
    "MB",
    "ND",
    "MOSAIC"
],
  "ImagingFrequency": 123.235,
  "InPlanePhaseEncodingDirectionDICOM": "COL",
  "InstitutionAddress": "Univeristy Ave. 197,Newark,North East,US,07102-1814",
  "InstitutionName": "RUBIC",
  "InstitutionalDepartmentName": "Department",
  "MRAcquisitionType": "2D",
  "MagneticFieldStrength": 3,
  "Manufacturer": "Siemens",
  "ManufacturersModelName": "TrioTim",
  "Modality": "MR",
  "MultibandAccelerationFactor": 8,
  "PartialFourier": 0.875,
  "PatientPosition": "HFS",
  "PercentPhaseFOV": 100,
  "PercentSampling": 100,
  "PhaseEncodingDirection": "j-",
  "PhaseEncodingSteps": 91,
  "PhaseResolution": 1,
  "PixelBandwidth": 1923,
  "ProcedureStepDescription": "Cole^Michael",
  "ProtocolName": "cmrr_mbep2d_bold_2mm_MB8_Task_8x",
  "PulseSequenceDetails": "%CustomerSeq%\\cmrr_mbep2d_bold",
  "ReceiveCoilName": "32Ch_Head",
  "ReconMatrixPE": 104,
  "RepetitionTime": 0.785,
  "SAR": 0.16972,
  "ScanOptions": "PFP\\FS",
  "ScanningSequence": "EP",
  "SequenceName": "epfid2d1_104",
  "SequenceVariant": "SK\\SS",
  "SeriesDescription": "cmrr_mbep2d_bold_2mm_MB8_Task_8x",
  "SeriesNumber": 21,
  "ShimSetting": [2141, -500, -7666, 521, 0, -619, -1111, 18],
  "SliceThickness": 2,
  "SliceTiming": [0, 0.4375, 0.0875, 0.525, 0.175, 0.6125, 0.2625, 0.7, 0.35, 0, 0.4375, 0.0875, 0.525, 0.175, 0.6125, 0.2625, 0.7, 0.35, 0, 0.4375, 0.0875, 0.525, 0.175, 0.6125, 0.2625, 0.7, 0.35, 0, 0.4375, 0.0875, 0.525, 0.175, 0.6125, 0.2625, 0.7, 0.35, 0, 0.4375, 0.0875, 0.525, 0.175, 0.6125, 0.2625, 0.7, 0.35, 0, 0.4375, 0.0875, 0.525, 0.175, 0.6125, 0.2625, 0.7, 0.35, 0, 0.4375, 0.0875, 0.525, 0.175, 0.6125, 0.2625, 0.7, 0.35, 0, 0.4375, 0.0875, 0.525, 0.175, 0.6125, 0.2625, 0.7, 0.35],
  "SoftwareVersions": "syngo MR B19",
  "SpacingBetweenSlices": 2,
  "StationName": "MRC35450",
  "TaskName": "cpro",
  "TotalReadoutTime": 0.0710717,
  "TxRefAmp": 349.969,
  "dcmmeta_affine": [
    [-1.9989036321640015, -3.1162716851440564e-08, -0.0662154108285904, 103.55355072021484],
    [0.007266628555953503, 1.9879200458526611, -0.21936510503292084, -75.86308288574219],
    [-0.06581547856330872, 0.21948543190956116, 1.986830234527588, -119.38642120361328],
    [0.0, 0.0, 0.0, 1.0]
],
  "dcmmeta_reorient_transform": [
    [0.0, -1.0, 0.0, 103.0],
    [1.0, 0.0, 0.0, 0.0],
    [0.0, 0.0, 1.0, 0.0],
    [0.0, 0.0, 0.0, 1.0]
],
  "dcmmeta_shape": [104, 104, 72, 581],
  "dcmmeta_slice_dim": 2,
  "dcmmeta_version": 0.6,
  "global": {
    "const": {
      "AcquisitionMatrix": [104, 0, 0, 104],
      "AngioFlag": "N",
      "BitsAllocated": 16,
      "BitsStored": 12,
      "Columns": 936,
      "EchoNumbers": 1,
      "EchoTime": 34.8,
      "EchoTrainLength": 1,
      "FlipAngle": 55.0,
      "HighBit": 11,
      "ImageOrientationPatient": [0.9994517896099, -0.0036333141749, -0.0329077388114, -1.5581358e-08, 0.99396002752351, -0.1097427158652],
      "ImagePositionPatient": [-935.09742090789, -952.84450631572, 21.90575904895],
      "ImageType": [
        "ORIGINAL",
        "PRIMARY",
        "M",
        "MB",
        "ND",
        "MOSAIC"
],
      "ImagedNucleus": "1H",
      "ImagingFrequency": 123.234752,
      "InPlanePhaseEncodingDirection": "COL",
      "MRAcquisitionType": "2D",
      "MagneticFieldStrength": 3.0,
      "Manufacturer": "SIEMENS",
      "ManufacturerModelName": "TrioTim",
      "Modality": "MR",
      "NumberOfAverages": 1.0,
      "NumberOfPhaseEncodingSteps": 91,
      "PercentPhaseFieldOfView": 100.0,
      "PercentSampling": 100.0,
      "PerformedProcedureStepStartTime": "100406.109000",
      "PhotometricInterpretation": "MONOCHROME2",
      "PixelBandwidth": 1923.0,
      "PixelRepresentation": 0,
      "PixelSpacing": [2.0, 2.0],
      "ProtocolName": "cmrr_mbep2d_bold_2mm_MB8_Task_8x",
      "RepetitionTime": 785.0,
      "Rows": 936,
      "SAR": 0.16971983118393,
      "SamplesPerPixel": 1,
      "ScanOptions": [
        "PFP",
        "FS"
],
      "ScanningSequence": "EP",
      "SequenceName": "epfid2d1_104",
      "SequenceVariant": [
        "SK",
        "SS"
],
      "SeriesDescription": "cmrr_mbep2d_bold_2mm_MB8_Task_8x",
      "SeriesNumber": 21,
      "SeriesTime": "112359.343000",
      "SliceLocation": -113.70783803472,
      "SliceThickness": 2.0,
      "SmallestImagePixelValue": 0,
      "SoftwareVersions": "syngo MR B19",
      "SpacingBetweenSlices": 1.9999999831704,
      "SpecificCharacterSet": "ISO_IR 100",
      "StudyID": "1",
      "StudyTime": "100406.046000",
      "TransmitCoilName": "Body",
      "VariableFlipAngleFlag": "N",
      "WindowCenterWidthExplanation": "Algo1",
      "dBdt": 0.0},
    "slices": {}
  },
  "time": {
    "samples": {
      "AcquisitionNumber": [1, 2, 3, 4, 5, 6, 7, 8, 9, 10, 11, 12, 13, 14, 15, 16, 17, 18, 19, 20, 21, 22, 23, 24, 25, 26, 27, 28, 29, 30, 31, 32, 33, 34, 35, 36, 37, 38, 39, 40, 41, 42, 43, 44, 45, 46, 47, 48, 49, 50, 51, 52, 53, 54, 55, 56, 57, 58, 59, 60, 61, 62, 63, 64, 65, 66, 67, 68, 69, 70, 71, 72, 73, 74, 75, 76, 77, 78, 79, 80, 81, 82, 83, 84, 85, 86, 87, 88, 89, 90, 91, 92, 93, 94, 95, 96, 97, 98, 99, 100, 101, 102, 103, 104, 105, 106, 107, 108, 109, 110, 111, 112, 113, 114, 115, 116, 117, 118, 119, 120, 121, 122, 123, 124, 125, 126, 127, 128, 129, 130, 131, 132, 133, 134, 135, 136, 137, 138, 139, 140, 141, 142, 143, 144, 145, 146, 147, 148, 149, 150, 151, 152, 153, 154, 155, 156, 157, 158, 159, 160, 161, 162, 163, 164, 165, 166, 167, 168, 169, 170, 171, 172, 173, 174, 175, 176, 177, 178, 179, 180, 181, 182, 183, 184, 185, 186, 187, 188, 189, 190, 191, 192, 193, 194, 195, 196, 197, 198, 199, 200, 201, 202, 203, 204, 205, 206, 207, 208, 209, 210, 211, 212, 213, 214, 215, 216, 217, 218, 219, 220, 221, 222, 223, 224, 225, 226, 227, 228, 229, 230, 231, 232, 233, 234, 235, 236, 237, 238, 239, 240, 241, 242, 243, 244, 245, 246, 247, 248, 249, 250, 251, 252, 253, 254, 255, 256, 257, 258, 259, 260, 261, 262, 263, 264, 265, 266, 267, 268, 269, 270, 271, 272, 273, 274, 275, 276, 277, 278, 279, 280, 281, 282, 283, 284, 285, 286, 287, 288, 289, 290, 291, 292, 293, 294, 295, 296, 297, 298, 299, 300, 301, 302, 303, 304, 305, 306, 307, 308, 309, 310, 311, 312, 313, 314, 315, 316, 317, 318, 319, 320, 321, 322, 323, 324, 325, 326, 327, 328, 329, 330, 331, 332, 333, 334, 335, 336, 337, 338, 339, 340, 341, 342, 343, 344, 345, 346, 347, 348, 349, 350, 351, 352, 353, 354, 355, 356, 357, 358, 359, 360, 361, 362, 363, 364, 365, 366, 367, 368, 369, 370, 371, 372, 373, 374, 375, 376, 377, 378, 379, 380, 381, 382, 383, 384, 385, 386, 387, 388, 389, 390, 391, 392, 393, 394, 395, 396, 397, 398, 399, 400, 401, 402, 403, 404, 405, 406, 407, 408, 409, 410, 411, 412, 413, 414, 415, 416, 417, 418, 419, 420, 421, 422, 423, 424, 425, 426, 427, 428, 429, 430, 431, 432, 433, 434, 435, 436, 437, 438, 439, 440, 441, 442, 443, 444, 445, 446, 447, 448, 449, 450, 451, 452, 453, 454, 455, 456, 457, 458, 459, 460, 461, 462, 463, 464, 465, 466, 467, 468, 469, 470, 471, 472, 473, 474, 475, 476, 477, 478, 479, 480, 481, 482, 483, 484, 485, 486, 487, 488, 489, 490, 491, 492, 493, 494, 495, 496, 497, 498, 499, 500, 501, 502, 503, 504, 505, 506, 507, 508, 509, 510, 511, 512, 513, 514, 515, 516, 517, 518, 519, 520, 521, 522, 523, 524, 525, 526, 527, 528, 529, 530, 531, 532, 533, 534, 535, 536, 537, 538, 539, 540, 541, 542, 543, 544, 545, 546, 547, 548, 549, 550, 551, 552, 553, 554, 555, 556, 557, 558, 559, 560, 561, 562, 563, 564, 565, 566, 567, 568, 569, 570, 571, 572, 573, 574, 575, 576, 577, 578, 579, 580, 581],
      "AcquisitionTime": ["112332.735000", "112333.522500", "112334.310000", "112335.097500", "112335.887500", "112336.675000", "112337.462500", "112338.250000", "112339.040000", "112339.827500", "112340.615000", "112341.402500", "112342.192500", "112342.980000", "112343.767500", "112344.555000", "112345.345000", "112346.132500", "112346.920000", "112347.707500", "112348.497500", "112349.285000", "112350.072500", "112350.862500", "112351.650000", "112352.437500", "112353.225000", "112354.015000", "112354.802500", "112355.590000", "112356.377500", "112357.167500", "112357.955000", "112358.742500", "112359.530000", "112400.320000", "112401.107500", "112401.895000", "112402.682500", "112403.472500", "112404.260000", "112405.047500", "112405.835000", "112406.625000", "112407.412500", "112408.200000", "112408.990000", "112409.777500", "112410.565000", "112411.352500", "112412.142500", "112412.930000", "112413.717500", "112414.505000", "112415.295000", "112416.082500", "112416.870000", "112417.657500", "112418.447500", "112419.235000", "112420.022500", "112420.810000", "112421.600000", "112422.387500", "112423.175000", "112423.962500", "112424.752500", "112425.540000", "112426.327500", "112427.117500", "112427.905000", "112428.692500", "112429.480000", "112430.270000", "112431.057500", "112431.845000", "112432.632500", "112433.422500", "112434.210000", "112434.997500", "112435.785000", "112436.575000", "112437.362500", "112438.150000", "112438.937500", "112439.727500", "112440.515000", "112441.302500", "112442.092500", "112442.880000", "112443.667500", "112444.455000", "112445.245000", "112446.032500", "112446.820000", "112447.607500", "112448.397500", "112449.185000", "112449.972500", "112450.760000", "112451.550000", "112452.337500", "112453.125000", "112453.912500", "112454.702500", "112455.490000", "112456.277500", "112457.065000", "112457.855000", "112458.642500", "112459.430000", "112500.220000", "112501.007500", "112501.795000", "112502.582500", "112503.372500", "112504.160000", "112504.947500", "112505.735000", "112506.525000", "112507.312500", "112508.100000", "112508.887500", "112509.677500", "112510.465000", "112511.252500", "112512.040000", "112512.830000", "112513.617500", "112514.405000", "112515.192500", "112515.982500", "112516.770000", "112517.557500", "112518.347500", "112519.135000", "112519.922500", "112520.710000", "112521.500000", "112522.287500", "112523.075000", "112523.862500", "112524.652500", "112525.440000", "112526.227500", "112527.015000", "112527.805000", "112528.592500", "112529.380000", "112530.167500", "112530.957500", "112531.745000", "112532.532500", "112533.320000", "112534.110000", "112534.897500", "112535.685000", "112536.475000", "112537.262500", "112538.050000", "112538.837500", "112539.627500", "112540.415000", "112541.202500", "112541.990000", "112542.780000", "112543.567500", "112544.355000", "112545.142500", "112545.932500", "112546.720000", "112547.507500", "112548.295000", "112549.085000", "112549.872500", "112550.660000", "112551.447500", "112552.237500", "112553.025000", "112553.812500", "112554.602500", "112555.390000", "112556.177500", "112556.965000", "112557.755000", "112558.542500", "112559.330000", "112600.117500", "112600.907500", "112601.695000", "112602.482500", "112603.270000", "112604.060000", "112604.847500", "112605.635000", "112606.422500", "112607.212500", "112608.000000", "112608.787500", "112609.575000", "112610.365000", "112611.152500", "112611.940000", "112612.730000", "112613.517500", "112614.305000", "112615.092500", "112615.882500", "112616.670000", "112617.457500", "112618.245000", "112619.035000", "112619.822500", "112620.610000", "112621.397500", "112622.187500", "112622.975000", "112623.762500", "112624.550000", "112625.340000", "112626.127500", "112626.915000", "112627.702500", "112628.492500", "112629.280000", "112630.067500", "112630.857500", "112631.645000", "112632.432500", "112633.220000", "112634.010000", "112634.797500", "112635.585000", "112636.372500", "112637.162500", "112637.950000", "112638.737500", "112639.525000", "112640.315000", "112641.102500", "112641.890000", "112642.677500", "112643.467500", "112644.255000", "112645.042500", "112645.830000", "112646.620000", "112647.407500", "112648.195000", "112648.985000", "112649.772500", "112650.560000", "112651.347500", "112652.137500", "112652.925000", "112653.712500", "112654.500000", "112655.290000", "112656.077500", "112656.865000", "112657.652500", "112658.442500", "112659.230000", "112700.017500", "112700.805000", "112701.595000", "112702.382500", "112703.170000", "112703.957500", "112704.747500", "112705.535000", "112706.322500", "112707.112500", "112707.900000", "112708.687500", "112709.475000", "112710.265000", "112711.052500", "112711.840000", "112712.627500", "112713.417500", "112714.205000", "112714.992500", "112715.780000", "112716.570000", "112717.357500", "112718.145000", "112718.932500", "112719.722500", "112720.510000", "112721.297500", "112722.085000", "112722.875000", "112723.662500", "112724.450000", "112725.240000", "112726.027500", "112726.815000", "112727.602500", "112728.392500", "112729.180000", "112729.967500", "112730.755000", "112731.545000", "112732.332500", "112733.120000", "112733.907500", "112734.697500", "112735.485000", "112736.272500", "112737.060000", "112737.850000", "112738.637500", "112739.425000", "112740.212500", "112741.002500", "112741.790000", "112742.577500", "112743.367500", "112744.155000", "112744.942500", "112745.730000", "112746.520000", "112747.307500", "112748.095000", "112748.882500", "112749.672500", "112750.460000", "112751.247500", "112752.035000", "112752.825000", "112753.612500", "112754.400000", "112755.187500", "112755.977500", "112756.765000", "112757.552500", "112758.342500", "112759.130000", "112759.917500", "112800.705000", "112801.495000", "112802.282500", "112803.070000", "112803.857500", "112804.647500", "112805.435000", "112806.222500", "112807.010000", "112807.800000", "112808.587500", "112809.375000", "112810.162500", "112810.952500", "112811.740000", "112812.527500", "112813.315000", "112814.105000", "112814.892500", "112815.680000", "112816.470000", "112817.257500", "112818.045000", "112818.832500", "112819.622500", "112820.410000", "112821.197500", "112821.985000", "112822.775000", "112823.562500", "112824.350000", "112825.137500", "112825.927500", "112826.715000", "112827.502500", "112828.290000", "112829.080000", "112829.867500", "112830.655000", "112831.442500", "112832.232500", "112833.020000", "112833.807500", "112834.597500", "112835.385000", "112836.172500", "112836.960000", "112837.750000", "112838.537500", "112839.325000", "112840.112500", "112840.902500", "112841.690000", "112842.477500", "112843.265000", "112844.055000", "112844.842500", "112845.630000", "112846.417500", "112847.207500", "112847.995000", "112848.782500", "112849.570000", "112850.360000", "112851.147500", "112851.935000", "112852.725000", "112853.512500", "112854.300000", "112855.087500", "112855.877500", "112856.665000", "112857.452500", "112858.240000", "112859.030000", "112859.817500", "112900.605000", "112901.392500", "112902.182500", "112902.970000", "112903.757500", "112904.545000", "112905.335000", "112906.122500", "112906.910000", "112907.697500", "112908.487500", "112909.275000", "112910.062500", "112910.852500", "112911.640000", "112912.427500", "112913.215000", "112914.005000", "112914.792500", "112915.580000", "112916.367500", "112917.157500", "112917.945000", "112918.732500", "112919.520000", "112920.310000", "112921.097500", "112921.885000", "112922.672500", "112923.462500", "112924.250000", "112925.037500", "112925.825000", "112926.615000", "112927.402500", "112928.190000", "112928.980000", "112929.767500", "112930.555000", "112931.342500", "112932.132500", "112932.920000", "112933.707500", "112934.495000", "112935.285000", "112936.072500", "112936.860000", "112937.647500", "112938.437500", "112939.225000", "112940.012500", "112940.800000", "112941.590000", "112942.377500", "112943.165000", "112943.952500", "112944.742500", "112945.530000", "112946.317500", "112947.107500", "112947.895000", "112948.682500", "112949.470000", "112950.260000", "112951.047500", "112951.835000", "112952.622500", "112953.412500", "112954.200000", "112954.987500", "112955.775000", "112956.565000", "112957.352500", "112958.140000", "112958.927500", "112959.717500", "113000.505000", "113001.292500", "113002.080000", "113002.870000", "113003.657500", "113004.445000", "113005.235000", "113006.022500", "113006.810000", "113007.597500", "113008.387500", "113009.175000", "113009.962500", "113010.750000", "113011.540000", "113012.327500", "113013.115000", "113013.902500", "113014.692500", "113015.480000", "113016.267500", "113017.055000", "113017.845000", "113018.632500", "113019.420000", "113020.207500", "113020.997500", "113021.785000", "113022.572500", "113023.362500", "113024.150000", "113024.937500", "113025.725000", "113026.515000", "113027.302500", "113028.090000", "113028.877500", "113029.667500", "113030.455000", "113031.242500", "113032.030000", "113032.820000", "113033.607500", "113034.395000", "113035.182500", "113035.972500", "113036.760000", "113037.547500", "113038.335000", "113039.125000", "113039.912500", "113040.700000", "113041.490000", "113042.277500", "113043.065000", "113043.852500", "113044.642500", "113045.430000", "113046.217500", "113047.005000", "113047.795000", "113048.582500", "113049.370000", "113050.157500", "113050.947500", "113051.735000", "113052.522500", "113053.310000", "113054.100000", "113054.887500", "113055.675000", "113056.462500", "113057.252500", "113058.040000", "113058.827500", "113059.617500", "113100.405000", "113101.192500", "113101.980000", "113102.770000", "113103.557500", "113104.345000", "113105.132500", "113105.922500", "113106.710000", "113107.497500", "113108.285000", "113109.075000", "113109.862500"],
      "ContentTime": ["112359.343000", "112359.343000", "112359.343000", "112359.343000", "112359.343000", "112359.359000", "112359.359000", "112359.359000", "112359.359000", "112359.359000", "112359.359000", "112359.359000", "112359.375000", "112359.375000", "112359.375000", "112359.375000", "112359.375000", "112359.375000", "112359.375000", "112359.375000", "112359.390000", "112359.390000", "112359.390000", "112359.390000", "112359.390000", "112359.390000", "112359.390000", "112359.406000", "112359.406000", "112359.406000", "112359.406000", "112359.406000", "112419.312000", "112419.328000", "112419.328000", "112419.328000", "112419.328000", "112419.328000", "112419.328000", "112419.328000", "112419.328000", "112419.343000", "112419.343000", "112419.343000", "112419.343000", "112419.343000", "112419.343000", "112419.343000", "112419.359000", "112419.359000", "112419.359000", "112419.359000", "112419.359000", "112419.359000", "112419.359000", "112419.375000", "112419.375000", "112439.312000", "112439.328000", "112439.328000", "112439.328000", "112439.328000", "112439.328000", "112439.328000", "112439.328000", "112439.328000", "112439.343000", "112439.343000", "112439.343000", "112439.343000", "112439.343000", "112439.343000", "112439.343000", "112439.359000", "112439.359000", "112439.359000", "112439.359000", "112439.359000", "112439.359000", "112439.359000", "112439.375000", "112439.375000", "112439.375000", "112459.312000", "112459.328000", "112459.328000", "112459.328000", "112459.328000", "112459.328000", "112459.328000", "112459.328000", "112459.328000", "112459.343000", "112459.343000", "112459.343000", "112459.343000", "112459.343000", "112459.343000", "112459.359000", "112459.359000", "112459.359000", "112459.359000", "112459.359000", "112459.375000", "112459.375000", "112459.375000", "112459.375000", "112459.375000", "112519.312000", "112519.328000", "112519.328000", "112519.328000", "112519.328000", "112519.328000", "112519.328000", "112519.328000", "112519.328000", "112519.343000", "112519.343000", "112519.343000", "112519.343000", "112519.343000", "112519.343000", "112519.343000", "112519.359000", "112519.359000", "112519.359000", "112519.359000", "112519.359000", "112519.375000", "112519.375000", "112519.375000", "112519.375000", "112519.375000", "112539.312000", "112539.328000", "112539.328000", "112539.328000", "112539.328000", "112539.328000", "112539.328000", "112539.328000", "112539.328000", "112539.343000", "112539.343000", "112539.343000", "112539.343000", "112539.343000", "112539.343000", "112539.343000", "112539.359000", "112539.359000", "112539.359000", "112539.359000", "112539.359000", "112539.359000", "112539.359000", "112539.359000", "112539.375000", "112559.312000", "112559.328000", "112559.328000", "112559.328000", "112559.328000", "112559.328000", "112559.328000", "112559.328000", "112559.343000", "112559.343000", "112559.343000", "112559.343000", "112559.343000", "112559.343000", "112559.343000", "112559.343000", "112559.359000", "112559.359000", "112559.359000", "112559.359000", "112559.359000", "112559.359000", "112559.359000", "112559.375000", "112559.375000", "112559.375000", "112619.312000", "112619.328000", "112619.328000", "112619.328000", "112619.328000", "112619.328000", "112619.328000", "112619.328000", "112619.328000", "112619.343000", "112619.343000", "112619.343000", "112619.343000", "112619.343000", "112619.343000", "112619.343000", "112619.359000", "112619.359000", "112619.359000", "112619.359000", "112619.359000", "112619.359000", "112619.359000", "112619.375000", "112619.375000", "112639.312000", "112639.328000", "112639.328000", "112639.328000", "112639.328000", "112639.328000", "112639.328000", "112639.328000", "112639.343000", "112639.343000", "112639.343000", "112639.343000", "112639.343000", "112639.343000", "112639.343000", "112639.343000", "112639.359000", "112639.359000", "112639.359000", "112639.359000", "112639.359000", "112639.359000", "112639.359000", "112639.375000", "112639.375000", "112639.375000", "112659.312000", "112659.328000", "112659.328000", "112659.328000", "112659.328000", "112659.328000", "112659.328000", "112659.328000", "112659.343000", "112659.343000", "112659.343000", "112659.343000", "112659.343000", "112659.343000", "112659.343000", "112659.343000", "112659.359000", "112659.359000", "112659.359000", "112659.359000", "112659.359000", "112659.359000", "112659.359000", "112659.359000", "112659.375000", "112719.312000", "112719.328000", "112719.328000", "112719.328000", "112719.328000", "112719.328000", "112719.328000", "112719.328000", "112719.328000", "112719.343000", "112719.343000", "112719.343000", "112719.343000", "112719.343000", "112719.343000", "112719.343000", "112719.359000", "112719.359000", "112719.359000", "112719.359000", "112719.359000", "112719.375000", "112719.375000", "112719.375000", "112719.375000", "112719.375000", "112739.312000", "112739.328000", "112739.328000", "112739.328000", "112739.328000", "112739.328000", "112739.328000", "112739.328000", "112739.343000", "112739.343000", "112739.343000", "112739.343000", "112739.343000", "112739.343000", "112739.343000", "112739.359000", "112739.359000", "112739.359000", "112739.359000", "112739.359000", "112739.359000", "112739.359000", "112739.359000", "112739.375000", "112739.375000", "112759.312000", "112759.328000", "112759.328000", "112759.328000", "112759.343000", "112759.343000", "112759.343000", "112759.359000", "112759.359000", "112759.359000", "112759.359000", "112759.359000", "112759.359000", "112759.359000", "112759.359000", "112759.375000", "112759.375000", "112759.375000", "112759.375000", "112759.375000", "112759.375000", "112759.375000", "112759.390000", "112759.390000", "112759.390000", "112819.312000", "112819.328000", "112819.328000", "112819.328000", "112819.328000", "112819.328000", "112819.328000", "112819.328000", "112819.328000", "112819.343000", "112819.343000", "112819.343000", "112819.343000", "112819.343000", "112819.343000", "112819.343000", "112819.359000", "112819.359000", "112819.359000", "112819.359000", "112819.359000", "112819.359000", "112819.359000", "112819.359000", "112819.375000", "112819.375000", "112839.312000", "112839.328000", "112839.328000", "112839.328000", "112839.328000", "112839.328000", "112839.328000", "112839.328000", "112839.343000", "112839.343000", "112839.343000", "112839.343000", "112839.343000", "112839.343000", "112839.343000", "112839.359000", "112839.359000", "112839.359000", "112839.359000", "112839.359000", "112839.359000", "112839.359000", "112839.375000", "112839.375000", "112839.375000", "112859.312000", "112859.328000", "112859.328000", "112859.328000", "112859.328000", "112859.328000", "112859.328000", "112859.328000", "112859.328000", "112859.343000", "112859.343000", "112859.343000", "112859.343000", "112859.343000", "112859.343000", "112859.343000", "112859.359000", "112859.359000", "112859.359000", "112859.359000", "112859.359000", "112859.359000", "112859.359000", "112859.375000", "112859.375000", "112859.375000", "112919.312000", "112919.328000", "112919.328000", "112919.328000", "112919.328000", "112919.328000", "112919.328000", "112919.328000", "112919.328000", "112919.343000", "112919.343000", "112919.343000", "112919.343000", "112919.343000", "112919.343000", "112919.343000", "112919.359000", "112919.359000", "112919.359000", "112919.359000", "112919.359000", "112919.359000", "112919.375000", "112919.375000", "112919.375000", "112939.312000", "112939.328000", "112939.328000", "112939.328000", "112939.328000", "112939.328000", "112939.343000", "112939.343000", "112939.343000", "112939.343000", "112939.343000", "112939.343000", "112939.359000", "112939.359000", "112939.359000", "112939.359000", "112939.359000", "112939.359000", "112939.359000", "112939.375000", "112939.375000", "112939.375000", "112939.375000", "112939.375000", "112939.375000", "112939.375000", "112959.312000", "112959.328000", "112959.328000", "112959.328000", "112959.328000", "112959.328000", "112959.343000", "112959.343000", "112959.343000", "112959.343000", "112959.343000", "112959.343000", "112959.359000", "112959.359000", "112959.359000", "112959.359000", "112959.359000", "112959.375000", "112959.375000", "112959.375000", "112959.375000", "112959.375000", "112959.375000", "112959.375000", "112959.375000", "113019.312000", "113019.328000", "113019.328000", "113019.328000", "113019.328000", "113019.328000", "113019.328000", "113019.328000", "113019.343000", "113019.343000", "113019.343000", "113019.343000", "113019.343000", "113019.343000", "113019.359000", "113019.359000", "113019.359000", "113019.359000", "113019.359000", "113019.359000", "113019.375000", "113019.375000", "113019.375000", "113019.375000", "113019.375000", "113019.375000", "113039.312000", "113039.328000", "113039.328000", "113039.328000", "113039.328000", "113039.328000", "113039.328000", "113039.328000", "113039.343000", "113039.343000", "113039.343000", "113039.343000", "113039.343000", "113039.343000", "113039.343000", "113039.343000", "113039.359000", "113039.359000", "113039.359000", "113039.359000", "113039.359000", "113039.359000", "113039.359000", "113039.375000", "113039.375000", "113059.312000", "113059.328000", "113059.328000", "113059.328000", "113059.328000", "113059.328000", "113059.328000", "113059.343000", "113059.343000", "113059.343000", "113059.343000", "113059.343000", "113059.343000", "113059.343000", "113059.343000", "113059.359000", "113059.359000", "113059.359000", "113059.359000", "113059.359000", "113059.359000", "113059.359000", "113059.375000", "113059.375000", "113059.375000", "113059.375000", "113110.125000", "113110.125000", "113110.125000", "113110.125000", "113110.125000", "113110.125000", "113110.125000", "113110.140000", "113110.140000", "113110.140000", "113110.140000", "113110.140000", "113110.140000", "113110.156000"],
