{
  "AcquisitionMatrixPE": 104,
  "AcquisitionNumber": 1,
  "AcquisitionTime": "10:28:59.577500",
  "BandwidthPerPixelPhaseEncode": 13.935,
  "BaseResolution": 104,
  "CoilString": "C:HEA;HEP",
  "ConversionSoftware": "dcm2niix",
  "ConversionSoftwareVersion": "v1.0.20210317",
  "DerivedVendorReportedEchoSpacing": 0.000690017,
  "DeviceSerialNumber": "35450",
  "DwellTime": 2.5e-06,
  "EchoTime": 0.0348,
  "EffectiveEchoSpacing": 0.000690017,
  "FlipAngle": 55,
  "ImageComments": "Unaliased MB8/PE3 (remote)",
  "ImageOrientationPatientDICOM": [0.999452, -0.00363331, -0.0329077, -1.55814e-08, 0.99396, -0.109743],
  "ImageType": [
    "ORIGINAL",
    "PRIMARY",
    "M",
    "MB",
    "ND",
    "MOSAIC"
],
  "ImagingFrequency": 123.235,
  "InPlanePhaseEncodingDirectionDICOM": "COL",
  "InstitutionAddress": "Univeristy Ave. 197,Newark,North East,US,07102-1814",
  "InstitutionName": "RUBIC",
  "InstitutionalDepartmentName": "Department",
  "MRAcquisitionType": "2D",
  "MagneticFieldStrength": 3,
  "Manufacturer": "Siemens",
  "ManufacturersModelName": "TrioTim",
  "Modality": "MR",
  "MultibandAccelerationFactor": 8,
  "PartialFourier": 0.875,
  "PatientPosition": "HFS",
  "PercentPhaseFOV": 100,
  "PercentSampling": 100,
  "PhaseEncodingDirection": "j-",
  "PhaseEncodingSteps": 91,
  "PhaseResolution": 1,
  "PixelBandwidth": 1923,
  "ProcedureStepDescription": "Cole^Michael",
  "ProtocolName": "cmrr_mbep2d_bold_2mm_MB8_Rest",
  "PulseSequenceDetails": "%CustomerSeq%\\cmrr_mbep2d_bold",
  "ReceiveCoilName": "32Ch_Head",
  "ReconMatrixPE": 104,
  "RepetitionTime": 0.785,
  "SAR": 0.19428,
  "ScanOptions": "PFP\\FS",
  "ScanningSequence": "EP",
  "SequenceName": "epfid2d1_104",
  "SequenceVariant": "SK\\SS",
  "SeriesDescription": "cmrr_mbep2d_bold_2mm_MB8_Rest",
  "SeriesNumber": 9,
  "ShimSetting": [2141, -500, -7666, 521, 0, -619, -1111, 18],
  "SliceThickness": 2,
  "SliceTiming": [0, 0.4375, 0.0875, 0.525, 0.175, 0.6125, 0.2625, 0.7, 0.35, 0, 0.4375, 0.0875, 0.525, 0.175, 0.6125, 0.2625, 0.7, 0.35, 0, 0.4375, 0.0875, 0.525, 0.175, 0.6125, 0.2625, 0.7, 0.35, 0, 0.4375, 0.0875, 0.525, 0.175, 0.6125, 0.2625, 0.7, 0.35, 0, 0.4375, 0.0875, 0.525, 0.175, 0.6125, 0.2625, 0.7, 0.35, 0, 0.4375, 0.0875, 0.525, 0.175, 0.6125, 0.2625, 0.7, 0.35, 0, 0.4375, 0.0875, 0.525, 0.175, 0.6125, 0.2625, 0.7, 0.35, 0, 0.4375, 0.0875, 0.525, 0.175, 0.6125, 0.2625, 0.7, 0.35],
  "SoftwareVersions": "syngo MR B19",
  "SpacingBetweenSlices": 2,
  "StationName": "MRC35450",
  "TaskName": "rest",
  "TotalReadoutTime": 0.0710717,
  "TxRefAmp": 349.969,
  "dcmmeta_affine": [
    [-1.9989036321640015, -3.1162716851440564e-08, -0.0662154108285904, 103.55355072021484],
    [0.007266628555953503, 1.9879200458526611, -0.21936510503292084, -75.86308288574219],
    [-0.06581547856330872, 0.21948543190956116, 1.986830234527588, -119.38642120361328],
    [0.0, 0.0, 0.0, 1.0]
],
  "dcmmeta_reorient_transform": [
    [0.0, -1.0, 0.0, 103.0],
    [1.0, 0.0, 0.0, 0.0],
    [0.0, 0.0, 1.0, 0.0],
    [0.0, 0.0, 0.0, 1.0]
],
  "dcmmeta_shape": [104, 104, 72, 1070],
  "dcmmeta_slice_dim": 2,
  "dcmmeta_version": 0.6,
  "global": {
    "const": {
      "AcquisitionMatrix": [104, 0, 0, 104],
      "AngioFlag": "N",
      "BitsAllocated": 16,
      "BitsStored": 12,
      "Columns": 936,
      "EchoNumbers": 1,
      "EchoTime": 34.8,
      "EchoTrainLength": 1,
      "FlipAngle": 55.0,
      "HighBit": 11,
      "ImageOrientationPatient": [0.9994517896099, -0.0036333141749, -0.0329077388114, -1.5581358e-08, 0.99396002752351, -0.1097427158652],
      "ImagePositionPatient": [-935.09742090789, -952.84450631572, 21.90575904895],
      "ImageType": [
        "ORIGINAL",
        "PRIMARY",
        "M",
        "MB",
        "ND",
        "MOSAIC"
],
      "ImagedNucleus": "1H",
      "ImagingFrequency": 123.23471,
      "InPlanePhaseEncodingDirection": "COL",
      "MRAcquisitionType": "2D",
      "MagneticFieldStrength": 3.0,
      "Manufacturer": "SIEMENS",
      "ManufacturerModelName": "TrioTim",
      "Modality": "MR",
      "NumberOfAverages": 1.0,
      "NumberOfPhaseEncodingSteps": 91,
      "PercentPhaseFieldOfView": 100.0,
      "PercentSampling": 100.0,
      "PerformedProcedureStepStartTime": "100406.109000",
      "PhotometricInterpretation": "MONOCHROME2",
      "PixelBandwidth": 1923.0,
      "PixelRepresentation": 0,
      "PixelSpacing": [2.0, 2.0],
      "ProtocolName": "cmrr_mbep2d_bold_2mm_MB8_Rest",
      "RepetitionTime": 785.0,
      "Rows": 936,
      "SAR": 0.19428041274787,
      "SamplesPerPixel": 1,
      "ScanOptions": [
        "PFP",
        "FS"
],
      "ScanningSequence": "EP",
      "SequenceName": "epfid2d1_104",
      "SequenceVariant": [
        "SK",
        "SS"
],
      "SeriesDescription": "cmrr_mbep2d_bold_2mm_MB8_Rest",
      "SeriesNumber": 9,
      "SeriesTime": "102919.343000",
      "SliceLocation": -113.70783803472,
      "SliceThickness": 2.0,
      "SmallestImagePixelValue": 0,
      "SoftwareVersions": "syngo MR B19",
      "SpacingBetweenSlices": 1.9999999831704,
      "SpecificCharacterSet": "ISO_IR 100",
      "StudyID": "1",
      "StudyTime": "100406.046000",
      "TransmitCoilName": "Body",
      "VariableFlipAngleFlag": "N",
      "WindowCenterWidthExplanation": "Algo1",
      "dBdt": 0.0},
    "slices": {}
  },
  "time": {
    "samples": {
      "AcquisitionNumber": [1, 2, 3, 4, 5, 6, 7, 8, 9, 10, 11, 12, 13, 14, 15, 16, 17, 18, 19, 20, 21, 22, 23, 24, 25, 26, 27, 28, 29, 30, 31, 32, 33, 34, 35, 36, 37, 38, 39, 40, 41, 42, 43, 44, 45, 46, 47, 48, 49, 50, 51, 52, 53, 54, 55, 56, 57, 58, 59, 60, 61, 62, 63, 64, 65, 66, 67, 68, 69, 70, 71, 72, 73, 74, 75, 76, 77, 78, 79, 80, 81, 82, 83, 84, 85, 86, 87, 88, 89, 90, 91, 92, 93, 94, 95, 96, 97, 98, 99, 100, 101, 102, 103, 104, 105, 106, 107, 108, 109, 110, 111, 112, 113, 114, 115, 116, 117, 118, 119, 120, 121, 122, 123, 124, 125, 126, 127, 128, 129, 130, 131, 132, 133, 134, 135, 136, 137, 138, 139, 140, 141, 142, 143, 144, 145, 146, 147, 148, 149, 150, 151, 152, 153, 154, 155, 156, 157, 158, 159, 160, 161, 162, 163, 164, 165, 166, 167, 168, 169, 170, 171, 172, 173, 174, 175, 176, 177, 178, 179, 180, 181, 182, 183, 184, 185, 186, 187, 188, 189, 190, 191, 192, 193, 194, 195, 196, 197, 198, 199, 200, 201, 202, 203, 204, 205, 206, 207, 208, 209, 210, 211, 212, 213, 214, 215, 216, 217, 218, 219, 220, 221, 222, 223, 224, 225, 226, 227, 228, 229, 230, 231, 232, 233, 234, 235, 236, 237, 238, 239, 240, 241, 242, 243, 244, 245, 246, 247, 248, 249, 250, 251, 252, 253, 254, 255, 256, 257, 258, 259, 260, 261, 262, 263, 264, 265, 266, 267, 268, 269, 270, 271, 272, 273, 274, 275, 276, 277, 278, 279, 280, 281, 282, 283, 284, 285, 286, 287, 288, 289, 290, 291, 292, 293, 294, 295, 296, 297, 298, 299, 300, 301, 302, 303, 304, 305, 306, 307, 308, 309, 310, 311, 312, 313, 314, 315, 316, 317, 318, 319, 320, 321, 322, 323, 324, 325, 326, 327, 328, 329, 330, 331, 332, 333, 334, 335, 336, 337, 338, 339, 340, 341, 342, 343, 344, 345, 346, 347, 348, 349, 350, 351, 352, 353, 354, 355, 356, 357, 358, 359, 360, 361, 362, 363, 364, 365, 366, 367, 368, 369, 370, 371, 372, 373, 374, 375, 376, 377, 378, 379, 380, 381, 382, 383, 384, 385, 386, 387, 388, 389, 390, 391, 392, 393, 394, 395, 396, 397, 398, 399, 400, 401, 402, 403, 404, 405, 406, 407, 408, 409, 410, 411, 412, 413, 414, 415, 416, 417, 418, 419, 420, 421, 422, 423, 424, 425, 426, 427, 428, 429, 430, 431, 432, 433, 434, 435, 436, 437, 438, 439, 440, 441, 442, 443, 444, 445, 446, 447, 448, 449, 450, 451, 452, 453, 454, 455, 456, 457, 458, 459, 460, 461, 462, 463, 464, 465, 466, 467, 468, 469, 470, 471, 472, 473, 474, 475, 476, 477, 478, 479, 480, 481, 482, 483, 484, 485, 486, 487, 488, 489, 490, 491, 492, 493, 494, 495, 496, 497, 498, 499, 500, 501, 502, 503, 504, 505, 506, 507, 508, 509, 510, 511, 512, 513, 514, 515, 516, 517, 518, 519, 520, 521, 522, 523, 524, 525, 526, 527, 528, 529, 530, 531, 532, 533, 534, 535, 536, 537, 538, 539, 540, 541, 542, 543, 544, 545, 546, 547, 548, 549, 550, 551, 552, 553, 554, 555, 556, 557, 558, 559, 560, 561, 562, 563, 564, 565, 566, 567, 568, 569, 570, 571, 572, 573, 574, 575, 576, 577, 578, 579, 580, 581, 582, 583, 584, 585, 586, 587, 588, 589, 590, 591, 592, 593, 594, 595, 596, 597, 598, 599, 600, 601, 602, 603, 604, 605, 606, 607, 608, 609, 610, 611, 612, 613, 614, 615, 616, 617, 618, 619, 620, 621, 622, 623, 624, 625, 626, 627, 628, 629, 630, 631, 632, 633, 634, 635, 636, 637, 638, 639, 640, 641, 642, 643, 644, 645, 646, 647, 648, 649, 650, 651, 652, 653, 654, 655, 656, 657, 658, 659, 660, 661, 662, 663, 664, 665, 666, 667, 668, 669, 670, 671, 672, 673, 674, 675, 676, 677, 678, 679, 680, 681, 682, 683, 684, 685, 686, 687, 688, 689, 690, 691, 692, 693, 694, 695, 696, 697, 698, 699, 700, 701, 702, 703, 704, 705, 706, 707, 708, 709, 710, 711, 712, 713, 714, 715, 716, 717, 718, 719, 720, 721, 722, 723, 724, 725, 726, 727, 728, 729, 730, 731, 732, 733, 734, 735, 736, 737, 738, 739, 740, 741, 742, 743, 744, 745, 746, 747, 748, 749, 750, 751, 752, 753, 754, 755, 756, 757, 758, 759, 760, 761, 762, 763, 764, 765, 766, 767, 768, 769, 770, 771, 772, 773, 774, 775, 776, 777, 778, 779, 780, 781, 782, 783, 784, 785, 786, 787, 788, 789, 790, 791, 792, 793, 794, 795, 796, 797, 798, 799, 800, 801, 802, 803, 804, 805, 806, 807, 808, 809, 810, 811, 812, 813, 814, 815, 816, 817, 818, 819, 820, 821, 822, 823, 824, 825, 826, 827, 828, 829, 830, 831, 832, 833, 834, 835, 836, 837, 838, 839, 840, 841, 842, 843, 844, 845, 846, 847, 848, 849, 850, 851, 852, 853, 854, 855, 856, 857, 858, 859, 860, 861, 862, 863, 864, 865, 866, 867, 868, 869, 870, 871, 872, 873, 874, 875, 876, 877, 878, 879, 880, 881, 882, 883, 884, 885, 886, 887, 888, 889, 890, 891, 892, 893, 894, 895, 896, 897, 898, 899, 900, 901, 902, 903, 904, 905, 906, 907, 908, 909, 910, 911, 912, 913, 914, 915, 916, 917, 918, 919, 920, 921, 922, 923, 924, 925, 926, 927, 928, 929, 930, 931, 932, 933, 934, 935, 936, 937, 938, 939, 940, 941, 942, 943, 944, 945, 946, 947, 948, 949, 950, 951, 952, 953, 954, 955, 956, 957, 958, 959, 960, 961, 962, 963, 964, 965, 966, 967, 968, 969, 970, 971, 972, 973, 974, 975, 976, 977, 978, 979, 980, 981, 982, 983, 984, 985, 986, 987, 988, 989, 990, 991, 992, 993, 994, 995, 996, 997, 998, 999, 1000, 1001, 1002, 1003, 1004, 1005, 1006, 1007, 1008, 1009, 1010, 1011, 1012, 1013, 1014, 1015, 1016, 1017, 1018, 1019, 1020, 1021, 1022, 1023, 1024, 1025, 1026, 1027, 1028, 1029, 1030, 1031, 1032, 1033, 1034, 1035, 1036, 1037, 1038, 1039, 1040, 1041, 1042, 1043, 1044, 1045, 1046, 1047, 1048, 1049, 1050, 1051, 1052, 1053, 1054, 1055, 1056, 1057, 1058, 1059, 1060, 1061, 1062, 1063, 1064, 1065, 1066, 1067, 1068, 1069, 1070],
      "AcquisitionTime": ["102859.577500", "102900.367500", "102901.155000", "102901.942500", "102902.730000", "102903.520000", "102904.307500", "102905.095000", "102905.882500", "102906.672500", "102907.460000", "102908.247500", "102909.035000", "102909.825000", "102910.612500", "102911.400000", "102912.187500", "102912.977500", "102913.765000", "102914.552500", "102915.342500", "102916.130000", "102916.917500", "102917.705000", "102918.495000", "102919.282500", "102920.070000", "102920.857500", "102921.647500", "102922.435000", "102923.222500", "102924.010000", "102924.800000", "102925.587500", "102926.375000", "102927.162500", "102927.952500", "102928.740000", "102929.527500", "102930.315000", "102931.105000", "102931.892500", "102932.680000", "102933.470000", "102934.257500", "102935.045000", "102935.832500", "102936.622500", "102937.410000", "102938.197500", "102938.985000", "102939.775000", "102940.562500", "102941.350000", "102942.137500", "102942.927500", "102943.715000", "102944.502500", "102945.290000", "102946.080000", "102946.867500", "102947.655000", "102948.442500", "102949.232500", "102950.020000", "102950.807500", "102951.597500", "102952.385000", "102953.172500", "102953.960000", "102954.750000", "102955.537500", "102956.325000", "102957.112500", "102957.902500", "102958.690000", "102959.477500", "103000.265000", "103001.055000", "103001.842500", "103002.630000", "103003.417500", "103004.207500", "103004.995000", "103005.782500", "103006.570000", "103007.360000", "103008.147500", "103008.935000", "103009.725000", "103010.512500", "103011.300000", "103012.087500", "103012.877500", "103013.665000", "103014.452500", "103015.240000", "103016.030000", "103016.817500", "103017.605000", "103018.392500", "103019.182500", "103019.970000", "103020.757500", "103021.545000", "103022.335000", "103023.122500", "103023.910000", "103024.697500", "103025.487500", "103026.275000", "103027.062500", "103027.852500", "103028.640000", "103029.427500", "103030.215000", "103031.005000", "103031.792500", "103032.580000", "103033.367500", "103034.157500", "103034.945000", "103035.732500", "103036.520000", "103037.310000", "103038.097500", "103038.885000", "103039.672500", "103040.462500", "103041.250000", "103042.037500", "103042.825000", "103043.615000", "103044.402500", "103045.190000", "103045.980000", "103046.767500", "103047.555000", "103048.342500", "103049.132500", "103049.920000", "103050.707500", "103051.495000", "103052.285000", "103053.072500", "103053.860000", "103054.647500", "103055.437500", "103056.225000", "103057.012500", "103057.800000", "103058.590000", "103059.377500", "103100.165000", "103100.952500", "103101.742500", "103102.530000", "103103.317500", "103104.107500", "103104.895000", "103105.682500", "103106.470000", "103107.260000", "103108.047500", "103108.835000", "103109.622500", "103110.412500", "103111.200000", "103111.987500", "103112.775000", "103113.565000", "103114.352500", "103115.140000", "103115.927500", "103116.717500", "103117.505000", "103118.292500", "103119.080000", "103119.870000", "103120.657500", "103121.445000", "103122.235000", "103123.022500", "103123.810000", "103124.597500", "103125.387500", "103126.175000", "103126.962500", "103127.750000", "103128.540000", "103129.327500", "103130.115000", "103130.902500", "103131.692500", "103132.480000", "103133.267500", "103134.055000", "103134.845000", "103135.632500", "103136.420000", "103137.207500", "103137.997500", "103138.785000", "103139.572500", "103140.362500", "103141.150000", "103141.937500", "103142.725000", "103143.515000", "103144.302500", "103145.090000", "103145.877500", "103146.667500", "103147.455000", "103148.242500", "103149.030000", "103149.820000", "103150.607500", "103151.395000", "103152.182500", "103152.972500", "103153.760000", "103154.547500", "103155.337500", "103156.125000", "103156.912500", "103157.700000", "103158.490000", "103159.277500", "103200.065000", "103200.852500", "103201.642500", "103202.430000", "103203.217500", "103204.005000", "103204.795000", "103205.582500", "103206.370000", "103207.157500", "103207.947500", "103208.735000", "103209.522500", "103210.310000", "103211.100000", "103211.887500", "103212.675000", "103213.465000", "103214.252500", "103215.040000", "103215.827500", "103216.617500", "103217.405000", "103218.192500", "103218.980000", "103219.770000", "103220.557500", "103221.345000", "103222.132500", "103222.922500", "103223.710000", "103224.497500", "103225.285000", "103226.075000", "103226.862500", "103227.650000", "103228.437500", "103229.227500", "103230.015000", "103230.802500", "103231.592500", "103232.380000", "103233.167500", "103233.955000", "103234.745000", "103235.532500", "103236.320000", "103237.107500", "103237.897500", "103238.685000", "103239.472500", "103240.260000", "103241.050000", "103241.837500", "103242.625000", "103243.412500", "103244.202500", "103244.990000", "103245.777500", "103246.565000", "103247.355000", "103248.142500", "103248.930000", "103249.720000", "103250.507500", "103251.295000", "103252.082500", "103252.872500", "103253.660000", "103254.447500", "103255.235000", "103256.025000", "103256.812500", "103257.600000", "103258.387500", "103259.177500", "103259.965000", "103300.752500", "103301.540000", "103302.330000", "103303.117500", "103303.905000", "103304.692500", "103305.482500", "103306.270000", "103307.057500", "103307.847500", "103308.635000", "103309.422500", "103310.210000", "103311.000000", "103311.787500", "103312.575000", "103313.362500", "103314.152500", "103314.940000", "103315.727500", "103316.515000", "103317.305000", "103318.092500", "103318.880000", "103319.667500", "103320.457500", "103321.245000", "103322.032500", "103322.820000", "103323.610000", "103324.397500", "103325.185000", "103325.975000", "103326.762500", "103327.550000", "103328.337500", "103329.127500", "103329.915000", "103330.702500", "103331.490000", "103332.280000", "103333.067500", "103333.855000", "103334.642500", "103335.432500", "103336.220000", "103337.007500", "103337.795000", "103338.585000", "103339.372500", "103340.160000", "103340.947500", "103341.737500", "103342.525000", "103343.312500", "103344.102500", "103344.890000", "103345.677500", "103346.465000", "103347.255000", "103348.042500", "103348.830000", "103349.617500", "103350.407500", "103351.195000", "103351.982500", "103352.770000", "103353.560000", "103354.347500", "103355.135000", "103355.922500", "103356.712500", "103357.500000", "103358.287500", "103359.075000", "103359.865000", "103400.652500", "103401.440000", "103402.230000", "103403.017500", "103403.805000", "103404.592500", "103405.382500", "103406.170000", "103406.957500", "103407.745000", "103408.535000", "103409.322500", "103410.110000", "103410.897500", "103411.687500", "103412.475000", "103413.262500", "103414.050000", "103414.840000", "103415.627500", "103416.415000", "103417.202500", "103417.992500", "103418.780000", "103419.567500", "103420.357500", "103421.145000", "103421.932500", "103422.720000", "103423.510000", "103424.297500", "103425.085000", "103425.872500", "103426.662500", "103427.450000", "103428.237500", "103429.025000", "103429.815000", "103430.602500", "103431.390000", "103432.177500", "103432.967500", "103433.755000", "103434.542500", "103435.330000", "103436.120000", "103436.907500", "103437.695000", "103438.485000", "103439.272500", "103440.060000", "103440.847500", "103441.637500", "103442.425000", "103443.212500", "103444.000000", "103444.790000", "103445.577500", "103446.365000", "103447.152500", "103447.942500", "103448.730000", "103449.517500", "103450.305000", "103451.095000", "103451.882500", "103452.670000", "103453.457500", "103454.247500", "103455.035000", "103455.822500", "103456.612500", "103457.400000", "103458.187500", "103458.975000", "103459.765000", "103500.552500", "103501.340000", "103502.127500", "103502.917500", "103503.705000", "103504.492500", "103505.280000", "103506.070000", "103506.857500", "103507.645000", "103508.432500", "103509.222500", "103510.010000", "103510.797500", "103511.587500", "103512.375000", "103513.162500", "103513.950000", "103514.740000", "103515.527500", "103516.315000", "103517.102500", "103517.892500", "103518.680000", "103519.467500", "103520.255000", "103521.045000", "103521.832500", "103522.620000", "103523.407500", "103524.197500", "103524.985000", "103525.772500", "103526.560000", "103527.350000", "103528.137500", "103528.925000", "103529.715000", "103530.502500", "103531.290000", "103532.077500", "103532.867500", "103533.655000", "103534.442500", "103535.230000", "103536.020000", "103536.807500", "103537.595000", "103538.382500", "103539.172500", "103539.960000", "103540.747500", "103541.535000", "103542.325000", "103543.112500", "103543.900000", "103544.687500", "103545.477500", "103546.265000", "103547.052500", "103547.842500", "103548.630000", "103549.417500", "103550.205000", "103550.995000", "103551.782500", "103552.570000", "103553.357500", "103554.147500", "103554.935000", "103555.722500", "103556.510000", "103557.300000", "103558.087500", "103558.875000", "103559.662500", "103600.452500", "103601.240000", "103602.027500", "103602.815000", "103603.605000", "103604.392500", "103605.180000", "103605.970000", "103606.757500", "103607.545000", "103608.332500", "103609.122500", "103609.910000", "103610.697500", "103611.485000", "103612.275000", "103613.062500", "103613.850000", "103614.637500", "103615.427500", "103616.215000", "103617.002500", "103617.790000", "103618.580000", "103619.367500", "103620.155000", "103620.942500", "103621.732500", "103622.520000", "103623.307500", "103624.097500", "103624.885000", "103625.672500", "103626.460000", "103627.250000", "103628.037500", "103628.825000", "103629.612500", "103630.402500", "103631.190000", "103631.977500", "103632.765000", "103633.555000", "103634.342500", "103635.130000", "103635.917500", "103636.707500", "103637.495000", "103638.282500", "103639.070000", "103639.860000", "103640.647500", "103641.435000", "103642.225000", "103643.012500", "103643.800000", "103644.587500", "103645.377500", "103646.165000", "103646.952500", "103647.740000", "103648.530000", "103649.317500", "103650.105000", "103650.892500", "103651.682500", "103652.470000", "103653.257500", "103654.045000", "103654.835000", "103655.622500", "103656.410000", "103657.197500", "103657.987500", "103658.775000", "103659.562500", "103700.352500", "103701.140000", "103701.927500", "103702.715000", "103703.505000", "103704.292500", "103705.080000", "103705.867500", "103706.657500", "103707.445000", "103708.232500", "103709.020000", "103709.810000", "103710.597500", "103711.385000", "103712.172500", "103712.962500", "103713.750000", "103714.537500", "103715.325000", "103716.115000", "103716.902500", "103717.690000", "103718.480000", "103719.267500", "103720.055000", "103720.842500", "103721.632500", "103722.420000", "103723.207500", "103723.995000", "103724.785000", "103725.572500", "103726.360000", "103727.147500", "103727.937500", "103728.725000", "103729.512500", "103730.300000", "103731.090000", "103731.877500", "103732.665000", "103733.452500", "103734.242500", "103735.030000", "103735.817500", "103736.607500", "103737.395000", "103738.182500", "103738.970000", "103739.760000", "103740.547500", "103741.335000", "103742.122500", "103742.912500", "103743.700000", "103744.487500", "103745.275000", "103746.065000", "103746.852500", "103747.640000", "103748.427500", "103749.217500", "103750.005000", "103750.792500", "103751.580000", "103752.370000", "103753.157500", "103753.945000", "103754.735000", "103755.522500", "103756.310000", "103757.097500", "103757.887500", "103758.675000", "103759.462500", "103800.250000", "103801.040000", "103801.827500", "103802.615000", "103803.402500", "103804.192500", "103804.980000", "103805.767500", "103806.555000", "103807.345000", "103808.132500", "103808.920000", "103809.707500", "103810.497500", "103811.285000", "103812.072500", "103812.862500", "103813.650000", "103814.437500", "103815.225000", "103816.015000", "103816.802500", "103817.590000", "103818.377500", "103819.167500", "103819.955000", "103820.742500", "103821.530000", "103822.320000", "103823.107500", "103823.895000", "103824.682500", "103825.472500", "103826.260000", "103827.047500", "103827.837500", "103828.625000", "103829.412500", "103830.200000", "103830.990000", "103831.777500", "103832.565000", "103833.352500", "103834.142500", "103834.930000", "103835.717500", "103836.505000", "103837.295000", "103838.082500", "103838.870000", "103839.657500", "103840.447500", "103841.235000", "103842.022500", "103842.810000", "103843.600000", "103844.387500", "103845.175000", "103845.965000", "103846.752500", "103847.540000", "103848.327500", "103849.117500", "103849.905000", "103850.692500", "103851.480000", "103852.270000", "103853.057500", "103853.845000", "103854.632500", "103855.422500", "103856.210000", "103856.997500", "103857.785000", "103858.575000", "103859.362500", "103900.150000", "103900.937500", "103901.727500", "103902.515000", "103903.302500", "103904.092500", "103904.880000", "103905.667500", "103906.455000", "103907.245000", "103908.032500", "103908.820000", "103909.607500", "103910.397500", "103911.185000", "103911.972500", "103912.760000", "103913.550000", "103914.337500", "103915.125000", "103915.912500", "103916.702500", "103917.490000", "103918.277500", "103919.065000", "103919.855000", "103920.642500", "103921.430000", "103922.220000", "103923.007500", "103923.795000", "103924.582500", "103925.372500", "103926.160000", "103926.947500", "103927.735000", "103928.525000", "103929.312500", "103930.100000", "103930.887500", "103931.677500", "103932.465000", "103933.252500", "103934.040000", "103934.830000", "103935.617500", "103936.405000", "103937.192500", "103937.982500", "103938.770000", "103939.557500", "103940.347500", "103941.135000", "103941.922500", "103942.710000", "103943.500000", "103944.287500", "103945.075000", "103945.862500", "103946.652500", "103947.440000", "103948.227500", "103949.015000", "103949.805000", "103950.592500", "103951.380000", "103952.167500", "103952.957500", "103953.745000", "103954.532500", "103955.320000", "103956.110000", "103956.897500", "103957.685000", "103958.475000", "103959.262500", "104000.050000", "104000.837500", "104001.627500", "104002.415000", "104003.202500", "104003.990000", "104004.780000", "104005.567500", "104006.355000", "104007.142500", "104007.932500", "104008.720000", "104009.507500", "104010.295000", "104011.085000", "104011.872500", "104012.660000", "104013.447500", "104014.237500", "104015.025000", "104015.812500", "104016.602500", "104017.390000", "104018.177500", "104018.965000", "104019.755000", "104020.542500", "104021.330000", "104022.117500", "104022.907500", "104023.695000", "104024.482500", "104025.270000", "104026.060000", "104026.847500", "104027.635000", "104028.422500", "104029.212500", "104030.000000", "104030.787500", "104031.575000", "104032.365000", "104033.152500", "104033.940000", "104034.730000", "104035.517500", "104036.305000", "104037.092500", "104037.882500", "104038.670000", "104039.457500", "104040.245000", "104041.035000", "104041.822500", "104042.610000", "104043.397500", "104044.187500", "104044.975000", "104045.762500", "104046.550000", "104047.340000", "104048.127500", "104048.915000", "104049.702500", "104050.492500", "104051.280000", "104052.067500", "104052.857500", "104053.645000", "104054.432500", "104055.220000", "104056.010000", "104056.797500", "104057.585000", "104058.372500", "104059.162500", "104059.950000", "104100.737500", "104101.525000", "104102.315000", "104103.102500", "104103.890000", "104104.677500", "104105.467500", "104106.255000", "104107.042500", "104107.830000", "104108.620000", "104109.407500", "104110.195000", "104110.985000", "104111.772500", "104112.560000", "104113.347500", "104114.137500", "104114.925000", "104115.712500", "104116.500000", "104117.290000", "104118.077500", "104118.865000", "104119.652500", "104120.442500", "104121.230000", "104122.017500", "104122.805000", "104123.595000", "104124.382500", "104125.170000", "104125.957500", "104126.747500", "104127.535000", "104128.322500", "104129.112500", "104129.900000", "104130.687500", "104131.475000", "104132.265000", "104133.052500", "104133.840000", "104134.627500", "104135.417500", "104136.205000", "104136.992500", "104137.780000", "104138.570000", "104139.357500", "104140.145000", "104140.932500", "104141.722500", "104142.510000", "104143.297500", "104144.087500", "104144.875000", "104145.662500", "104146.450000", "104147.240000", "104148.027500", "104148.815000", "104149.602500", "104150.392500", "104151.180000", "104151.967500", "104152.755000", "104153.545000", "104154.332500", "104155.120000", "104155.907500", "104156.697500", "104157.485000", "104158.272500", "104159.060000", "104159.850000", "104200.637500", "104201.425000", "104202.215000", "104203.002500", "104203.790000", "104204.577500", "104205.367500", "104206.155000", "104206.942500", "104207.730000", "104208.520000", "104209.307500", "104210.095000", "104210.882500", "104211.672500", "104212.460000", "104213.247500", "104214.035000", "104214.825000", "104215.612500", "104216.400000", "104217.187500", "104217.977500", "104218.765000", "104219.552500", "104220.342500", "104221.130000", "104221.917500", "104222.705000", "104223.495000", "104224.282500", "104225.070000", "104225.857500", "104226.647500", "104227.435000", "104228.222500", "104229.010000", "104229.800000", "104230.587500", "104231.375000", "104232.162500", "104232.952500", "104233.740000", "104234.527500", "104235.315000", "104236.105000", "104236.892500", "104237.680000", "104238.470000", "104239.257500", "104240.045000", "104240.832500", "104241.622500", "104242.410000", "104243.197500", "104243.985000", "104244.775000", "104245.562500", "104246.350000", "104247.137500", "104247.927500", "104248.715000", "104249.502500", "104250.290000", "104251.080000", "104251.867500", "104252.655000", "104253.442500", "104254.232500", "104255.020000", "104255.807500", "104256.597500", "104257.385000", "104258.172500", "104258.960000", "104259.750000", "104300.537500", "104301.325000", "104302.112500"],
