{
  "AcquisitionMatrixPE": 104,
  "AcquisitionNumber": 1,
  "AcquisitionTime": "15:17:33.690000",
  "BandwidthPerPixelPhaseEncode": 13.935,
  "BaseResolution": 104,
  "CoilString": "C:HEA;HEP",
  "ConversionSoftware": "dcm2niix",
  "ConversionSoftwareVersion": "v1.0.20210317",
  "DerivedVendorReportedEchoSpacing": 0.000690017,
  "DeviceSerialNumber": "35450",
  "DwellTime": 2.5e-06,
  "EchoTime": 0.0348,
  "EffectiveEchoSpacing": 0.000690017,
  "FlipAngle": 55,
  "ImageComments": "Unaliased MB8/PE3 (remote)",
  "ImageOrientationPatientDICOM": [0.999785, -0.0023452, -0.0205873, -1.6668e-09, 0.993574, -0.113183],
  "ImageType": [
    "ORIGINAL",
    "PRIMARY",
    "M",
    "MB",
    "ND",
    "MOSAIC"
],
  "ImagingFrequency": 123.235,
  "InPlanePhaseEncodingDirectionDICOM": "COL",
  "InstitutionAddress": "Univeristy Ave. 197,Newark,North East,US,07102-1814",
  "InstitutionName": "RUBIC",
  "InstitutionalDepartmentName": "Department",
  "MRAcquisitionType": "2D",
  "MagneticFieldStrength": 3,
  "Manufacturer": "Siemens",
  "ManufacturersModelName": "TrioTim",
  "Modality": "MR",
  "MultibandAccelerationFactor": 8,
  "PartialFourier": 0.875,
  "PatientPosition": "HFS",
  "PercentPhaseFOV": 100,
  "PercentSampling": 100,
  "PhaseEncodingDirection": "j-",
  "PhaseEncodingSteps": 91,
  "PhaseResolution": 1,
  "PixelBandwidth": 1923,
  "ProcedureStepDescription": "Cole^Michael",
  "ProtocolName": "cmrr_mbep2d_bold_2mm_MB8_Task_8x",
  "PulseSequenceDetails": "%CustomerSeq%\\cmrr_mbep2d_bold",
  "ReceiveCoilName": "32Ch_Head",
  "ReconMatrixPE": 104,
  "RepetitionTime": 0.785,
  "SAR": 0.16688,
  "ScanOptions": "PFP\\FS",
  "ScanningSequence": "EP",
  "SequenceName": "epfid2d1_104",
  "SequenceVariant": "SK\\SS",
  "SeriesDescription": "cmrr_mbep2d_bold_2mm_MB8_Task_8x",
  "SeriesNumber": 23,
  "ShimSetting": [2084, -472, -7474, 236, -12, -177, -152, -16],
  "SliceThickness": 2,
  "SliceTiming": [0, 0.4375, 0.0875, 0.525, 0.175, 0.6125, 0.2625, 0.7, 0.35, 0, 0.4375, 0.0875, 0.525, 0.175, 0.6125, 0.2625, 0.7, 0.35, 0, 0.4375, 0.0875, 0.525, 0.175, 0.6125, 0.2625, 0.7, 0.35, 0, 0.4375, 0.0875, 0.525, 0.175, 0.6125, 0.2625, 0.7, 0.35, 0, 0.4375, 0.0875, 0.525, 0.175, 0.6125, 0.2625, 0.7, 0.35, 0, 0.4375, 0.0875, 0.525, 0.175, 0.6125, 0.2625, 0.7, 0.35, 0, 0.4375, 0.0875, 0.525, 0.175, 0.6125, 0.2625, 0.7, 0.35, 0, 0.4375, 0.0875, 0.525, 0.175, 0.6125, 0.2625, 0.7, 0.35],
  "SoftwareVersions": "syngo MR B19",
  "SpacingBetweenSlices": 2,
  "StationName": "MRC35450",
  "TaskName": "cpro",
  "TotalReadoutTime": 0.0710717,
  "TxRefAmp": 379.029,
  "dcmmeta_affine": [
    [-1.999570608139038, -3.3336040594633687e-09, -0.04144096001982689, 105.46259307861328],
    [0.004690391942858696, 1.987148404121399, -0.22631658613681793, -72.8260269165039],
    [-0.041174668818712234, 0.22636517882347107, 1.9867217540740967, -108.26415252685547],
    [0.0, 0.0, 0.0, 1.0]
],
  "dcmmeta_reorient_transform": [
    [0.0, -1.0, 0.0, 103.0],
    [1.0, 0.0, 0.0, 0.0],
    [0.0, 0.0, 1.0, 0.0],
    [0.0, 0.0, 0.0, 1.0]
],
  "dcmmeta_shape": [104, 104, 72, 581],
  "dcmmeta_slice_dim": 2,
  "dcmmeta_version": 0.6,
  "global": {
    "const": {
      "AcquisitionMatrix": [104, 0, 0, 104],
      "AngioFlag": "N",
      "BitsAllocated": 16,
      "BitsStored": 12,
      "Columns": 936,
      "EchoNumbers": 1,
      "EchoTime": 34.8,
      "EchoTrainLength": 1,
      "FlipAngle": 55.0,
      "HighBit": 11,
      "ImageOrientationPatient": [0.99978530782605, -0.0023451958678, -0.0205873337643, -1.666802e-09, 0.99357420507568, -0.1131825914539],
      "ImagePositionPatient": [-937.28397040463, -956.55279234634, 26.348039042317],
      "ImageType": [
        "ORIGINAL",
        "PRIMARY",
        "M",
        "MB",
        "ND",
        "MOSAIC"
],
      "ImagedNucleus": "1H",
      "ImagingFrequency": 123.23459,
      "InPlanePhaseEncodingDirection": "COL",
      "MRAcquisitionType": "2D",
      "MagneticFieldStrength": 3.0,
      "Manufacturer": "SIEMENS",
      "ManufacturerModelName": "TrioTim",
      "Modality": "MR",
      "NumberOfAverages": 1.0,
      "NumberOfPhaseEncodingSteps": 91,
      "PercentPhaseFieldOfView": 100.0,
      "PercentSampling": 100.0,
      "PerformedProcedureStepStartTime": "133243.796000",
      "PhotometricInterpretation": "MONOCHROME2",
      "PixelBandwidth": 1923.0,
      "PixelRepresentation": 0,
      "PixelSpacing": [2.0, 2.0],
      "ProtocolName": "cmrr_mbep2d_bold_2mm_MB8_Task_8x",
      "RepetitionTime": 785.0,
      "Rows": 936,
      "SAR": 0.16687968807536,
      "SamplesPerPixel": 1,
      "ScanOptions": [
        "PFP",
        "FS"
],
      "ScanningSequence": "EP",
      "SequenceName": "epfid2d1_104",
      "SequenceVariant": [
        "SK",
        "SS"
],
      "SeriesDescription": "cmrr_mbep2d_bold_2mm_MB8_Task_8x",
      "SeriesNumber": 23,
      "SeriesTime": "151759.796000",
      "SliceLocation": -101.48974162366,
      "SliceThickness": 2.0,
      "SmallestImagePixelValue": 0,
      "SoftwareVersions": "syngo MR B19",
      "SpacingBetweenSlices": 2.0000000062297,
      "SpecificCharacterSet": "ISO_IR 100",
      "StudyID": "1",
      "StudyTime": "133243.703000",
      "TransmitCoilName": "Body",
      "VariableFlipAngleFlag": "N",
      "WindowCenterWidthExplanation": "Algo1",
      "dBdt": 0.0},
    "slices": {}
  },
  "time": {
    "samples": {
      "AcquisitionNumber": [1, 2, 3, 4, 5, 6, 7, 8, 9, 10, 11, 12, 13, 14, 15, 16, 17, 18, 19, 20, 21, 22, 23, 24, 25, 26, 27, 28, 29, 30, 31, 32, 33, 34, 35, 36, 37, 38, 39, 40, 41, 42, 43, 44, 45, 46, 47, 48, 49, 50, 51, 52, 53, 54, 55, 56, 57, 58, 59, 60, 61, 62, 63, 64, 65, 66, 67, 68, 69, 70, 71, 72, 73, 74, 75, 76, 77, 78, 79, 80, 81, 82, 83, 84, 85, 86, 87, 88, 89, 90, 91, 92, 93, 94, 95, 96, 97, 98, 99, 100, 101, 102, 103, 104, 105, 106, 107, 108, 109, 110, 111, 112, 113, 114, 115, 116, 117, 118, 119, 120, 121, 122, 123, 124, 125, 126, 127, 128, 129, 130, 131, 132, 133, 134, 135, 136, 137, 138, 139, 140, 141, 142, 143, 144, 145, 146, 147, 148, 149, 150, 151, 152, 153, 154, 155, 156, 157, 158, 159, 160, 161, 162, 163, 164, 165, 166, 167, 168, 169, 170, 171, 172, 173, 174, 175, 176, 177, 178, 179, 180, 181, 182, 183, 184, 185, 186, 187, 188, 189, 190, 191, 192, 193, 194, 195, 196, 197, 198, 199, 200, 201, 202, 203, 204, 205, 206, 207, 208, 209, 210, 211, 212, 213, 214, 215, 216, 217, 218, 219, 220, 221, 222, 223, 224, 225, 226, 227, 228, 229, 230, 231, 232, 233, 234, 235, 236, 237, 238, 239, 240, 241, 242, 243, 244, 245, 246, 247, 248, 249, 250, 251, 252, 253, 254, 255, 256, 257, 258, 259, 260, 261, 262, 263, 264, 265, 266, 267, 268, 269, 270, 271, 272, 273, 274, 275, 276, 277, 278, 279, 280, 281, 282, 283, 284, 285, 286, 287, 288, 289, 290, 291, 292, 293, 294, 295, 296, 297, 298, 299, 300, 301, 302, 303, 304, 305, 306, 307, 308, 309, 310, 311, 312, 313, 314, 315, 316, 317, 318, 319, 320, 321, 322, 323, 324, 325, 326, 327, 328, 329, 330, 331, 332, 333, 334, 335, 336, 337, 338, 339, 340, 341, 342, 343, 344, 345, 346, 347, 348, 349, 350, 351, 352, 353, 354, 355, 356, 357, 358, 359, 360, 361, 362, 363, 364, 365, 366, 367, 368, 369, 370, 371, 372, 373, 374, 375, 376, 377, 378, 379, 380, 381, 382, 383, 384, 385, 386, 387, 388, 389, 390, 391, 392, 393, 394, 395, 396, 397, 398, 399, 400, 401, 402, 403, 404, 405, 406, 407, 408, 409, 410, 411, 412, 413, 414, 415, 416, 417, 418, 419, 420, 421, 422, 423, 424, 425, 426, 427, 428, 429, 430, 431, 432, 433, 434, 435, 436, 437, 438, 439, 440, 441, 442, 443, 444, 445, 446, 447, 448, 449, 450, 451, 452, 453, 454, 455, 456, 457, 458, 459, 460, 461, 462, 463, 464, 465, 466, 467, 468, 469, 470, 471, 472, 473, 474, 475, 476, 477, 478, 479, 480, 481, 482, 483, 484, 485, 486, 487, 488, 489, 490, 491, 492, 493, 494, 495, 496, 497, 498, 499, 500, 501, 502, 503, 504, 505, 506, 507, 508, 509, 510, 511, 512, 513, 514, 515, 516, 517, 518, 519, 520, 521, 522, 523, 524, 525, 526, 527, 528, 529, 530, 531, 532, 533, 534, 535, 536, 537, 538, 539, 540, 541, 542, 543, 544, 545, 546, 547, 548, 549, 550, 551, 552, 553, 554, 555, 556, 557, 558, 559, 560, 561, 562, 563, 564, 565, 566, 567, 568, 569, 570, 571, 572, 573, 574, 575, 576, 577, 578, 579, 580, 581],
      "AcquisitionTime": ["151733.690000", "151734.480000", "151735.267500", "151736.055000", "151736.842500", "151737.632500", "151738.420000", "151739.207500", "151739.995000", "151740.785000", "151741.572500", "151742.360000", "151743.147500", "151743.937500", "151744.725000", "151745.512500", "151746.300000", "151747.090000", "151747.877500", "151748.665000", "151749.452500", "151750.242500", "151751.030000", "151751.817500", "151752.607500", "151753.395000", "151754.182500", "151754.970000", "151755.760000", "151756.547500", "151757.335000", "151758.122500", "151758.912500", "151759.700000", "151800.487500", "151801.275000", "151802.065000", "151802.852500", "151803.640000", "151804.427500", "151805.217500", "151806.005000", "151806.792500", "151807.580000", "151808.370000", "151809.157500", "151809.945000", "151810.735000", "151811.522500", "151812.310000", "151813.097500", "151813.887500", "151814.675000", "151815.462500", "151816.250000", "151817.040000", "151817.827500", "151818.615000", "151819.402500", "151820.192500", "151820.980000", "151821.767500", "151822.555000", "151823.345000", "151824.132500", "151824.920000", "151825.707500", "151826.497500", "151827.285000", "151828.072500", "151828.862500", "151829.650000", "151830.437500", "151831.225000", "151832.015000", "151832.802500", "151833.590000", "151834.377500", "151835.167500", "151835.955000", "151836.742500", "151837.530000", "151838.320000", "151839.107500", "151839.895000", "151840.682500", "151841.472500", "151842.260000", "151843.047500", "151843.835000", "151844.625000", "151845.412500", "151846.200000", "151846.990000", "151847.777500", "151848.565000", "151849.352500", "151850.142500", "151850.930000", "151851.717500", "151852.505000", "151853.295000", "151854.082500", "151854.870000", "151855.657500", "151856.447500", "151857.235000", "151858.022500", "151858.810000", "151859.600000", "151900.387500", "151901.175000", "151901.962500", "151902.752500", "151903.540000", "151904.327500", "151905.117500", "151905.905000", "151906.692500", "151907.480000", "151908.270000", "151909.057500", "151909.845000", "151910.632500", "151911.422500", "151912.210000", "151912.997500", "151913.785000", "151914.575000", "151915.362500", "151916.150000", "151916.937500", "151917.727500", "151918.515000", "151919.302500", "151920.090000", "151920.880000", "151921.667500", "151922.455000", "151923.245000", "151924.032500", "151924.820000", "151925.607500", "151926.397500", "151927.185000", "151927.972500", "151928.760000", "151929.550000", "151930.337500", "151931.125000", "151931.912500", "151932.702500", "151933.490000", "151934.277500", "151935.065000", "151935.855000", "151936.642500", "151937.430000", "151938.217500", "151939.007500", "151939.795000", "151940.582500", "151941.372500", "151942.160000", "151942.947500", "151943.735000", "151944.525000", "151945.312500", "151946.100000", "151946.887500", "151947.677500", "151948.465000", "151949.252500", "151950.040000", "151950.830000", "151951.617500", "151952.405000", "151953.192500", "151953.982500", "151954.770000", "151955.557500", "151956.347500", "151957.135000", "151957.922500", "151958.710000", "151959.500000", "152000.287500", "152001.075000", "152001.862500", "152002.652500", "152003.440000", "152004.227500", "152005.015000", "152005.805000", "152006.592500", "152007.380000", "152008.167500", "152008.957500", "152009.745000", "152010.532500", "152011.320000", "152012.110000", "152012.897500", "152013.685000", "152014.475000", "152015.262500", "152016.050000", "152016.837500", "152017.627500", "152018.415000", "152019.202500", "152019.990000", "152020.780000", "152021.567500", "152022.355000", "152023.142500", "152023.932500", "152024.720000", "152025.507500", "152026.295000", "152027.085000", "152027.872500", "152028.660000", "152029.447500", "152030.237500", "152031.025000", "152031.812500", "152032.602500", "152033.390000", "152034.177500", "152034.965000", "152035.755000", "152036.542500", "152037.330000", "152038.117500", "152038.907500", "152039.695000", "152040.482500", "152041.270000", "152042.060000", "152042.847500", "152043.635000", "152044.422500", "152045.212500", "152046.000000", "152046.787500", "152047.575000", "152048.365000", "152049.152500", "152049.940000", "152050.730000", "152051.517500", "152052.305000", "152053.092500", "152053.882500", "152054.670000", "152055.457500", "152056.245000", "152057.035000", "152057.822500", "152058.610000", "152059.397500", "152100.187500", "152100.975000", "152101.762500", "152102.550000", "152103.340000", "152104.127500", "152104.915000", "152105.702500", "152106.492500", "152107.280000", "152108.067500", "152108.857500", "152109.645000", "152110.432500", "152111.220000", "152112.010000", "152112.797500", "152113.585000", "152114.372500", "152115.162500", "152115.950000", "152116.737500", "152117.525000", "152118.315000", "152119.102500", "152119.890000", "152120.677500", "152121.467500", "152122.255000", "152123.042500", "152123.830000", "152124.620000", "152125.407500", "152126.195000", "152126.985000", "152127.772500", "152128.560000", "152129.347500", "152130.137500", "152130.925000", "152131.712500", "152132.500000", "152133.290000", "152134.077500", "152134.865000", "152135.652500", "152136.442500", "152137.230000", "152138.017500", "152138.805000", "152139.595000", "152140.382500", "152141.170000", "152141.957500", "152142.747500", "152143.535000", "152144.322500", "152145.112500", "152145.900000", "152146.687500", "152147.475000", "152148.265000", "152149.052500", "152149.840000", "152150.627500", "152151.417500", "152152.205000", "152152.992500", "152153.780000", "152154.570000", "152155.357500", "152156.145000", "152156.932500", "152157.722500", "152158.510000", "152159.297500", "152200.085000", "152200.875000", "152201.662500", "152202.450000", "152203.240000", "152204.027500", "152204.815000", "152205.602500", "152206.392500", "152207.180000", "152207.967500", "152208.755000", "152209.545000", "152210.332500", "152211.120000", "152211.907500", "152212.697500", "152213.485000", "152214.272500", "152215.060000", "152215.850000", "152216.637500", "152217.425000", "152218.212500", "152219.002500", "152219.790000", "152220.577500", "152221.367500", "152222.155000", "152222.942500", "152223.730000", "152224.520000", "152225.307500", "152226.095000", "152226.882500", "152227.672500", "152228.460000", "152229.247500", "152230.035000", "152230.825000", "152231.612500", "152232.400000", "152233.187500", "152233.977500", "152234.765000", "152235.552500", "152236.340000", "152237.130000", "152237.917500", "152238.705000", "152239.495000", "152240.282500", "152241.070000", "152241.857500", "152242.647500", "152243.435000", "152244.222500", "152245.010000", "152245.800000", "152246.587500", "152247.375000", "152248.162500", "152248.952500", "152249.740000", "152250.527500", "152251.315000", "152252.105000", "152252.892500", "152253.680000", "152254.467500", "152255.257500", "152256.045000", "152256.832500", "152257.622500", "152258.410000", "152259.197500", "152259.985000", "152300.775000", "152301.562500", "152302.350000", "152303.137500", "152303.927500", "152304.715000", "152305.502500", "152306.290000", "152307.080000", "152307.867500", "152308.655000", "152309.442500", "152310.232500", "152311.020000", "152311.807500", "152312.597500", "152313.385000", "152314.172500", "152314.960000", "152315.750000", "152316.537500", "152317.325000", "152318.112500", "152318.902500", "152319.690000", "152320.477500", "152321.265000", "152322.055000", "152322.842500", "152323.630000", "152324.417500", "152325.207500", "152325.995000", "152326.782500", "152327.570000", "152328.360000", "152329.147500", "152329.935000", "152330.725000", "152331.512500", "152332.300000", "152333.087500", "152333.877500", "152334.665000", "152335.452500", "152336.240000", "152337.030000", "152337.817500", "152338.605000", "152339.392500", "152340.182500", "152340.970000", "152341.757500", "152342.545000", "152343.335000", "152344.122500", "152344.910000", "152345.697500", "152346.487500", "152347.275000", "152348.062500", "152348.852500", "152349.640000", "152350.427500", "152351.215000", "152352.005000", "152352.792500", "152353.580000", "152354.367500", "152355.157500", "152355.945000", "152356.732500", "152357.520000", "152358.310000", "152359.097500", "152359.885000", "152400.672500", "152401.462500", "152402.250000", "152403.037500", "152403.825000", "152404.615000", "152405.402500", "152406.190000", "152406.980000", "152407.767500", "152408.555000", "152409.342500", "152410.132500", "152410.920000", "152411.707500", "152412.495000", "152413.285000", "152414.072500", "152414.860000", "152415.647500", "152416.437500", "152417.225000", "152418.012500", "152418.800000", "152419.590000", "152420.377500", "152421.165000", "152421.952500", "152422.742500", "152423.530000", "152424.317500", "152425.107500", "152425.895000", "152426.682500", "152427.470000", "152428.260000", "152429.047500", "152429.835000", "152430.622500", "152431.412500", "152432.200000", "152432.987500", "152433.775000", "152434.565000", "152435.352500", "152436.140000", "152436.927500", "152437.717500", "152438.505000", "152439.292500", "152440.080000", "152440.870000", "152441.657500", "152442.445000", "152443.235000", "152444.022500", "152444.810000", "152445.597500", "152446.387500", "152447.175000", "152447.962500", "152448.750000", "152449.540000", "152450.327500", "152451.115000", "152451.902500", "152452.692500", "152453.480000", "152454.267500", "152455.055000", "152455.845000", "152456.632500", "152457.420000", "152458.207500", "152458.997500", "152459.785000", "152500.572500", "152501.362500", "152502.150000", "152502.937500", "152503.725000", "152504.515000", "152505.302500", "152506.090000", "152506.877500", "152507.667500", "152508.455000", "152509.242500", "152510.030000", "152510.820000"],
      "ContentTime": ["151759.796000", "151759.796000", "151759.796000", "151759.796000", "151759.796000", "151759.812000", "151759.812000", "151759.812000", "151759.812000", "151759.812000", "151759.812000", "151759.812000", "151759.812000", "151759.828000", "151759.828000", "151759.828000", "151759.828000", "151759.828000", "151759.828000", "151759.828000", "151759.843000", "151759.843000", "151759.843000", "151759.843000", "151759.843000", "151759.843000", "151759.843000", "151759.859000", "151759.859000", "151759.859000", "151819.781000", "151819.781000", "151819.781000", "151819.781000", "151819.781000", "151819.781000", "151819.781000", "151819.781000", "151819.796000", "151819.796000", "151819.796000", "151819.796000", "151819.796000", "151819.812000", "151819.812000", "151819.812000", "151819.812000", "151819.812000", "151819.812000", "151819.812000", "151819.828000", "151819.828000", "151819.828000", "151819.828000", "151819.828000", "151839.781000", "151839.781000", "151839.781000", "151839.781000", "151839.781000", "151839.781000", "151839.781000", "151839.781000", "151839.796000", "151839.796000", "151839.796000", "151839.796000", "151839.796000", "151839.796000", "151839.796000", "151839.812000", "151839.812000", "151839.812000", "151839.812000", "151839.812000", "151839.812000", "151839.812000", "151839.828000", "151839.828000", "151839.828000", "151839.828000", "151859.781000", "151859.781000", "151859.781000", "151859.781000", "151859.781000", "151859.781000", "151859.781000", "151859.781000", "151859.796000", "151859.796000", "151859.796000", "151859.796000", "151859.796000", "151859.796000", "151859.796000", "151859.812000", "151859.812000", "151859.812000", "151859.812000", "151859.812000", "151859.828000", "151859.828000", "151859.828000", "151859.828000", "151859.828000", "151919.781000", "151919.781000", "151919.781000", "151919.781000", "151919.781000", "151919.781000", "151919.781000", "151919.796000", "151919.796000", "151919.796000", "151919.796000", "151919.796000", "151919.796000", "151919.796000", "151919.796000", "151919.812000", "151919.812000", "151919.812000", "151919.812000", "151919.812000", "151919.812000", "151919.812000", "151919.828000", "151919.828000", "151919.828000", "151919.828000", "151939.781000", "151939.781000", "151939.781000", "151939.781000", "151939.781000", "151939.781000", "151939.781000", "151939.781000", "151939.796000", "151939.796000", "151939.796000", "151939.796000", "151939.796000", "151939.796000", "151939.796000", "151939.812000", "151939.812000", "151939.812000", "151939.812000", "151939.812000", "151939.812000", "151939.828000", "151939.828000", "151939.828000", "151939.828000", "151959.781000", "151959.781000", "151959.781000", "151959.781000", "151959.781000", "151959.781000", "151959.781000", "151959.796000", "151959.796000", "151959.796000", "151959.796000", "151959.796000", "151959.796000", "151959.812000", "151959.812000", "151959.812000", "151959.812000", "151959.812000", "151959.812000", "151959.812000", "151959.828000", "151959.828000", "151959.828000", "151959.828000", "151959.828000", "151959.828000", "152019.781000", "152019.781000", "152019.781000", "152019.781000", "152019.781000", "152019.781000", "152019.781000", "152019.781000", "152019.796000", "152019.796000", "152019.796000", "152019.796000", "152019.796000", "152019.796000", "152019.796000", "152019.812000", "152019.812000", "152019.812000", "152019.812000", "152019.812000", "152019.812000", "152019.812000", "152019.812000", "152019.828000", "152019.828000", "152039.781000", "152039.781000", "152039.781000", "152039.781000", "152039.781000", "152039.781000", "152039.781000", "152039.781000", "152039.796000", "152039.796000", "152039.796000", "152039.796000", "152039.796000", "152039.796000", "152039.796000", "152039.812000", "152039.812000", "152039.812000", "152039.828000", "152039.828000", "152039.828000", "152039.828000", "152039.828000", "152039.828000", "152039.828000", "152039.828000", "152059.781000", "152059.781000", "152059.781000", "152059.781000", "152059.781000", "152059.781000", "152059.781000", "152059.796000", "152059.796000", "152059.796000", "152059.796000", "152059.796000", "152059.796000", "152059.796000", "152059.796000", "152059.812000", "152059.812000", "152059.812000", "152059.812000", "152059.812000", "152059.812000", "152059.812000", "152059.828000", "152059.828000", "152059.828000", "152119.781000", "152119.781000", "152119.781000", "152119.781000", "152119.781000", "152119.781000", "152119.781000", "152119.781000", "152119.796000", "152119.796000", "152119.796000", "152119.796000", "152119.796000", "152119.796000", "152119.796000", "152119.812000", "152119.812000", "152119.812000", "152119.812000", "152119.812000", "152119.812000", "152119.812000", "152119.812000", "152119.828000", "152119.828000", "152119.828000", "152139.781000", "152139.781000", "152139.781000", "152139.781000", "152139.781000", "152139.781000", "152139.781000", "152139.781000", "152139.796000", "152139.796000", "152139.796000", "152139.796000", "152139.796000", "152139.796000", "152139.796000", "152139.812000", "152139.812000", "152139.812000", "152139.812000", "152139.828000", "152139.828000", "152139.828000", "152139.828000", "152139.828000", "152139.828000", "152159.781000", "152159.781000", "152159.781000", "152159.781000", "152159.781000", "152159.781000", "152159.781000", "152159.781000", "152159.796000", "152159.796000", "152159.796000", "152159.796000", "152159.796000", "152159.796000", "152159.796000", "152159.812000", "152159.812000", "152159.812000", "152159.812000", "152159.812000", "152159.812000", "152159.812000", "152159.812000", "152159.828000", "152159.828000", "152159.828000", "152219.781000", "152219.781000", "152219.781000", "152219.781000", "152219.781000", "152219.781000", "152219.781000", "152219.781000", "152219.796000", "152219.796000", "152219.796000", "152219.796000", "152219.796000", "152219.796000", "152219.796000", "152219.812000", "152219.812000", "152219.812000", "152219.812000", "152219.812000", "152219.812000", "152219.812000", "152219.828000", "152219.828000", "152219.828000", "152239.781000", "152239.781000", "152239.781000", "152239.781000", "152239.781000", "152239.781000", "152239.781000", "152239.781000", "152239.796000", "152239.796000", "152239.796000", "152239.796000", "152239.796000", "152239.796000", "152239.812000", "152239.812000", "152239.812000", "152239.812000", "152239.812000", "152239.812000", "152239.812000", "152239.828000", "152239.828000", "152239.828000", "152239.828000", "152239.828000", "152259.781000", "152259.781000", "152259.781000", "152259.781000", "152259.781000", "152259.781000", "152259.781000", "152259.781000", "152259.796000", "152259.796000", "152259.796000", "152259.796000", "152259.796000", "152259.796000", "152259.796000", "152259.812000", "152259.812000", "152259.812000", "152259.812000", "152259.812000", "152259.812000", "152259.828000", "152259.828000", "152259.828000", "152259.828000", "152319.781000", "152319.781000", "152319.781000", "152319.781000", "152319.781000", "152319.781000", "152319.781000", "152319.781000", "152319.796000", "152319.796000", "152319.796000", "152319.796000", "152319.812000", "152319.812000", "152319.812000", "152319.812000", "152319.828000", "152319.828000", "152319.828000", "152319.828000", "152319.828000", "152319.828000", "152319.828000", "152319.843000", "152319.843000", "152339.781000", "152339.781000", "152339.781000", "152339.781000", "152339.781000", "152339.781000", "152339.781000", "152339.781000", "152339.796000", "152339.796000", "152339.796000", "152339.796000", "152339.796000", "152339.796000", "152339.796000", "152339.812000", "152339.812000", "152339.812000", "152339.812000", "152339.812000", "152339.812000", "152339.812000", "152339.828000", "152339.828000", "152339.828000", "152339.828000", "152359.781000", "152359.781000", "152359.781000", "152359.781000", "152359.781000", "152359.781000", "152359.781000", "152359.781000", "152359.796000", "152359.796000", "152359.796000", "152359.796000", "152359.796000", "152359.796000", "152359.796000", "152359.812000", "152359.812000", "152359.812000", "152359.812000", "152359.812000", "152359.812000", "152359.812000", "152359.828000", "152359.828000", "152359.828000", "152419.781000", "152419.781000", "152419.781000", "152419.781000", "152419.781000", "152419.781000", "152419.781000", "152419.781000", "152419.796000", "152419.796000", "152419.796000", "152419.796000", "152419.796000", "152419.796000", "152419.796000", "152419.812000", "152419.812000", "152419.812000", "152419.812000", "152419.812000", "152419.828000", "152419.828000", "152419.828000", "152419.828000", "152419.828000", "152419.828000", "152439.781000", "152439.781000", "152439.781000", "152439.781000", "152439.781000", "152439.781000", "152439.796000", "152439.796000", "152439.796000", "152439.796000", "152439.796000", "152439.796000", "152439.796000", "152439.812000", "152439.812000", "152439.812000", "152439.812000", "152439.812000", "152439.812000", "152439.812000", "152439.812000", "152439.828000", "152439.828000", "152439.828000", "152439.828000", "152459.781000", "152459.781000", "152459.781000", "152459.781000", "152459.781000", "152459.781000", "152459.781000", "152459.781000", "152459.796000", "152459.796000", "152459.796000", "152459.796000", "152459.796000", "152459.796000", "152459.796000", "152459.812000", "152459.812000", "152459.812000", "152459.812000", "152459.812000", "152459.812000", "152459.812000", "152459.812000", "152459.828000", "152459.828000", "152459.828000", "152512.078000", "152512.078000", "152512.078000", "152512.093000", "152512.093000", "152512.093000", "152512.093000", "152512.093000", "152512.093000", "152512.093000", "152512.109000", "152512.109000", "152512.109000", "152512.109000", "152512.109000", "152512.109000"],
