{
  "AcquisitionMatrixPE": 104,
  "AcquisitionNumber": 1,
  "AcquisitionTime": "14:45:45.707500",
  "BandwidthPerPixelPhaseEncode": 13.935,
  "BaseResolution": 104,
  "CoilString": "C:HEA;HEP",
  "ConversionSoftware": "dcm2niix",
  "ConversionSoftwareVersion": "v1.0.20210317",
  "DerivedVendorReportedEchoSpacing": 0.000690017,
  "DeviceSerialNumber": "35450",
  "DwellTime": 2.5e-06,
  "EchoTime": 0.0348,
  "EffectiveEchoSpacing": 0.000690017,
  "FlipAngle": 55,
  "ImageComments": "Unaliased MB8/PE3 (remote)",
  "ImageOrientationPatientDICOM": [0.999785, -0.0023452, -0.0205873, -1.6668e-09, 0.993574, -0.113183],
  "ImageType": [
    "ORIGINAL",
    "PRIMARY",
    "M",
    "MB",
    "ND",
    "MOSAIC"
],
  "ImagingFrequency": 123.235,
  "InPlanePhaseEncodingDirectionDICOM": "COL",
  "InstitutionAddress": "Univeristy Ave. 197,Newark,North East,US,07102-1814",
  "InstitutionName": "RUBIC",
  "InstitutionalDepartmentName": "Department",
  "MRAcquisitionType": "2D",
  "MagneticFieldStrength": 3,
  "Manufacturer": "Siemens",
  "ManufacturersModelName": "TrioTim",
  "Modality": "MR",
  "MultibandAccelerationFactor": 8,
  "PartialFourier": 0.875,
  "PatientPosition": "HFS",
  "PercentPhaseFOV": 100,
  "PercentSampling": 100,
  "PhaseEncodingDirection": "j-",
  "PhaseEncodingSteps": 91,
  "PhaseResolution": 1,
  "PixelBandwidth": 1923,
  "ProcedureStepDescription": "Cole^Michael",
  "ProtocolName": "cmrr_mbep2d_bold_2mm_MB8_Task_8x",
  "PulseSequenceDetails": "%CustomerSeq%\\cmrr_mbep2d_bold",
  "ReceiveCoilName": "32Ch_Head",
  "ReconMatrixPE": 104,
  "RepetitionTime": 0.785,
  "SAR": 0.16688,
  "ScanOptions": "PFP\\FS",
  "ScanningSequence": "EP",
  "SequenceName": "epfid2d1_104",
  "SequenceVariant": "SK\\SS",
  "SeriesDescription": "cmrr_mbep2d_bold_2mm_MB8_Task_8x",
  "SeriesNumber": 15,
  "ShimSetting": [2084, -472, -7474, 236, -12, -177, -152, -16],
  "SliceThickness": 2,
  "SliceTiming": [0, 0.44, 0.0875, 0.5275, 0.1775, 0.615, 0.265, 0.7025, 0.3525, 0, 0.44, 0.0875, 0.5275, 0.1775, 0.615, 0.265, 0.7025, 0.3525, 0, 0.44, 0.0875, 0.5275, 0.1775, 0.615, 0.265, 0.7025, 0.3525, 0, 0.44, 0.0875, 0.5275, 0.1775, 0.615, 0.265, 0.7025, 0.3525, 0, 0.44, 0.0875, 0.5275, 0.1775, 0.615, 0.265, 0.7025, 0.3525, 0, 0.44, 0.0875, 0.5275, 0.1775, 0.615, 0.265, 0.7025, 0.3525, 0, 0.44, 0.0875, 0.5275, 0.1775, 0.615, 0.265, 0.7025, 0.3525, 0, 0.44, 0.0875, 0.5275, 0.1775, 0.615, 0.265, 0.7025, 0.3525],
  "SoftwareVersions": "syngo MR B19",
  "SpacingBetweenSlices": 2,
  "StationName": "MRC35450",
  "TaskName": "cpro",
  "TotalReadoutTime": 0.0710717,
  "TxRefAmp": 379.029,
  "dcmmeta_affine": [
    [-1.999570608139038, -3.3336040594633687e-09, -0.04144096001982689, 105.46259307861328],
    [0.004690391942858696, 1.987148404121399, -0.22631658613681793, -72.8260269165039],
    [-0.041174668818712234, 0.22636517882347107, 1.9867217540740967, -108.26415252685547],
    [0.0, 0.0, 0.0, 1.0]
],
  "dcmmeta_reorient_transform": [
    [0.0, -1.0, 0.0, 103.0],
    [1.0, 0.0, 0.0, 0.0],
    [0.0, 0.0, 1.0, 0.0],
    [0.0, 0.0, 0.0, 1.0]
],
  "dcmmeta_shape": [104, 104, 72, 581],
  "dcmmeta_slice_dim": 2,
  "dcmmeta_version": 0.6,
  "global": {
    "const": {
      "AcquisitionMatrix": [104, 0, 0, 104],
      "AngioFlag": "N",
      "BitsAllocated": 16,
      "BitsStored": 12,
      "Columns": 936,
      "EchoNumbers": 1,
      "EchoTime": 34.8,
      "EchoTrainLength": 1,
      "FlipAngle": 55.0,
      "HighBit": 11,
      "ImageOrientationPatient": [0.99978530782605, -0.0023451958678, -0.0205873337643, -1.666802e-09, 0.99357420507568, -0.1131825914539],
      "ImagePositionPatient": [-937.28397040463, -956.55279234634, 26.348039042317],
      "ImageType": [
        "ORIGINAL",
        "PRIMARY",
        "M",
        "MB",
        "ND",
        "MOSAIC"
],
      "ImagedNucleus": "1H",
      "ImagingFrequency": 123.23459,
      "InPlanePhaseEncodingDirection": "COL",
      "MRAcquisitionType": "2D",
      "MagneticFieldStrength": 3.0,
      "Manufacturer": "SIEMENS",
      "ManufacturerModelName": "TrioTim",
      "Modality": "MR",
      "NumberOfAverages": 1.0,
      "NumberOfPhaseEncodingSteps": 91,
      "PercentPhaseFieldOfView": 100.0,
      "PercentSampling": 100.0,
      "PerformedProcedureStepStartTime": "133243.796000",
      "PhotometricInterpretation": "MONOCHROME2",
      "PixelBandwidth": 1923.0,
      "PixelRepresentation": 0,
      "PixelSpacing": [2.0, 2.0],
      "ProtocolName": "cmrr_mbep2d_bold_2mm_MB8_Task_8x",
      "RepetitionTime": 785.0,
      "Rows": 936,
      "SAR": 0.16687968807536,
      "SamplesPerPixel": 1,
      "ScanOptions": [
        "PFP",
        "FS"
],
      "ScanningSequence": "EP",
      "SequenceName": "epfid2d1_104",
      "SequenceVariant": [
        "SK",
        "SS"
],
      "SeriesDescription": "cmrr_mbep2d_bold_2mm_MB8_Task_8x",
      "SeriesNumber": 15,
      "SeriesTime": "144619.828000",
      "SliceLocation": -101.48974162366,
      "SliceThickness": 2.0,
      "SmallestImagePixelValue": 0,
      "SoftwareVersions": "syngo MR B19",
      "SpacingBetweenSlices": 2.0000000062297,
      "SpecificCharacterSet": "ISO_IR 100",
      "StudyID": "1",
      "StudyTime": "133243.703000",
      "TransmitCoilName": "Body",
      "VariableFlipAngleFlag": "N",
      "WindowCenterWidthExplanation": "Algo1",
      "dBdt": 0.0},
    "slices": {}
  },
  "time": {
    "samples": {
      "AcquisitionNumber": [1, 2, 3, 4, 5, 6, 7, 8, 9, 10, 11, 12, 13, 14, 15, 16, 17, 18, 19, 20, 21, 22, 23, 24, 25, 26, 27, 28, 29, 30, 31, 32, 33, 34, 35, 36, 37, 38, 39, 40, 41, 42, 43, 44, 45, 46, 47, 48, 49, 50, 51, 52, 53, 54, 55, 56, 57, 58, 59, 60, 61, 62, 63, 64, 65, 66, 67, 68, 69, 70, 71, 72, 73, 74, 75, 76, 77, 78, 79, 80, 81, 82, 83, 84, 85, 86, 87, 88, 89, 90, 91, 92, 93, 94, 95, 96, 97, 98, 99, 100, 101, 102, 103, 104, 105, 106, 107, 108, 109, 110, 111, 112, 113, 114, 115, 116, 117, 118, 119, 120, 121, 122, 123, 124, 125, 126, 127, 128, 129, 130, 131, 132, 133, 134, 135, 136, 137, 138, 139, 140, 141, 142, 143, 144, 145, 146, 147, 148, 149, 150, 151, 152, 153, 154, 155, 156, 157, 158, 159, 160, 161, 162, 163, 164, 165, 166, 167, 168, 169, 170, 171, 172, 173, 174, 175, 176, 177, 178, 179, 180, 181, 182, 183, 184, 185, 186, 187, 188, 189, 190, 191, 192, 193, 194, 195, 196, 197, 198, 199, 200, 201, 202, 203, 204, 205, 206, 207, 208, 209, 210, 211, 212, 213, 214, 215, 216, 217, 218, 219, 220, 221, 222, 223, 224, 225, 226, 227, 228, 229, 230, 231, 232, 233, 234, 235, 236, 237, 238, 239, 240, 241, 242, 243, 244, 245, 246, 247, 248, 249, 250, 251, 252, 253, 254, 255, 256, 257, 258, 259, 260, 261, 262, 263, 264, 265, 266, 267, 268, 269, 270, 271, 272, 273, 274, 275, 276, 277, 278, 279, 280, 281, 282, 283, 284, 285, 286, 287, 288, 289, 290, 291, 292, 293, 294, 295, 296, 297, 298, 299, 300, 301, 302, 303, 304, 305, 306, 307, 308, 309, 310, 311, 312, 313, 314, 315, 316, 317, 318, 319, 320, 321, 322, 323, 324, 325, 326, 327, 328, 329, 330, 331, 332, 333, 334, 335, 336, 337, 338, 339, 340, 341, 342, 343, 344, 345, 346, 347, 348, 349, 350, 351, 352, 353, 354, 355, 356, 357, 358, 359, 360, 361, 362, 363, 364, 365, 366, 367, 368, 369, 370, 371, 372, 373, 374, 375, 376, 377, 378, 379, 380, 381, 382, 383, 384, 385, 386, 387, 388, 389, 390, 391, 392, 393, 394, 395, 396, 397, 398, 399, 400, 401, 402, 403, 404, 405, 406, 407, 408, 409, 410, 411, 412, 413, 414, 415, 416, 417, 418, 419, 420, 421, 422, 423, 424, 425, 426, 427, 428, 429, 430, 431, 432, 433, 434, 435, 436, 437, 438, 439, 440, 441, 442, 443, 444, 445, 446, 447, 448, 449, 450, 451, 452, 453, 454, 455, 456, 457, 458, 459, 460, 461, 462, 463, 464, 465, 466, 467, 468, 469, 470, 471, 472, 473, 474, 475, 476, 477, 478, 479, 480, 481, 482, 483, 484, 485, 486, 487, 488, 489, 490, 491, 492, 493, 494, 495, 496, 497, 498, 499, 500, 501, 502, 503, 504, 505, 506, 507, 508, 509, 510, 511, 512, 513, 514, 515, 516, 517, 518, 519, 520, 521, 522, 523, 524, 525, 526, 527, 528, 529, 530, 531, 532, 533, 534, 535, 536, 537, 538, 539, 540, 541, 542, 543, 544, 545, 546, 547, 548, 549, 550, 551, 552, 553, 554, 555, 556, 557, 558, 559, 560, 561, 562, 563, 564, 565, 566, 567, 568, 569, 570, 571, 572, 573, 574, 575, 576, 577, 578, 579, 580, 581],
      "AcquisitionTime": ["144545.707500", "144546.497500", "144547.285000", "144548.072500", "144548.862500", "144549.650000", "144550.437500", "144551.225000", "144552.015000", "144552.802500", "144553.590000", "144554.377500", "144555.167500", "144555.955000", "144556.742500", "144557.530000", "144558.320000", "144559.107500", "144559.895000", "144600.682500", "144601.472500", "144602.260000", "144603.047500", "144603.835000", "144604.625000", "144605.412500", "144606.200000", "144606.990000", "144607.777500", "144608.565000", "144609.352500", "144610.142500", "144610.930000", "144611.717500", "144612.505000", "144613.295000", "144614.082500", "144614.870000", "144615.657500", "144616.447500", "144617.235000", "144618.022500", "144618.810000", "144619.600000", "144620.387500", "144621.175000", "144621.962500", "144622.752500", "144623.540000", "144624.327500", "144625.117500", "144625.905000", "144626.692500", "144627.480000", "144628.270000", "144629.057500", "144629.845000", "144630.632500", "144631.422500", "144632.210000", "144632.997500", "144633.785000", "144634.575000", "144635.362500", "144636.150000", "144636.937500", "144637.727500", "144638.515000", "144639.302500", "144640.090000", "144640.880000", "144641.667500", "144642.455000", "144643.245000", "144644.032500", "144644.820000", "144645.607500", "144646.397500", "144647.185000", "144647.972500", "144648.760000", "144649.550000", "144650.337500", "144651.125000", "144651.912500", "144652.702500", "144653.490000", "144654.277500", "144655.065000", "144655.855000", "144656.642500", "144657.430000", "144658.217500", "144659.007500", "144659.795000", "144700.582500", "144701.372500", "144702.160000", "144702.947500", "144703.735000", "144704.525000", "144705.312500", "144706.100000", "144706.887500", "144707.677500", "144708.465000", "144709.252500", "144710.040000", "144710.830000", "144711.617500", "144712.405000", "144713.192500", "144713.982500", "144714.770000", "144715.557500", "144716.345000", "144717.135000", "144717.922500", "144718.710000", "144719.500000", "144720.287500", "144721.075000", "144721.862500", "144722.652500", "144723.440000", "144724.227500", "144725.015000", "144725.805000", "144726.592500", "144727.380000", "144728.167500", "144728.957500", "144729.745000", "144730.532500", "144731.320000", "144732.110000", "144732.897500", "144733.685000", "144734.475000", "144735.262500", "144736.050000", "144736.837500", "144737.627500", "144738.415000", "144739.202500", "144739.990000", "144740.780000", "144741.567500", "144742.355000", "144743.142500", "144743.932500", "144744.720000", "144745.507500", "144746.295000", "144747.085000", "144747.872500", "144748.660000", "144749.447500", "144750.237500", "144751.025000", "144751.812500", "144752.602500", "144753.390000", "144754.177500", "144754.965000", "144755.755000", "144756.542500", "144757.330000", "144758.117500", "144758.907500", "144759.695000", "144800.482500", "144801.270000", "144802.060000", "144802.847500", "144803.635000", "144804.422500", "144805.212500", "144806.000000", "144806.787500", "144807.575000", "144808.365000", "144809.152500", "144809.940000", "144810.730000", "144811.517500", "144812.305000", "144813.092500", "144813.882500", "144814.670000", "144815.457500", "144816.245000", "144817.035000", "144817.822500", "144818.610000", "144819.397500", "144820.187500", "144820.975000", "144821.762500", "144822.550000", "144823.340000", "144824.127500", "144824.915000", "144825.702500", "144826.492500", "144827.280000", "144828.067500", "144828.857500", "144829.645000", "144830.432500", "144831.220000", "144832.010000", "144832.797500", "144833.585000", "144834.372500", "144835.162500", "144835.950000", "144836.737500", "144837.525000", "144838.315000", "144839.102500", "144839.890000", "144840.677500", "144841.467500", "144842.255000", "144843.042500", "144843.830000", "144844.620000", "144845.407500", "144846.195000", "144846.985000", "144847.772500", "144848.560000", "144849.347500", "144850.137500", "144850.925000", "144851.712500", "144852.500000", "144853.290000", "144854.077500", "144854.865000", "144855.652500", "144856.442500", "144857.230000", "144858.017500", "144858.805000", "144859.595000", "144900.382500", "144901.170000", "144901.957500", "144902.747500", "144903.535000", "144904.322500", "144905.112500", "144905.900000", "144906.687500", "144907.475000", "144908.265000", "144909.052500", "144909.840000", "144910.627500", "144911.417500", "144912.205000", "144912.992500", "144913.780000", "144914.570000", "144915.357500", "144916.145000", "144916.932500", "144917.722500", "144918.510000", "144919.297500", "144920.085000", "144920.875000", "144921.662500", "144922.450000", "144923.240000", "144924.027500", "144924.815000", "144925.602500", "144926.392500", "144927.180000", "144927.967500", "144928.755000", "144929.545000", "144930.332500", "144931.120000", "144931.907500", "144932.697500", "144933.485000", "144934.272500", "144935.060000", "144935.850000", "144936.637500", "144937.425000", "144938.212500", "144939.002500", "144939.790000", "144940.577500", "144941.367500", "144942.155000", "144942.942500", "144943.730000", "144944.520000", "144945.307500", "144946.095000", "144946.882500", "144947.672500", "144948.460000", "144949.247500", "144950.035000", "144950.825000", "144951.612500", "144952.400000", "144953.187500", "144953.977500", "144954.765000", "144955.552500", "144956.340000", "144957.130000", "144957.917500", "144958.705000", "144959.495000", "145000.282500", "145001.070000", "145001.857500", "145002.647500", "145003.435000", "145004.222500", "145005.010000", "145005.800000", "145006.587500", "145007.375000", "145008.162500", "145008.952500", "145009.740000", "145010.527500", "145011.315000", "145012.105000", "145012.892500", "145013.680000", "145014.467500", "145015.257500", "145016.045000", "145016.832500", "145017.622500", "145018.410000", "145019.197500", "145019.985000", "145020.775000", "145021.562500", "145022.350000", "145023.137500", "145023.927500", "145024.715000", "145025.502500", "145026.290000", "145027.080000", "145027.867500", "145028.655000", "145029.442500", "145030.232500", "145031.020000", "145031.807500", "145032.595000", "145033.385000", "145034.172500", "145034.960000", "145035.750000", "145036.537500", "145037.325000", "145038.112500", "145038.902500", "145039.690000", "145040.477500", "145041.265000", "145042.055000", "145042.842500", "145043.630000", "145044.417500", "145045.207500", "145045.995000", "145046.782500", "145047.570000", "145048.360000", "145049.147500", "145049.935000", "145050.725000", "145051.512500", "145052.300000", "145053.087500", "145053.877500", "145054.665000", "145055.452500", "145056.240000", "145057.030000", "145057.817500", "145058.605000", "145059.392500", "145100.182500", "145100.970000", "145101.757500", "145102.545000", "145103.335000", "145104.122500", "145104.910000", "145105.697500", "145106.487500", "145107.275000", "145108.062500", "145108.852500", "145109.640000", "145110.427500", "145111.215000", "145112.005000", "145112.792500", "145113.580000", "145114.367500", "145115.157500", "145115.945000", "145116.732500", "145117.520000", "145118.310000", "145119.097500", "145119.885000", "145120.672500", "145121.462500", "145122.250000", "145123.037500", "145123.825000", "145124.615000", "145125.402500", "145126.190000", "145126.980000", "145127.767500", "145128.555000", "145129.342500", "145130.132500", "145130.920000", "145131.707500", "145132.495000", "145133.285000", "145134.072500", "145134.860000", "145135.647500", "145136.437500", "145137.225000", "145138.012500", "145138.800000", "145139.590000", "145140.377500", "145141.165000", "145141.952500", "145142.742500", "145143.530000", "145144.317500", "145145.107500", "145145.895000", "145146.682500", "145147.470000", "145148.260000", "145149.047500", "145149.835000", "145150.622500", "145151.412500", "145152.200000", "145152.987500", "145153.775000", "145154.565000", "145155.352500", "145156.140000", "145156.927500", "145157.717500", "145158.505000", "145159.292500", "145200.080000", "145200.870000", "145201.657500", "145202.445000", "145203.235000", "145204.022500", "145204.810000", "145205.597500", "145206.387500", "145207.175000", "145207.962500", "145208.750000", "145209.540000", "145210.327500", "145211.115000", "145211.902500", "145212.692500", "145213.480000", "145214.267500", "145215.055000", "145215.845000", "145216.632500", "145217.420000", "145218.207500", "145218.997500", "145219.785000", "145220.572500", "145221.362500", "145222.150000", "145222.937500", "145223.725000", "145224.515000", "145225.302500", "145226.090000", "145226.877500", "145227.667500", "145228.455000", "145229.242500", "145230.030000", "145230.820000", "145231.607500", "145232.395000", "145233.182500", "145233.972500", "145234.760000", "145235.547500", "145236.335000", "145237.125000", "145237.912500", "145238.700000", "145239.490000", "145240.277500", "145241.065000", "145241.852500", "145242.642500", "145243.430000", "145244.217500", "145245.005000", "145245.795000", "145246.582500", "145247.370000", "145248.157500", "145248.947500", "145249.735000", "145250.522500", "145251.310000", "145252.100000", "145252.887500", "145253.675000", "145254.462500", "145255.252500", "145256.040000", "145256.827500", "145257.617500", "145258.405000", "145259.192500", "145259.980000", "145300.770000", "145301.557500", "145302.345000", "145303.132500", "145303.922500", "145304.710000", "145305.497500", "145306.285000", "145307.075000", "145307.862500", "145308.650000", "145309.437500", "145310.227500", "145311.015000", "145311.802500", "145312.590000", "145313.380000", "145314.167500", "145314.955000", "145315.745000", "145316.532500", "145317.320000", "145318.107500", "145318.897500", "145319.685000", "145320.472500", "145321.260000", "145322.050000", "145322.837500"],
      "ContentTime": ["144619.828000", "144619.828000", "144619.843000", "144619.843000", "144619.843000", "144619.843000", "144619.843000", "144619.843000", "144619.843000", "144619.843000", "144619.859000", "144619.859000", "144619.859000", "144619.859000", "144619.859000", "144619.859000", "144619.859000", "144619.875000", "144619.875000", "144619.875000", "144619.875000", "144619.875000", "144619.875000", "144619.875000", "144619.875000", "144619.890000", "144619.890000", "144619.890000", "144619.890000", "144619.890000", "144619.890000", "144619.890000", "144619.890000", "144619.906000", "144619.906000", "144619.906000", "144619.906000", "144619.906000", "144619.906000", "144619.906000", "144639.812000", "144639.812000", "144639.812000", "144639.812000", "144639.812000", "144639.812000", "144639.812000", "144639.812000", "144639.828000", "144639.828000", "144639.828000", "144639.828000", "144639.828000", "144639.828000", "144639.828000", "144639.828000", "144639.843000", "144639.843000", "144639.843000", "144639.843000", "144639.843000", "144639.843000", "144639.843000", "144639.859000", "144639.859000", "144659.812000", "144659.812000", "144659.812000", "144659.812000", "144659.812000", "144659.812000", "144659.812000", "144659.812000", "144659.828000", "144659.828000", "144659.828000", "144659.828000", "144659.828000", "144659.828000", "144659.828000", "144659.828000", "144659.843000", "144659.843000", "144659.843000", "144659.843000", "144659.843000", "144659.843000", "144659.843000", "144659.843000", "144659.859000", "144659.859000", "144719.812000", "144719.812000", "144719.812000", "144719.812000", "144719.812000", "144719.812000", "144719.812000", "144719.812000", "144719.828000", "144719.828000", "144719.828000", "144719.828000", "144719.828000", "144719.828000", "144719.828000", "144719.843000", "144719.843000", "144719.843000", "144719.843000", "144719.843000", "144719.843000", "144719.843000", "144719.843000", "144719.859000", "144719.859000", "144739.812000", "144739.812000", "144739.812000", "144739.812000", "144739.812000", "144739.812000", "144739.812000", "144739.812000", "144739.828000", "144739.828000", "144739.828000", "144739.828000", "144739.828000", "144739.828000", "144739.828000", "144739.828000", "144739.843000", "144739.843000", "144739.843000", "144739.843000", "144739.843000", "144739.843000", "144739.843000", "144739.859000", "144739.859000", "144739.859000", "144759.812000", "144759.812000", "144759.812000", "144759.812000", "144759.812000", "144759.812000", "144759.812000", "144759.812000", "144759.828000", "144759.828000", "144759.828000", "144759.828000", "144759.828000", "144759.828000", "144759.828000", "144759.828000", "144759.843000", "144759.843000", "144759.843000", "144759.843000", "144759.843000", "144759.843000", "144759.843000", "144759.843000", "144759.859000", "144819.812000", "144819.812000", "144819.812000", "144819.812000", "144819.812000", "144819.812000", "144819.812000", "144819.812000", "144819.828000", "144819.828000", "144819.828000", "144819.828000", "144819.828000", "144819.828000", "144819.828000", "144819.828000", "144819.843000", "144819.843000", "144819.843000", "144819.843000", "144819.843000", "144819.843000", "144819.843000", "144819.843000", "144819.859000", "144819.859000", "144839.812000", "144839.812000", "144839.812000", "144839.812000", "144839.812000", "144839.812000", "144839.812000", "144839.812000", "144839.828000", "144839.828000", "144839.828000", "144839.828000", "144839.828000", "144839.828000", "144839.828000", "144839.843000", "144839.843000", "144839.843000", "144839.843000", "144839.843000", "144839.843000", "144839.843000", "144839.859000", "144839.859000", "144839.859000", "144859.812000", "144859.812000", "144859.812000", "144859.812000", "144859.812000", "144859.812000", "144859.812000", "144859.812000", "144859.828000", "144859.828000", "144859.828000", "144859.828000", "144859.828000", "144859.828000", "144859.828000", "144859.828000", "144859.843000", "144859.843000", "144859.843000", "144859.843000", "144859.843000", "144859.843000", "144859.843000", "144859.843000", "144859.859000", "144859.859000", "144919.812000", "144919.812000", "144919.812000", "144919.812000", "144919.812000", "144919.812000", "144919.812000", "144919.812000", "144919.828000", "144919.828000", "144919.828000", "144919.828000", "144919.828000", "144919.828000", "144919.828000", "144919.828000", "144919.843000", "144919.843000", "144919.843000", "144919.843000", "144919.843000", "144919.843000", "144919.843000", "144919.843000", "144919.859000", "144939.812000", "144939.812000", "144939.812000", "144939.812000", "144939.812000", "144939.812000", "144939.812000", "144939.812000", "144939.828000", "144939.828000", "144939.828000", "144939.828000", "144939.828000", "144939.828000", "144939.828000", "144939.828000", "144939.843000", "144939.843000", "144939.843000", "144939.843000", "144939.843000", "144939.843000", "144939.843000", "144939.843000", "144939.859000", "144939.859000", "144959.812000", "144959.812000", "144959.812000", "144959.812000", "144959.812000", "144959.812000", "144959.812000", "144959.812000", "144959.828000", "144959.828000", "144959.828000", "144959.828000", "144959.828000", "144959.828000", "144959.828000", "144959.828000", "144959.843000", "144959.843000", "144959.843000", "144959.843000", "144959.843000", "144959.843000", "144959.843000", "144959.859000", "144959.859000", "145019.812000", "145019.812000", "145019.812000", "145019.812000", "145019.812000", "145019.812000", "145019.812000", "145019.812000", "145019.828000", "145019.828000", "145019.828000", "145019.828000", "145019.828000", "145019.828000", "145019.828000", "145019.828000", "145019.843000", "145019.843000", "145019.843000", "145019.843000", "145019.843000", "145019.843000", "145019.843000", "145019.859000", "145019.859000", "145039.812000", "145039.812000", "145039.812000", "145039.812000", "145039.812000", "145039.812000", "145039.812000", "145039.812000", "145039.828000", "145039.828000", "145039.828000", "145039.828000", "145039.828000", "145039.828000", "145039.828000", "145039.828000", "145039.843000", "145039.843000", "145039.843000", "145039.843000", "145039.843000", "145039.843000", "145039.843000", "145039.843000", "145039.859000", "145039.859000", "145059.812000", "145059.812000", "145059.812000", "145059.812000", "145059.812000", "145059.812000", "145059.812000", "145059.828000", "145059.828000", "145059.828000", "145059.828000", "145059.828000", "145059.828000", "145059.843000", "145059.843000", "145059.843000", "145059.843000", "145059.843000", "145059.843000", "145059.843000", "145059.859000", "145059.859000", "145059.859000", "145059.859000", "145059.859000", "145119.812000", "145119.812000", "145119.812000", "145119.812000", "145119.812000", "145119.812000", "145119.812000", "145119.812000", "145119.828000", "145119.828000", "145119.828000", "145119.828000", "145119.828000", "145119.828000", "145119.828000", "145119.828000", "145119.843000", "145119.843000", "145119.843000", "145119.843000", "145119.843000", "145119.843000", "145119.843000", "145119.843000", "145119.859000", "145119.859000", "145139.812000", "145139.812000", "145139.812000", "145139.812000", "145139.812000", "145139.812000", "145139.812000", "145139.812000", "145139.828000", "145139.828000", "145139.828000", "145139.828000", "145139.828000", "145139.828000", "145139.828000", "145139.828000", "145139.843000", "145139.843000", "145139.843000", "145139.843000", "145139.843000", "145139.859000", "145139.859000", "145139.859000", "145139.859000", "145159.812000", "145159.812000", "145159.812000", "145159.812000", "145159.812000", "145159.812000", "145159.812000", "145159.812000", "145159.828000", "145159.828000", "145159.828000", "145159.828000", "145159.828000", "145159.828000", "145159.828000", "145159.843000", "145159.843000", "145159.843000", "145159.843000", "145159.843000", "145159.843000", "145159.843000", "145159.843000", "145159.859000", "145159.859000", "145159.859000", "145219.812000", "145219.812000", "145219.812000", "145219.812000", "145219.812000", "145219.812000", "145219.812000", "145219.812000", "145219.828000", "145219.828000", "145219.828000", "145219.828000", "145219.828000", "145219.828000", "145219.828000", "145219.828000", "145219.843000", "145219.843000", "145219.843000", "145219.843000", "145219.843000", "145219.843000", "145219.843000", "145219.843000", "145219.859000", "145239.812000", "145239.812000", "145239.812000", "145239.812000", "145239.812000", "145239.812000", "145239.812000", "145239.812000", "145239.828000", "145239.828000", "145239.828000", "145239.828000", "145239.828000", "145239.828000", "145239.828000", "145239.828000", "145239.843000", "145239.843000", "145239.843000", "145239.843000", "145239.843000", "145239.843000", "145239.843000", "145239.859000", "145239.859000", "145239.859000", "145259.812000", "145259.812000", "145259.812000", "145259.812000", "145259.812000", "145259.812000", "145259.812000", "145259.812000", "145259.828000", "145259.828000", "145259.828000", "145259.828000", "145259.828000", "145259.828000", "145259.828000", "145259.828000", "145259.843000", "145259.843000", "145259.843000", "145259.843000", "145259.843000", "145259.843000", "145259.843000", "145259.843000", "145259.859000", "145319.812000", "145319.812000", "145319.812000", "145319.812000", "145319.812000", "145319.812000", "145319.812000", "145319.812000", "145319.828000", "145319.828000", "145319.828000", "145319.828000", "145319.828000", "145319.828000", "145319.828000", "145319.843000", "145319.843000", "145319.843000", "145319.843000", "145319.843000", "145319.843000", "145319.843000", "145319.843000", "145319.859000", "145319.859000", "145319.859000", "145324.359000", "145324.359000", "145324.359000", "145324.359000", "145324.359000", "145324.359000"],
