{
  "AcquisitionMatrixPE": 104,
  "AcquisitionNumber": 1,
  "AcquisitionTime": "14:55:37.692500",
  "BandwidthPerPixelPhaseEncode": 13.935,
  "BaseResolution": 104,
  "CoilString": "C:HEA;HEP",
  "ConversionSoftware": "dcm2niix",
  "ConversionSoftwareVersion": "v1.0.20210317",
  "DerivedVendorReportedEchoSpacing": 0.000690017,
  "DeviceSerialNumber": "35450",
  "DwellTime": 2.5e-06,
  "EchoTime": 0.0348,
  "EffectiveEchoSpacing": 0.000690017,
  "FlipAngle": 55,
  "ImageComments": "Unaliased MB8/PE3 (remote)",
  "ImageOrientationPatientDICOM": [1, 0, 0, 0, 0.929133, -0.369747],
  "ImageType": [
    "ORIGINAL",
    "PRIMARY",
    "M",
    "MB",
    "ND",
    "MOSAIC"
],
  "ImagingFrequency": 123.234,
  "InPlanePhaseEncodingDirectionDICOM": "COL",
  "InstitutionAddress": "Univeristy Ave. 197,Newark,North East,US,07102-1814",
  "InstitutionName": "RUBIC",
  "InstitutionalDepartmentName": "Department",
  "MRAcquisitionType": "2D",
  "MagneticFieldStrength": 3,
  "Manufacturer": "Siemens",
  "ManufacturersModelName": "TrioTim",
  "Modality": "MR",
  "MultibandAccelerationFactor": 8,
  "PartialFourier": 0.875,
  "PatientPosition": "HFS",
  "PercentPhaseFOV": 100,
  "PercentSampling": 100,
  "PhaseEncodingDirection": "j-",
  "PhaseEncodingSteps": 91,
  "PhaseResolution": 1,
  "PixelBandwidth": 1923,
  "ProcedureStepDescription": "Cole^Michael",
  "ProtocolName": "cmrr_mbep2d_bold_2mm_MB8_Task_8x",
  "PulseSequenceDetails": "%CustomerSeq%\\cmrr_mbep2d_bold",
  "ReceiveCoilName": "32Ch_Head",
  "ReconMatrixPE": 104,
  "RepetitionTime": 0.785,
  "SAR": 0.126663,
  "ScanOptions": "PFP\\FS",
  "ScanningSequence": "EP",
  "SequenceName": "epfid2d1_104",
  "SequenceVariant": "SK\\SS",
  "SeriesDescription": "cmrr_mbep2d_bold_2mm_MB8_Task_8x",
  "SeriesNumber": 21,
  "ShimSetting": [2137, -289, -7374, 655, -182, -622, -99, -100],
  "SliceThickness": 2,
  "SliceTiming": [0, 0.4375, 0.0875, 0.525, 0.175, 0.6125, 0.2625, 0.7, 0.35, 0, 0.4375, 0.0875, 0.525, 0.175, 0.6125, 0.2625, 0.7, 0.35, 0, 0.4375, 0.0875, 0.525, 0.175, 0.6125, 0.2625, 0.7, 0.35, 0, 0.4375, 0.0875, 0.525, 0.175, 0.6125, 0.2625, 0.7, 0.35, 0, 0.4375, 0.0875, 0.525, 0.175, 0.6125, 0.2625, 0.7, 0.35, 0, 0.4375, 0.0875, 0.525, 0.175, 0.6125, 0.2625, 0.7, 0.35, 0, 0.4375, 0.0875, 0.525, 0.175, 0.6125, 0.2625, 0.7, 0.35, 0, 0.4375, 0.0875, 0.525, 0.175, 0.6125, 0.2625, 0.7, 0.35],
  "SoftwareVersions": "syngo MR B19",
  "SpacingBetweenSlices": 2,
  "StationName": "MRC35450",
  "TaskName": "cpro",
  "TotalReadoutTime": 0.0710717,
  "TxRefAmp": 444.714,
  "dcmmeta_affine": [
    [-2.0, 0.0, 0.0, 102.6440658569336],
    [0.0, 1.8582651615142822, -0.7394934892654419, -73.35933685302734],
    [0.0, 0.7394934892654419, 1.8582651615142822, -141.18328857421875],
    [0.0, 0.0, 0.0, 1.0]
],
  "dcmmeta_reorient_transform": [
    [0.0, -1.0, 0.0, 103.0],
    [1.0, 0.0, 0.0, 0.0],
    [0.0, 0.0, 1.0, 0.0],
    [0.0, 0.0, 0.0, 1.0]
],
  "dcmmeta_shape": [104, 104, 72, 581],
  "dcmmeta_slice_dim": 2,
  "dcmmeta_version": 0.6,
  "global": {
    "const": {
      "AcquisitionMatrix": [104, 0, 0, 104],
      "AngioFlag": "N",
      "BitsAllocated": 16,
      "BitsStored": 12,
      "Columns": 936,
      "EchoNumbers": 1,
      "EchoTime": 34.8,
      "EchoTrainLength": 1,
      "FlipAngle": 55.0,
      "HighBit": 11,
      "ImageOrientationPatient": [1.0, 0.0, 0.0, 0.0, 0.92913258020978, -0.3697467354727],
      "ImagePositionPatient": [-934.64406776428, -891.08027883795, 242.61382819152],
      "ImageType": [
        "ORIGINAL",
        "PRIMARY",
        "M",
        "MB",
        "ND",
        "MOSAIC"
],
      "ImagedNucleus": "1H",
      "ImagingFrequency": 123.234497,
      "InPlanePhaseEncodingDirection": "COL",
      "MRAcquisitionType": "2D",
      "MagneticFieldStrength": 3.0,
      "Manufacturer": "SIEMENS",
      "ManufacturerModelName": "TrioTim",
      "Modality": "MR",
      "NumberOfAverages": 1.0,
      "NumberOfPhaseEncodingSteps": 91,
      "PercentPhaseFieldOfView": 100.0,
      "PercentSampling": 100.0,
      "PerformedProcedureStepStartTime": "132012.640000",
      "PhotometricInterpretation": "MONOCHROME2",
      "PixelBandwidth": 1923.0,
      "PixelRepresentation": 0,
      "PixelSpacing": [2.0, 2.0],
      "ProtocolName": "cmrr_mbep2d_bold_2mm_MB8_Task_8x",
      "RepetitionTime": 785.0,
      "Rows": 936,
      "SAR": 0.12666260542807,
      "SamplesPerPixel": 1,
      "ScanOptions": [
        "PFP",
        "FS"
],
      "ScanningSequence": "EP",
      "SequenceName": "epfid2d1_104",
      "SequenceVariant": [
        "SK",
        "SS"
],
      "SeriesDescription": "cmrr_mbep2d_bold_2mm_MB8_Task_8x",
      "SeriesNumber": 21,
      "SeriesTime": "145558.484000",
      "SliceLocation": -104.05361196229,
      "SliceThickness": 2.0,
      "SmallestImagePixelValue": 0,
      "SoftwareVersions": "syngo MR B19",
      "SpacingBetweenSlices": 1.9999999715441,
      "SpecificCharacterSet": "ISO_IR 100",
      "StudyID": "1",
      "StudyTime": "132012.578000",
      "TransmitCoilName": "Body",
      "VariableFlipAngleFlag": "N",
      "WindowCenterWidthExplanation": "Algo1",
      "dBdt": 0.0},
    "slices": {}
  },
  "time": {
    "samples": {
      "AcquisitionNumber": [1, 2, 3, 4, 5, 6, 7, 8, 9, 10, 11, 12, 13, 14, 15, 16, 17, 18, 19, 20, 21, 22, 23, 24, 25, 26, 27, 28, 29, 30, 31, 32, 33, 34, 35, 36, 37, 38, 39, 40, 41, 42, 43, 44, 45, 46, 47, 48, 49, 50, 51, 52, 53, 54, 55, 56, 57, 58, 59, 60, 61, 62, 63, 64, 65, 66, 67, 68, 69, 70, 71, 72, 73, 74, 75, 76, 77, 78, 79, 80, 81, 82, 83, 84, 85, 86, 87, 88, 89, 90, 91, 92, 93, 94, 95, 96, 97, 98, 99, 100, 101, 102, 103, 104, 105, 106, 107, 108, 109, 110, 111, 112, 113, 114, 115, 116, 117, 118, 119, 120, 121, 122, 123, 124, 125, 126, 127, 128, 129, 130, 131, 132, 133, 134, 135, 136, 137, 138, 139, 140, 141, 142, 143, 144, 145, 146, 147, 148, 149, 150, 151, 152, 153, 154, 155, 156, 157, 158, 159, 160, 161, 162, 163, 164, 165, 166, 167, 168, 169, 170, 171, 172, 173, 174, 175, 176, 177, 178, 179, 180, 181, 182, 183, 184, 185, 186, 187, 188, 189, 190, 191, 192, 193, 194, 195, 196, 197, 198, 199, 200, 201, 202, 203, 204, 205, 206, 207, 208, 209, 210, 211, 212, 213, 214, 215, 216, 217, 218, 219, 220, 221, 222, 223, 224, 225, 226, 227, 228, 229, 230, 231, 232, 233, 234, 235, 236, 237, 238, 239, 240, 241, 242, 243, 244, 245, 246, 247, 248, 249, 250, 251, 252, 253, 254, 255, 256, 257, 258, 259, 260, 261, 262, 263, 264, 265, 266, 267, 268, 269, 270, 271, 272, 273, 274, 275, 276, 277, 278, 279, 280, 281, 282, 283, 284, 285, 286, 287, 288, 289, 290, 291, 292, 293, 294, 295, 296, 297, 298, 299, 300, 301, 302, 303, 304, 305, 306, 307, 308, 309, 310, 311, 312, 313, 314, 315, 316, 317, 318, 319, 320, 321, 322, 323, 324, 325, 326, 327, 328, 329, 330, 331, 332, 333, 334, 335, 336, 337, 338, 339, 340, 341, 342, 343, 344, 345, 346, 347, 348, 349, 350, 351, 352, 353, 354, 355, 356, 357, 358, 359, 360, 361, 362, 363, 364, 365, 366, 367, 368, 369, 370, 371, 372, 373, 374, 375, 376, 377, 378, 379, 380, 381, 382, 383, 384, 385, 386, 387, 388, 389, 390, 391, 392, 393, 394, 395, 396, 397, 398, 399, 400, 401, 402, 403, 404, 405, 406, 407, 408, 409, 410, 411, 412, 413, 414, 415, 416, 417, 418, 419, 420, 421, 422, 423, 424, 425, 426, 427, 428, 429, 430, 431, 432, 433, 434, 435, 436, 437, 438, 439, 440, 441, 442, 443, 444, 445, 446, 447, 448, 449, 450, 451, 452, 453, 454, 455, 456, 457, 458, 459, 460, 461, 462, 463, 464, 465, 466, 467, 468, 469, 470, 471, 472, 473, 474, 475, 476, 477, 478, 479, 480, 481, 482, 483, 484, 485, 486, 487, 488, 489, 490, 491, 492, 493, 494, 495, 496, 497, 498, 499, 500, 501, 502, 503, 504, 505, 506, 507, 508, 509, 510, 511, 512, 513, 514, 515, 516, 517, 518, 519, 520, 521, 522, 523, 524, 525, 526, 527, 528, 529, 530, 531, 532, 533, 534, 535, 536, 537, 538, 539, 540, 541, 542, 543, 544, 545, 546, 547, 548, 549, 550, 551, 552, 553, 554, 555, 556, 557, 558, 559, 560, 561, 562, 563, 564, 565, 566, 567, 568, 569, 570, 571, 572, 573, 574, 575, 576, 577, 578, 579, 580, 581],
      "AcquisitionTime": ["145537.692500", "145538.480000", "145539.270000", "145540.057500", "145540.845000", "145541.632500", "145542.422500", "145543.210000", "145543.997500", "145544.785000", "145545.575000", "145546.362500", "145547.150000", "145547.940000", "145548.727500", "145549.515000", "145550.302500", "145551.092500", "145551.880000", "145552.667500", "145553.455000", "145554.245000", "145555.032500", "145555.820000", "145556.607500", "145557.397500", "145558.185000", "145558.972500", "145559.760000", "145600.550000", "145601.337500", "145602.125000", "145602.912500", "145603.702500", "145604.490000", "145605.277500", "145606.067500", "145606.855000", "145607.642500", "145608.430000", "145609.220000", "145610.007500", "145610.795000", "145611.582500", "145612.372500", "145613.160000", "145613.947500", "145614.735000", "145615.525000", "145616.312500", "145617.100000", "145617.887500", "145618.677500", "145619.465000", "145620.252500", "145621.040000", "145621.830000", "145622.617500", "145623.405000", "145624.195000", "145624.982500", "145625.770000", "145626.557500", "145627.347500", "145628.135000", "145628.922500", "145629.710000", "145630.500000", "145631.287500", "145632.075000", "145632.862500", "145633.652500", "145634.440000", "145635.227500", "145636.015000", "145636.805000", "145637.592500", "145638.380000", "145639.167500", "145639.957500", "145640.745000", "145641.532500", "145642.322500", "145643.110000", "145643.897500", "145644.685000", "145645.475000", "145646.262500", "145647.050000", "145647.837500", "145648.627500", "145649.415000", "145650.202500", "145650.990000", "145651.780000", "145652.567500", "145653.355000", "145654.142500", "145654.932500", "145655.720000", "145656.507500", "145657.295000", "145658.085000", "145658.872500", "145659.660000", "145700.450000", "145701.237500", "145702.025000", "145702.812500", "145703.602500", "145704.390000", "145705.177500", "145705.965000", "145706.755000", "145707.542500", "145708.330000", "145709.117500", "145709.907500", "145710.695000", "145711.482500", "145712.270000", "145713.060000", "145713.847500", "145714.635000", "145715.422500", "145716.212500", "145717.000000", "145717.787500", "145718.577500", "145719.365000", "145720.152500", "145720.940000", "145721.730000", "145722.517500", "145723.305000", "145724.092500", "145724.882500", "145725.670000", "145726.457500", "145727.245000", "145728.035000", "145728.822500", "145729.610000", "145730.397500", "145731.187500", "145731.975000", "145732.762500", "145733.550000", "145734.340000", "145735.127500", "145735.915000", "145736.705000", "145737.492500", "145738.280000", "145739.067500", "145739.857500", "145740.645000", "145741.432500", "145742.220000", "145743.010000", "145743.797500", "145744.585000", "145745.372500", "145746.162500", "145746.950000", "145747.737500", "145748.525000", "145749.315000", "145750.102500", "145750.890000", "145751.677500", "145752.467500", "145753.255000", "145754.042500", "145754.832500", "145755.620000", "145756.407500", "145757.195000", "145757.985000", "145758.772500", "145759.560000", "145800.347500", "145801.137500", "145801.925000", "145802.712500", "145803.500000", "145804.290000", "145805.077500", "145805.865000", "145806.652500", "145807.442500", "145808.230000", "145809.017500", "145809.807500", "145810.595000", "145811.382500", "145812.170000", "145812.960000", "145813.747500", "145814.535000", "145815.322500", "145816.112500", "145816.900000", "145817.687500", "145818.475000", "145819.265000", "145820.052500", "145820.840000", "145821.627500", "145822.417500", "145823.205000", "145823.992500", "145824.780000", "145825.570000", "145826.357500", "145827.145000", "145827.935000", "145828.722500", "145829.510000", "145830.297500", "145831.087500", "145831.875000", "145832.662500", "145833.450000", "145834.240000", "145835.027500", "145835.815000", "145836.602500", "145837.392500", "145838.180000", "145838.967500", "145839.755000", "145840.545000", "145841.332500", "145842.120000", "145842.907500", "145843.697500", "145844.485000", "145845.272500", "145846.062500", "145846.850000", "145847.637500", "145848.425000", "145849.215000", "145850.002500", "145850.790000", "145851.577500", "145852.367500", "145853.155000", "145853.942500", "145854.730000", "145855.520000", "145856.307500", "145857.095000", "145857.882500", "145858.672500", "145859.460000", "145900.247500", "145901.035000", "145901.825000", "145902.612500", "145903.400000", "145904.190000", "145904.977500", "145905.765000", "145906.552500", "145907.342500", "145908.130000", "145908.917500", "145909.705000", "145910.495000", "145911.282500", "145912.070000", "145912.857500", "145913.647500", "145914.435000", "145915.222500", "145916.010000", "145916.800000", "145917.587500", "145918.375000", "145919.162500", "145919.952500", "145920.740000", "145921.527500", "145922.317500", "145923.105000", "145923.892500", "145924.680000", "145925.470000", "145926.257500", "145927.045000", "145927.832500", "145928.622500", "145929.410000", "145930.197500", "145930.985000", "145931.775000", "145932.562500", "145933.350000", "145934.137500", "145934.927500", "145935.715000", "145936.502500", "145937.290000", "145938.080000", "145938.867500", "145939.655000", "145940.445000", "145941.232500", "145942.020000", "145942.807500", "145943.597500", "145944.385000", "145945.172500", "145945.960000", "145946.750000", "145947.537500", "145948.325000", "145949.112500", "145949.902500", "145950.690000", "145951.477500", "145952.265000", "145953.055000", "145953.842500", "145954.630000", "145955.417500", "145956.207500", "145956.995000", "145957.782500", "145958.572500", "145959.360000", "150000.147500", "150000.935000", "150001.725000", "150002.512500", "150003.300000", "150004.087500", "150004.877500", "150005.665000", "150006.452500", "150007.240000", "150008.030000", "150008.817500", "150009.605000", "150010.392500", "150011.182500", "150011.970000", "150012.757500", "150013.545000", "150014.335000", "150015.122500", "150015.910000", "150016.700000", "150017.487500", "150018.275000", "150019.062500", "150019.852500", "150020.640000", "150021.427500", "150022.215000", "150023.005000", "150023.792500", "150024.580000", "150025.367500", "150026.157500", "150026.945000", "150027.732500", "150028.520000", "150029.310000", "150030.097500", "150030.885000", "150031.672500", "150032.462500", "150033.250000", "150034.037500", "150034.827500", "150035.615000", "150036.402500", "150037.190000", "150037.980000", "150038.767500", "150039.555000", "150040.342500", "150041.132500", "150041.920000", "150042.707500", "150043.495000", "150044.285000", "150045.072500", "150045.860000", "150046.647500", "150047.437500", "150048.225000", "150049.012500", "150049.800000", "150050.590000", "150051.377500", "150052.165000", "150052.955000", "150053.742500", "150054.530000", "150055.317500", "150056.107500", "150056.895000", "150057.682500", "150058.470000", "150059.260000", "150100.047500", "150100.835000", "150101.622500", "150102.412500", "150103.200000", "150103.987500", "150104.775000", "150105.565000", "150106.352500", "150107.140000", "150107.927500", "150108.717500", "150109.505000", "150110.292500", "150111.082500", "150111.870000", "150112.657500", "150113.445000", "150114.235000", "150115.022500", "150115.810000", "150116.597500", "150117.387500", "150118.175000", "150118.962500", "150119.750000", "150120.540000", "150121.327500", "150122.115000", "150122.902500", "150123.692500", "150124.480000", "150125.267500", "150126.057500", "150126.845000", "150127.632500", "150128.420000", "150129.210000", "150129.997500", "150130.785000", "150131.572500", "150132.362500", "150133.150000", "150133.937500", "150134.725000", "150135.515000", "150136.302500", "150137.090000", "150137.877500", "150138.667500", "150139.455000", "150140.242500", "150141.030000", "150141.820000", "150142.607500", "150143.395000", "150144.185000", "150144.972500", "150145.760000", "150146.547500", "150147.337500", "150148.125000", "150148.912500", "150149.700000", "150150.490000", "150151.277500", "150152.065000", "150152.852500", "150153.642500", "150154.430000", "150155.217500", "150156.005000", "150156.795000", "150157.582500", "150158.370000", "150159.157500", "150159.947500", "150200.735000", "150201.522500", "150202.312500", "150203.100000", "150203.887500", "150204.675000", "150205.465000", "150206.252500", "150207.040000", "150207.827500", "150208.617500", "150209.405000", "150210.192500", "150210.980000", "150211.770000", "150212.557500", "150213.345000", "150214.132500", "150214.922500", "150215.710000", "150216.497500", "150217.285000", "150218.075000", "150218.862500", "150219.650000", "150220.440000", "150221.227500", "150222.015000", "150222.802500", "150223.592500", "150224.380000", "150225.167500", "150225.955000", "150226.745000", "150227.532500", "150228.320000", "150229.107500", "150229.897500", "150230.685000", "150231.472500", "150232.260000", "150233.050000", "150233.837500", "150234.625000", "150235.412500", "150236.202500", "150236.990000", "150237.777500", "150238.567500", "150239.355000", "150240.142500", "150240.930000", "150241.720000", "150242.507500", "150243.295000", "150244.082500", "150244.872500", "150245.660000", "150246.447500", "150247.235000", "150248.025000", "150248.812500", "150249.600000", "150250.387500", "150251.177500", "150251.965000", "150252.752500", "150253.540000", "150254.330000", "150255.117500", "150255.905000", "150256.695000", "150257.482500", "150258.270000", "150259.057500", "150259.847500", "150300.635000", "150301.422500", "150302.210000", "150303.000000", "150303.787500", "150304.575000", "150305.362500", "150306.152500", "150306.940000", "150307.727500", "150308.515000", "150309.305000", "150310.092500", "150310.880000", "150311.667500", "150312.457500", "150313.245000", "150314.032500", "150314.822500"],
      "ContentTime": ["145558.484000", "145558.484000", "145558.484000", "145558.484000", "145558.484000", "145558.484000", "145558.500000", "145558.500000", "145558.500000", "145558.500000", "145558.500000", "145558.515000", "145558.515000", "145558.515000", "145558.515000", "145558.515000", "145558.515000", "145558.515000", "145558.515000", "145558.531000", "145558.531000", "145558.531000", "145558.531000", "145618.453000", "145618.453000", "145618.453000", "145618.468000", "145618.468000", "145618.468000", "145618.468000", "145618.468000", "145618.468000", "145618.484000", "145618.484000", "145618.484000", "145618.484000", "145618.484000", "145618.484000", "145618.484000", "145618.500000", "145618.500000", "145618.500000", "145618.500000", "145618.500000", "145618.500000", "145618.500000", "145618.515000", "145618.515000", "145638.453000", "145638.453000", "145638.453000", "145638.468000", "145638.468000", "145638.468000", "145638.468000", "145638.468000", "145638.468000", "145638.468000", "145638.468000", "145638.484000", "145638.484000", "145638.484000", "145638.484000", "145638.484000", "145638.484000", "145638.484000", "145638.484000", "145638.500000", "145638.500000", "145638.500000", "145638.500000", "145638.500000", "145638.515000", "145638.515000", "145658.453000", "145658.453000", "145658.453000", "145658.468000", "145658.468000", "145658.468000", "145658.468000", "145658.468000", "145658.468000", "145658.468000", "145658.468000", "145658.484000", "145658.484000", "145658.484000", "145658.484000", "145658.484000", "145658.484000", "145658.500000", "145658.500000", "145658.500000", "145658.500000", "145658.500000", "145658.500000", "145658.515000", "145658.515000", "145718.453000", "145718.453000", "145718.453000", "145718.468000", "145718.468000", "145718.468000", "145718.468000", "145718.468000", "145718.468000", "145718.468000", "145718.484000", "145718.484000", "145718.484000", "145718.484000", "145718.484000", "145718.484000", "145718.484000", "145718.500000", "145718.500000", "145718.500000", "145718.500000", "145718.500000", "145718.500000", "145718.500000", "145718.515000", "145718.515000", "145738.453000", "145738.453000", "145738.453000", "145738.468000", "145738.468000", "145738.468000", "145738.468000", "145738.468000", "145738.468000", "145738.468000", "145738.468000", "145738.484000", "145738.484000", "145738.484000", "145738.484000", "145738.484000", "145738.484000", "145738.484000", "145738.500000", "145738.500000", "145738.500000", "145738.500000", "145738.500000", "145738.500000", "145738.500000", "145758.453000", "145758.453000", "145758.453000", "145758.468000", "145758.468000", "145758.468000", "145758.468000", "145758.468000", "145758.468000", "145758.468000", "145758.484000", "145758.484000", "145758.484000", "145758.484000", "145758.484000", "145758.484000", "145758.484000", "145758.484000", "145758.500000", "145758.500000", "145758.500000", "145758.500000", "145758.500000", "145758.500000", "145758.500000", "145758.515000", "145818.453000", "145818.453000", "145818.468000", "145818.468000", "145818.468000", "145818.468000", "145818.468000", "145818.484000", "145818.484000", "145818.484000", "145818.484000", "145818.484000", "145818.484000", "145818.484000", "145818.500000", "145818.500000", "145818.500000", "145818.500000", "145818.500000", "145818.500000", "145818.500000", "145818.500000", "145818.515000", "145818.515000", "145818.515000", "145838.453000", "145838.453000", "145838.453000", "145838.468000", "145838.468000", "145838.468000", "145838.468000", "145838.468000", "145838.468000", "145838.468000", "145838.468000", "145838.484000", "145838.484000", "145838.484000", "145838.484000", "145838.484000", "145838.484000", "145838.484000", "145838.500000", "145838.500000", "145838.500000", "145838.500000", "145838.500000", "145838.500000", "145838.500000", "145838.500000", "145858.453000", "145858.453000", "145858.453000", "145858.468000", "145858.468000", "145858.468000", "145858.468000", "145858.468000", "145858.468000", "145858.468000", "145858.468000", "145858.484000", "145858.484000", "145858.484000", "145858.484000", "145858.484000", "145858.484000", "145858.484000", "145858.500000", "145858.500000", "145858.500000", "145858.500000", "145858.500000", "145858.500000", "145858.500000", "145918.453000", "145918.453000", "145918.453000", "145918.468000", "145918.468000", "145918.468000", "145918.468000", "145918.468000", "145918.484000", "145918.484000", "145918.484000", "145918.484000", "145918.484000", "145918.484000", "145918.484000", "145918.484000", "145918.500000", "145918.500000", "145918.500000", "145918.500000", "145918.500000", "145918.500000", "145918.515000", "145918.515000", "145918.515000", "145918.515000", "145938.453000", "145938.453000", "145938.453000", "145938.468000", "145938.468000", "145938.468000", "145938.468000", "145938.468000", "145938.468000", "145938.468000", "145938.484000", "145938.484000", "145938.484000", "145938.484000", "145938.484000", "145938.484000", "145938.484000", "145938.484000", "145938.500000", "145938.500000", "145938.500000", "145938.500000", "145938.500000", "145938.500000", "145938.500000", "145958.453000", "145958.453000", "145958.453000", "145958.468000", "145958.468000", "145958.468000", "145958.468000", "145958.468000", "145958.468000", "145958.468000", "145958.468000", "145958.484000", "145958.484000", "145958.484000", "145958.484000", "145958.484000", "145958.484000", "145958.484000", "145958.500000", "145958.500000", "145958.500000", "145958.500000", "145958.500000", "145958.500000", "145958.500000", "145958.500000", "150018.453000", "150018.453000", "150018.453000", "150018.468000", "150018.468000", "150018.468000", "150018.468000", "150018.468000", "150018.468000", "150018.468000", "150018.484000", "150018.484000", "150018.484000", "150018.484000", "150018.484000", "150018.484000", "150018.484000", "150018.484000", "150018.500000", "150018.500000", "150018.500000", "150018.500000", "150018.500000", "150018.500000", "150018.500000", "150038.453000", "150038.453000", "150038.453000", "150038.468000", "150038.468000", "150038.468000", "150038.468000", "150038.468000", "150038.468000", "150038.468000", "150038.468000", "150038.484000", "150038.484000", "150038.484000", "150038.484000", "150038.484000", "150038.484000", "150038.484000", "150038.500000", "150038.500000", "150038.500000", "150038.500000", "150038.500000", "150038.500000", "150038.500000", "150038.515000", "150058.453000", "150058.453000", "150058.453000", "150058.468000", "150058.468000", "150058.468000", "150058.468000", "150058.468000", "150058.468000", "150058.468000", "150058.468000", "150058.484000", "150058.484000", "150058.484000", "150058.484000", "150058.484000", "150058.484000", "150058.484000", "150058.500000", "150058.500000", "150058.500000", "150058.500000", "150058.500000", "150058.500000", "150058.515000", "150118.453000", "150118.453000", "150118.453000", "150118.468000", "150118.468000", "150118.468000", "150118.468000", "150118.468000", "150118.468000", "150118.468000", "150118.484000", "150118.484000", "150118.484000", "150118.484000", "150118.484000", "150118.500000", "150118.500000", "150118.500000", "150118.500000", "150118.500000", "150118.500000", "150118.500000", "150118.500000", "150118.515000", "150118.515000", "150118.515000", "150138.453000", "150138.453000", "150138.453000", "150138.468000", "150138.468000", "150138.468000", "150138.468000", "150138.468000", "150138.468000", "150138.468000", "150138.484000", "150138.484000", "150138.484000", "150138.484000", "150138.484000", "150138.484000", "150138.484000", "150138.500000", "150138.500000", "150138.500000", "150138.500000", "150138.500000", "150138.500000", "150138.500000", "150138.515000", "150158.453000", "150158.453000", "150158.453000", "150158.468000", "150158.468000", "150158.468000", "150158.468000", "150158.468000", "150158.468000", "150158.468000", "150158.468000", "150158.484000", "150158.484000", "150158.484000", "150158.484000", "150158.484000", "150158.484000", "150158.484000", "150158.500000", "150158.500000", "150158.500000", "150158.500000", "150158.500000", "150158.500000", "150158.500000", "150158.515000", "150218.453000", "150218.453000", "150218.453000", "150218.468000", "150218.468000", "150218.468000", "150218.468000", "150218.468000", "150218.468000", "150218.468000", "150218.484000", "150218.484000", "150218.484000", "150218.484000", "150218.484000", "150218.484000", "150218.484000", "150218.484000", "150218.500000", "150218.500000", "150218.500000", "150218.500000", "150218.500000", "150218.500000", "150218.500000", "150238.453000", "150238.453000", "150238.453000", "150238.468000", "150238.468000", "150238.468000", "150238.468000", "150238.468000", "150238.468000", "150238.484000", "150238.484000", "150238.484000", "150238.484000", "150238.484000", "150238.484000", "150238.484000", "150238.484000", "150238.500000", "150238.500000", "150238.500000", "150238.500000", "150238.500000", "150238.500000", "150238.500000", "150238.515000", "150258.453000", "150258.453000", "150258.453000", "150258.468000", "150258.468000", "150258.468000", "150258.468000", "150258.468000", "150258.468000", "150258.468000", "150258.468000", "150258.484000", "150258.484000", "150258.484000", "150258.484000", "150258.484000", "150258.484000", "150258.484000", "150258.500000", "150258.500000", "150258.500000", "150258.500000", "150258.500000", "150258.500000", "150258.500000", "150258.515000", "150316.218000", "150316.218000", "150316.218000", "150316.218000", "150316.234000", "150316.234000", "150316.234000", "150316.234000", "150316.234000", "150316.250000", "150316.250000", "150316.250000", "150316.250000", "150316.250000", "150316.250000", "150316.250000", "150316.265000", "150316.265000", "150316.265000", "150316.265000", "150316.265000", "150316.265000", "150316.265000"],
