{
  "AcquisitionMatrixPE": 104,
  "AcquisitionNumber": 1,
  "AcquisitionTime": "15:06:2.902500",
  "BandwidthPerPixelPhaseEncode": 13.935,
  "BaseResolution": 104,
  "CoilString": "C:HEA;HEP",
  "ConversionSoftware": "dcm2niix",
  "ConversionSoftwareVersion": "v1.0.20210317",
  "DerivedVendorReportedEchoSpacing": 0.000690017,
  "DeviceSerialNumber": "35450",
  "DwellTime": 2.5e-06,
  "EchoTime": 0.0348,
  "EffectiveEchoSpacing": 0.000690017,
  "FlipAngle": 55,
  "ImageComments": "Unaliased MB8/PE3 (remote)",
  "ImageOrientationPatientDICOM": [0.999935, -0.0012935, -0.0113533, -8.93079e-09, 0.993572, -0.1132],
  "ImageType": [
    "ORIGINAL",
    "PRIMARY",
    "M",
    "MB",
    "ND",
    "MOSAIC"
],
  "ImagingFrequency": 123.235,
  "InPlanePhaseEncodingDirectionDICOM": "COL",
  "InstitutionAddress": "Univeristy Ave. 197,Newark,North East,US,07102-1814",
  "InstitutionName": "RUBIC",
  "InstitutionalDepartmentName": "Department",
  "MRAcquisitionType": "2D",
  "MagneticFieldStrength": 3,
  "Manufacturer": "Siemens",
  "ManufacturersModelName": "TrioTim",
  "Modality": "MR",
  "MultibandAccelerationFactor": 8,
  "PartialFourier": 0.875,
  "PatientPosition": "HFS",
  "PercentPhaseFOV": 100,
  "PercentSampling": 100,
  "PhaseEncodingDirection": "j-",
  "PhaseEncodingSteps": 91,
  "PhaseResolution": 1,
  "PixelBandwidth": 1923,
  "ProcedureStepDescription": "Cole^Michael",
  "ProtocolName": "cmrr_mbep2d_bold_2mm_MB8_Task_8x",
  "PulseSequenceDetails": "%CustomerSeq%\\cmrr_mbep2d_bold",
  "ReceiveCoilName": "32Ch_Head",
  "ReconMatrixPE": 104,
  "RepetitionTime": 0.785,
  "SAR": 0.16522,
  "ScanOptions": "PFP\\FS",
  "ScanningSequence": "EP",
  "SequenceName": "epfid2d1_104",
  "SequenceVariant": "SK\\SS",
  "SeriesDescription": "cmrr_mbep2d_bold_2mm_MB8_Task_8x",
  "SeriesNumber": 13,
  "ShimSetting": [2089, -434, -7278, 644, -91, -205, -7, -64],
  "SliceThickness": 2,
  "SliceTiming": [0, 0.44, 0.0875, 0.5275, 0.175, 0.615, 0.265, 0.7025, 0.3525, 0, 0.44, 0.0875, 0.5275, 0.175, 0.615, 0.265, 0.7025, 0.3525, 0, 0.44, 0.0875, 0.5275, 0.175, 0.615, 0.265, 0.7025, 0.3525, 0, 0.44, 0.0875, 0.5275, 0.175, 0.615, 0.265, 0.7025, 0.3525, 0, 0.44, 0.0875, 0.5275, 0.175, 0.615, 0.265, 0.7025, 0.3525, 0, 0.44, 0.0875, 0.5275, 0.175, 0.615, 0.265, 0.7025, 0.3525, 0, 0.44, 0.0875, 0.5275, 0.175, 0.615, 0.265, 0.7025, 0.3525, 0, 0.44, 0.0875, 0.5275, 0.175, 0.615, 0.265, 0.7025, 0.3525],
  "SoftwareVersions": "syngo MR B19",
  "SpacingBetweenSlices": 2,
  "StationName": "MRC35450",
  "TaskName": "cpro",
  "TotalReadoutTime": 0.0710717,
  "TxRefAmp": 341.118,
  "dcmmeta_affine": [
    [-1.999869465827942, -1.786158954075745e-08, -0.022853493690490723, 106.18873596191406],
    [0.0025869966484606266, 1.9871444702148438, -0.22638513147830963, -77.83424377441406],
    [-0.02270659990608692, 0.22639989852905273, 1.9870147705078125, -112.12376403808594],
    [0.0, 0.0, 0.0, 1.0]
],
  "dcmmeta_reorient_transform": [
    [0.0, -1.0, 0.0, 103.0],
    [1.0, 0.0, 0.0, 0.0],
    [0.0, 0.0, 1.0, 0.0],
    [0.0, 0.0, 0.0, 1.0]
],
  "dcmmeta_shape": [104, 104, 72, 581],
  "dcmmeta_slice_dim": 2,
  "dcmmeta_version": 0.6,
  "global": {
    "const": {
      "AcquisitionMatrix": [104, 0, 0, 104],
      "AngioFlag": "N",
      "BitsAllocated": 16,
      "BitsStored": 12,
      "Columns": 936,
      "EchoNumbers": 1,
      "EchoTime": 34.8,
      "EchoTrainLength": 1,
      "FlipAngle": 55.0,
      "HighBit": 11,
      "ImageOrientationPatient": [0.9999347125934, -0.0012934983654, -0.0113532996412, -8.930795e-09, 0.99357222722644, -0.1131999526691],
      "ImagePositionPatient": [-938.13441018176, -952.41753781221, 14.823734116093],
      "ImageType": [
        "ORIGINAL",
        "PRIMARY",
        "M",
        "MB",
        "ND",
        "MOSAIC"
],
      "ImagedNucleus": "1H",
      "ImagingFrequency": 123.234521,
      "InPlanePhaseEncodingDirection": "COL",
      "MRAcquisitionType": "2D",
      "MagneticFieldStrength": 3.0,
      "Manufacturer": "SIEMENS",
      "ManufacturerModelName": "TrioTim",
      "Modality": "MR",
      "NumberOfAverages": 1.0,
      "NumberOfPhaseEncodingSteps": 91,
      "PercentPhaseFieldOfView": 100.0,
      "PercentSampling": 100.0,
      "PerformedProcedureStepStartTime": "135217.078000",
      "PhotometricInterpretation": "MONOCHROME2",
      "PixelBandwidth": 1923.0,
      "PixelRepresentation": 0,
      "PixelSpacing": [2.0, 2.0],
      "ProtocolName": "cmrr_mbep2d_bold_2mm_MB8_Task_8x",
      "RepetitionTime": 785.0,
      "Rows": 936,
      "SAR": 0.16522018321332,
      "SamplesPerPixel": 1,
      "ScanOptions": [
        "PFP",
        "FS"
],
      "ScanningSequence": "EP",
      "SequenceName": "epfid2d1_104",
      "SequenceVariant": [
        "SK",
        "SS"
],
      "SeriesDescription": "cmrr_mbep2d_bold_2mm_MB8_Task_8x",
      "SeriesNumber": 13,
      "SeriesTime": "150638.625000",
      "SliceLocation": -103.79891719905,
      "SliceThickness": 2.0,
      "SmallestImagePixelValue": 0,
      "SoftwareVersions": "syngo MR B19",
      "SpacingBetweenSlices": 1.9999999969701,
      "SpecificCharacterSet": "ISO_IR 100",
      "StudyID": "1",
      "StudyTime": "135217.031000",
      "TransmitCoilName": "Body",
      "VariableFlipAngleFlag": "N",
      "WindowCenterWidthExplanation": "Algo1",
      "dBdt": 0.0},
    "slices": {}
  },
  "time": {
    "samples": {
      "AcquisitionNumber": [1, 2, 3, 4, 5, 6, 7, 8, 9, 10, 11, 12, 13, 14, 15, 16, 17, 18, 19, 20, 21, 22, 23, 24, 25, 26, 27, 28, 29, 30, 31, 32, 33, 34, 35, 36, 37, 38, 39, 40, 41, 42, 43, 44, 45, 46, 47, 48, 49, 50, 51, 52, 53, 54, 55, 56, 57, 58, 59, 60, 61, 62, 63, 64, 65, 66, 67, 68, 69, 70, 71, 72, 73, 74, 75, 76, 77, 78, 79, 80, 81, 82, 83, 84, 85, 86, 87, 88, 89, 90, 91, 92, 93, 94, 95, 96, 97, 98, 99, 100, 101, 102, 103, 104, 105, 106, 107, 108, 109, 110, 111, 112, 113, 114, 115, 116, 117, 118, 119, 120, 121, 122, 123, 124, 125, 126, 127, 128, 129, 130, 131, 132, 133, 134, 135, 136, 137, 138, 139, 140, 141, 142, 143, 144, 145, 146, 147, 148, 149, 150, 151, 152, 153, 154, 155, 156, 157, 158, 159, 160, 161, 162, 163, 164, 165, 166, 167, 168, 169, 170, 171, 172, 173, 174, 175, 176, 177, 178, 179, 180, 181, 182, 183, 184, 185, 186, 187, 188, 189, 190, 191, 192, 193, 194, 195, 196, 197, 198, 199, 200, 201, 202, 203, 204, 205, 206, 207, 208, 209, 210, 211, 212, 213, 214, 215, 216, 217, 218, 219, 220, 221, 222, 223, 224, 225, 226, 227, 228, 229, 230, 231, 232, 233, 234, 235, 236, 237, 238, 239, 240, 241, 242, 243, 244, 245, 246, 247, 248, 249, 250, 251, 252, 253, 254, 255, 256, 257, 258, 259, 260, 261, 262, 263, 264, 265, 266, 267, 268, 269, 270, 271, 272, 273, 274, 275, 276, 277, 278, 279, 280, 281, 282, 283, 284, 285, 286, 287, 288, 289, 290, 291, 292, 293, 294, 295, 296, 297, 298, 299, 300, 301, 302, 303, 304, 305, 306, 307, 308, 309, 310, 311, 312, 313, 314, 315, 316, 317, 318, 319, 320, 321, 322, 323, 324, 325, 326, 327, 328, 329, 330, 331, 332, 333, 334, 335, 336, 337, 338, 339, 340, 341, 342, 343, 344, 345, 346, 347, 348, 349, 350, 351, 352, 353, 354, 355, 356, 357, 358, 359, 360, 361, 362, 363, 364, 365, 366, 367, 368, 369, 370, 371, 372, 373, 374, 375, 376, 377, 378, 379, 380, 381, 382, 383, 384, 385, 386, 387, 388, 389, 390, 391, 392, 393, 394, 395, 396, 397, 398, 399, 400, 401, 402, 403, 404, 405, 406, 407, 408, 409, 410, 411, 412, 413, 414, 415, 416, 417, 418, 419, 420, 421, 422, 423, 424, 425, 426, 427, 428, 429, 430, 431, 432, 433, 434, 435, 436, 437, 438, 439, 440, 441, 442, 443, 444, 445, 446, 447, 448, 449, 450, 451, 452, 453, 454, 455, 456, 457, 458, 459, 460, 461, 462, 463, 464, 465, 466, 467, 468, 469, 470, 471, 472, 473, 474, 475, 476, 477, 478, 479, 480, 481, 482, 483, 484, 485, 486, 487, 488, 489, 490, 491, 492, 493, 494, 495, 496, 497, 498, 499, 500, 501, 502, 503, 504, 505, 506, 507, 508, 509, 510, 511, 512, 513, 514, 515, 516, 517, 518, 519, 520, 521, 522, 523, 524, 525, 526, 527, 528, 529, 530, 531, 532, 533, 534, 535, 536, 537, 538, 539, 540, 541, 542, 543, 544, 545, 546, 547, 548, 549, 550, 551, 552, 553, 554, 555, 556, 557, 558, 559, 560, 561, 562, 563, 564, 565, 566, 567, 568, 569, 570, 571, 572, 573, 574, 575, 576, 577, 578, 579, 580, 581],
      "AcquisitionTime": ["150602.902500", "150603.692500", "150604.480000", "150605.267500", "150606.057500", "150606.845000", "150607.632500", "150608.420000", "150609.210000", "150609.997500", "150610.785000", "150611.572500", "150612.362500", "150613.150000", "150613.937500", "150614.725000", "150615.515000", "150616.302500", "150617.090000", "150617.877500", "150618.667500", "150619.455000", "150620.242500", "150621.030000", "150621.820000", "150622.607500", "150623.395000", "150624.185000", "150624.972500", "150625.760000", "150626.547500", "150627.337500", "150628.125000", "150628.912500", "150629.700000", "150630.490000", "150631.277500", "150632.065000", "150632.852500", "150633.642500", "150634.430000", "150635.217500", "150636.005000", "150636.795000", "150637.582500", "150638.370000", "150639.157500", "150639.947500", "150640.735000", "150641.522500", "150642.312500", "150643.100000", "150643.887500", "150644.675000", "150645.465000", "150646.252500", "150647.040000", "150647.827500", "150648.617500", "150649.405000", "150650.192500", "150650.980000", "150651.770000", "150652.557500", "150653.345000", "150654.132500", "150654.922500", "150655.710000", "150656.497500", "150657.285000", "150658.075000", "150658.862500", "150659.650000", "150700.440000", "150701.227500", "150702.015000", "150702.802500", "150703.592500", "150704.380000", "150705.167500", "150705.955000", "150706.745000", "150707.532500", "150708.320000", "150709.107500", "150709.897500", "150710.685000", "150711.472500", "150712.260000", "150713.050000", "150713.837500", "150714.625000", "150715.412500", "150716.202500", "150716.990000", "150717.777500", "150718.567500", "150719.355000", "150720.142500", "150720.930000", "150721.720000", "150722.507500", "150723.295000", "150724.082500", "150724.872500", "150725.660000", "150726.447500", "150727.235000", "150728.025000", "150728.812500", "150729.600000", "150730.387500", "150731.177500", "150731.965000", "150732.752500", "150733.540000", "150734.330000", "150735.117500", "150735.905000", "150736.695000", "150737.482500", "150738.270000", "150739.057500", "150739.847500", "150740.635000", "150741.422500", "150742.210000", "150743.000000", "150743.787500", "150744.575000", "150745.362500", "150746.152500", "150746.940000", "150747.727500", "150748.515000", "150749.305000", "150750.092500", "150750.880000", "150751.667500", "150752.457500", "150753.245000", "150754.032500", "150754.822500", "150755.610000", "150756.397500", "150757.185000", "150757.975000", "150758.762500", "150759.550000", "150800.337500", "150801.127500", "150801.915000", "150802.702500", "150803.490000", "150804.280000", "150805.067500", "150805.855000", "150806.642500", "150807.432500", "150808.220000", "150809.007500", "150809.795000", "150810.585000", "150811.372500", "150812.160000", "150812.950000", "150813.737500", "150814.525000", "150815.312500", "150816.102500", "150816.890000", "150817.677500", "150818.465000", "150819.255000", "150820.042500", "150820.830000", "150821.617500", "150822.407500", "150823.195000", "150823.982500", "150824.770000", "150825.560000", "150826.347500", "150827.135000", "150827.925000", "150828.712500", "150829.500000", "150830.287500", "150831.077500", "150831.865000", "150832.652500", "150833.440000", "150834.230000", "150835.017500", "150835.805000", "150836.592500", "150837.382500", "150838.170000", "150838.957500", "150839.745000", "150840.535000", "150841.322500", "150842.110000", "150842.897500", "150843.687500", "150844.475000", "150845.262500", "150846.052500", "150846.840000", "150847.627500", "150848.415000", "150849.205000", "150849.992500", "150850.780000", "150851.567500", "150852.357500", "150853.145000", "150853.932500", "150854.720000", "150855.510000", "150856.297500", "150857.085000", "150857.872500", "150858.662500", "150859.450000", "150900.237500", "150901.025000", "150901.815000", "150902.602500", "150903.390000", "150904.180000", "150904.967500", "150905.755000", "150906.542500", "150907.332500", "150908.120000", "150908.907500", "150909.695000", "150910.485000", "150911.272500", "150912.060000", "150912.847500", "150913.637500", "150914.425000", "150915.212500", "150916.000000", "150916.790000", "150917.577500", "150918.365000", "150919.152500", "150919.942500", "150920.730000", "150921.517500", "150922.307500", "150923.095000", "150923.882500", "150924.670000", "150925.460000", "150926.247500", "150927.035000", "150927.822500", "150928.612500", "150929.400000", "150930.187500", "150930.975000", "150931.765000", "150932.552500", "150933.340000", "150934.127500", "150934.917500", "150935.705000", "150936.492500", "150937.280000", "150938.070000", "150938.857500", "150939.645000", "150940.435000", "150941.222500", "150942.010000", "150942.797500", "150943.587500", "150944.375000", "150945.162500", "150945.950000", "150946.740000", "150947.527500", "150948.315000", "150949.102500", "150949.892500", "150950.680000", "150951.467500", "150952.255000", "150953.045000", "150953.832500", "150954.620000", "150955.407500", "150956.197500", "150956.985000", "150957.772500", "150958.562500", "150959.350000", "151000.137500", "151000.925000", "151001.715000", "151002.502500", "151003.290000", "151004.077500", "151004.867500", "151005.655000", "151006.442500", "151007.230000", "151008.020000", "151008.807500", "151009.595000", "151010.382500", "151011.172500", "151011.960000", "151012.747500", "151013.535000", "151014.325000", "151015.112500", "151015.900000", "151016.690000", "151017.477500", "151018.265000", "151019.052500", "151019.842500", "151020.630000", "151021.417500", "151022.205000", "151022.995000", "151023.782500", "151024.570000", "151025.357500", "151026.147500", "151026.935000", "151027.722500", "151028.510000", "151029.300000", "151030.087500", "151030.875000", "151031.662500", "151032.452500", "151033.240000", "151034.027500", "151034.817500", "151035.605000", "151036.392500", "151037.180000", "151037.970000", "151038.757500", "151039.545000", "151040.332500", "151041.122500", "151041.910000", "151042.697500", "151043.485000", "151044.275000", "151045.062500", "151045.850000", "151046.637500", "151047.427500", "151048.215000", "151049.002500", "151049.790000", "151050.580000", "151051.367500", "151052.155000", "151052.945000", "151053.732500", "151054.520000", "151055.307500", "151056.097500", "151056.885000", "151057.672500", "151058.460000", "151059.250000", "151100.037500", "151100.825000", "151101.612500", "151102.402500", "151103.190000", "151103.977500", "151104.765000", "151105.555000", "151106.342500", "151107.130000", "151107.917500", "151108.707500", "151109.495000", "151110.282500", "151111.072500", "151111.860000", "151112.647500", "151113.435000", "151114.225000", "151115.012500", "151115.800000", "151116.587500", "151117.377500", "151118.165000", "151118.952500", "151119.740000", "151120.530000", "151121.317500", "151122.105000", "151122.892500", "151123.682500", "151124.470000", "151125.257500", "151126.045000", "151126.835000", "151127.622500", "151128.410000", "151129.200000", "151129.987500", "151130.775000", "151131.562500", "151132.352500", "151133.140000", "151133.927500", "151134.715000", "151135.505000", "151136.292500", "151137.080000", "151137.867500", "151138.657500", "151139.445000", "151140.232500", "151141.020000", "151141.810000", "151142.597500", "151143.385000", "151144.175000", "151144.962500", "151145.750000", "151146.537500", "151147.327500", "151148.115000", "151148.902500", "151149.690000", "151150.480000", "151151.267500", "151152.055000", "151152.842500", "151153.632500", "151154.420000", "151155.207500", "151155.995000", "151156.785000", "151157.572500", "151158.360000", "151159.147500", "151159.937500", "151200.725000", "151201.512500", "151202.302500", "151203.090000", "151203.877500", "151204.665000", "151205.455000", "151206.242500", "151207.030000", "151207.817500", "151208.607500", "151209.395000", "151210.182500", "151210.970000", "151211.760000", "151212.547500", "151213.335000", "151214.122500", "151214.912500", "151215.700000", "151216.487500", "151217.275000", "151218.065000", "151218.852500", "151219.640000", "151220.430000", "151221.217500", "151222.005000", "151222.792500", "151223.582500", "151224.370000", "151225.157500", "151225.945000", "151226.735000", "151227.522500", "151228.310000", "151229.097500", "151229.887500", "151230.675000", "151231.462500", "151232.250000", "151233.040000", "151233.827500", "151234.615000", "151235.402500", "151236.192500", "151236.980000", "151237.767500", "151238.557500", "151239.345000", "151240.132500", "151240.920000", "151241.710000", "151242.497500", "151243.285000", "151244.072500", "151244.862500", "151245.650000", "151246.437500", "151247.225000", "151248.015000", "151248.802500", "151249.590000", "151250.377500", "151251.167500", "151251.955000", "151252.742500", "151253.530000", "151254.320000", "151255.107500", "151255.895000", "151256.685000", "151257.472500", "151258.260000", "151259.047500", "151259.837500", "151300.625000", "151301.412500", "151302.200000", "151302.990000", "151303.777500", "151304.565000", "151305.352500", "151306.142500", "151306.930000", "151307.717500", "151308.505000", "151309.295000", "151310.082500", "151310.870000", "151311.657500", "151312.447500", "151313.235000", "151314.022500", "151314.812500", "151315.600000", "151316.387500", "151317.175000", "151317.965000", "151318.752500", "151319.540000", "151320.327500", "151321.117500", "151321.905000", "151322.692500", "151323.480000", "151324.270000", "151325.057500", "151325.845000", "151326.632500", "151327.422500", "151328.210000", "151328.997500", "151329.785000", "151330.575000", "151331.362500", "151332.150000", "151332.940000", "151333.727500", "151334.515000", "151335.302500", "151336.092500", "151336.880000", "151337.667500", "151338.455000", "151339.245000", "151340.032500"],
      "ContentTime": ["150638.625000", "150638.625000", "150638.640000", "150638.640000", "150638.640000", "150638.640000", "150638.640000", "150638.640000", "150638.640000", "150638.640000", "150638.656000", "150638.656000", "150638.656000", "150638.656000", "150638.671000", "150638.671000", "150638.671000", "150638.671000", "150638.687000", "150638.687000", "150638.687000", "150638.687000", "150638.687000", "150638.703000", "150638.703000", "150638.703000", "150638.703000", "150638.718000", "150638.718000", "150638.718000", "150638.718000", "150638.718000", "150638.718000", "150638.718000", "150638.718000", "150638.734000", "150638.734000", "150638.734000", "150638.734000", "150638.734000", "150638.734000", "150638.734000", "150638.750000", "150658.609000", "150658.609000", "150658.609000", "150658.609000", "150658.609000", "150658.625000", "150658.625000", "150658.625000", "150658.625000", "150658.625000", "150658.625000", "150658.625000", "150658.625000", "150658.640000", "150658.640000", "150658.640000", "150658.640000", "150658.640000", "150658.640000", "150658.640000", "150658.656000", "150658.656000", "150658.656000", "150658.656000", "150658.656000", "150658.656000", "150718.609000", "150718.609000", "150718.609000", "150718.609000", "150718.609000", "150718.625000", "150718.625000", "150718.625000", "150718.625000", "150718.625000", "150718.625000", "150718.625000", "150718.625000", "150718.640000", "150718.640000", "150718.640000", "150718.640000", "150718.656000", "150718.656000", "150718.656000", "150718.656000", "150718.656000", "150718.671000", "150718.671000", "150718.671000", "150738.609000", "150738.609000", "150738.609000", "150738.609000", "150738.609000", "150738.625000", "150738.625000", "150738.625000", "150738.625000", "150738.625000", "150738.625000", "150738.625000", "150738.625000", "150738.640000", "150738.640000", "150738.640000", "150738.640000", "150738.640000", "150738.640000", "150738.640000", "150738.640000", "150738.656000", "150738.656000", "150738.656000", "150738.656000", "150738.656000", "150758.609000", "150758.609000", "150758.609000", "150758.609000", "150758.609000", "150758.625000", "150758.625000", "150758.625000", "150758.625000", "150758.625000", "150758.625000", "150758.625000", "150758.625000", "150758.640000", "150758.640000", "150758.640000", "150758.640000", "150758.640000", "150758.640000", "150758.640000", "150758.656000", "150758.656000", "150758.656000", "150758.656000", "150758.656000", "150818.609000", "150818.609000", "150818.609000", "150818.609000", "150818.609000", "150818.625000", "150818.625000", "150818.625000", "150818.625000", "150818.625000", "150818.625000", "150818.625000", "150818.625000", "150818.640000", "150818.640000", "150818.640000", "150818.640000", "150818.640000", "150818.640000", "150818.640000", "150818.640000", "150818.656000", "150818.656000", "150818.656000", "150818.656000", "150818.671000", "150838.609000", "150838.609000", "150838.609000", "150838.625000", "150838.625000", "150838.625000", "150838.625000", "150838.625000", "150838.625000", "150838.625000", "150838.640000", "150838.640000", "150838.640000", "150838.640000", "150838.640000", "150838.640000", "150838.640000", "150838.640000", "150838.656000", "150838.656000", "150838.656000", "150838.656000", "150838.656000", "150838.656000", "150838.656000", "150858.609000", "150858.609000", "150858.609000", "150858.609000", "150858.609000", "150858.625000", "150858.625000", "150858.625000", "150858.625000", "150858.625000", "150858.625000", "150858.625000", "150858.625000", "150858.640000", "150858.640000", "150858.640000", "150858.640000", "150858.640000", "150858.640000", "150858.640000", "150858.656000", "150858.656000", "150858.656000", "150858.656000", "150858.656000", "150858.656000", "150918.609000", "150918.609000", "150918.609000", "150918.609000", "150918.609000", "150918.625000", "150918.625000", "150918.625000", "150918.625000", "150918.625000", "150918.625000", "150918.625000", "150918.640000", "150918.640000", "150918.640000", "150918.640000", "150918.640000", "150918.640000", "150918.640000", "150918.656000", "150918.656000", "150918.656000", "150918.656000", "150918.656000", "150918.656000", "150938.609000", "150938.609000", "150938.609000", "150938.609000", "150938.609000", "150938.625000", "150938.625000", "150938.625000", "150938.625000", "150938.625000", "150938.625000", "150938.625000", "150938.625000", "150938.640000", "150938.640000", "150938.640000", "150938.640000", "150938.640000", "150938.640000", "150938.640000", "150938.656000", "150938.656000", "150938.656000", "150938.656000", "150938.656000", "150938.656000", "150958.609000", "150958.609000", "150958.609000", "150958.609000", "150958.609000", "150958.625000", "150958.625000", "150958.625000", "150958.625000", "150958.625000", "150958.625000", "150958.625000", "150958.625000", "150958.640000", "150958.640000", "150958.640000", "150958.640000", "150958.640000", "150958.640000", "150958.640000", "150958.656000", "150958.656000", "150958.656000", "150958.656000", "150958.656000", "151018.609000", "151018.609000", "151018.609000", "151018.609000", "151018.609000", "151018.625000", "151018.625000", "151018.625000", "151018.625000", "151018.625000", "151018.625000", "151018.625000", "151018.625000", "151018.640000", "151018.640000", "151018.640000", "151018.640000", "151018.640000", "151018.640000", "151018.640000", "151018.656000", "151018.656000", "151018.656000", "151018.656000", "151018.656000", "151018.656000", "151038.609000", "151038.609000", "151038.609000", "151038.609000", "151038.609000", "151038.625000", "151038.625000", "151038.625000", "151038.625000", "151038.625000", "151038.625000", "151038.625000", "151038.625000", "151038.640000", "151038.640000", "151038.640000", "151038.640000", "151038.640000", "151038.640000", "151038.640000", "151038.656000", "151038.656000", "151038.656000", "151038.656000", "151038.656000", "151058.609000", "151058.609000", "151058.609000", "151058.609000", "151058.609000", "151058.625000", "151058.625000", "151058.625000", "151058.625000", "151058.625000", "151058.625000", "151058.625000", "151058.625000", "151058.640000", "151058.640000", "151058.640000", "151058.640000", "151058.640000", "151058.656000", "151058.656000", "151058.656000", "151058.656000", "151058.656000", "151058.656000", "151058.656000", "151058.671000", "151118.609000", "151118.609000", "151118.609000", "151118.609000", "151118.609000", "151118.625000", "151118.625000", "151118.625000", "151118.625000", "151118.625000", "151118.625000", "151118.625000", "151118.640000", "151118.640000", "151118.640000", "151118.640000", "151118.640000", "151118.640000", "151118.640000", "151118.640000", "151118.656000", "151118.656000", "151118.656000", "151118.656000", "151118.656000", "151138.609000", "151138.609000", "151138.609000", "151138.609000", "151138.609000", "151138.625000", "151138.625000", "151138.625000", "151138.625000", "151138.625000", "151138.625000", "151138.625000", "151138.640000", "151138.640000", "151138.640000", "151138.640000", "151138.640000", "151138.640000", "151138.640000", "151138.640000", "151138.656000", "151138.656000", "151138.656000", "151138.656000", "151138.656000", "151138.656000", "151158.609000", "151158.609000", "151158.609000", "151158.609000", "151158.609000", "151158.625000", "151158.625000", "151158.625000", "151158.625000", "151158.625000", "151158.625000", "151158.625000", "151158.625000", "151158.640000", "151158.640000", "151158.640000", "151158.640000", "151158.640000", "151158.640000", "151158.640000", "151158.656000", "151158.656000", "151158.656000", "151158.656000", "151158.656000", "151218.609000", "151218.609000", "151218.609000", "151218.609000", "151218.609000", "151218.625000", "151218.625000", "151218.625000", "151218.625000", "151218.625000", "151218.625000", "151218.625000", "151218.625000", "151218.640000", "151218.640000", "151218.640000", "151218.640000", "151218.640000", "151218.640000", "151218.640000", "151218.656000", "151218.656000", "151218.656000", "151218.656000", "151218.656000", "151218.656000", "151238.609000", "151238.609000", "151238.609000", "151238.609000", "151238.609000", "151238.625000", "151238.625000", "151238.625000", "151238.625000", "151238.625000", "151238.625000", "151238.625000", "151238.625000", "151238.640000", "151238.640000", "151238.640000", "151238.640000", "151238.640000", "151238.640000", "151238.640000", "151238.656000", "151238.656000", "151238.656000", "151238.656000", "151238.656000", "151258.609000", "151258.609000", "151258.625000", "151258.625000", "151258.625000", "151258.625000", "151258.625000", "151258.625000", "151258.625000", "151258.640000", "151258.640000", "151258.640000", "151258.640000", "151258.640000", "151258.640000", "151258.640000", "151258.656000", "151258.656000", "151258.656000", "151258.656000", "151258.656000", "151258.656000", "151258.656000", "151258.656000", "151258.671000", "151318.609000", "151318.609000", "151318.609000", "151318.609000", "151318.609000", "151318.625000", "151318.625000", "151318.625000", "151318.625000", "151318.625000", "151318.625000", "151318.625000", "151318.640000", "151318.640000", "151318.640000", "151318.640000", "151318.640000", "151318.640000", "151318.640000", "151318.656000", "151318.656000", "151318.656000", "151318.656000", "151318.656000", "151318.656000", "151318.656000", "151338.609000", "151338.609000", "151338.609000", "151338.609000", "151338.609000", "151338.625000", "151338.625000", "151338.625000", "151338.625000", "151338.625000", "151338.640000", "151338.640000", "151338.640000", "151338.640000", "151338.640000", "151338.671000", "151338.671000", "151338.671000", "151338.671000", "151338.671000", "151338.671000", "151338.671000", "151338.687000", "151338.687000", "151338.687000", "151340.265000", "151340.265000", "151340.265000"],
