{
  "AcquisitionMatrixPE": 104,
  "AcquisitionNumber": 1,
  "AcquisitionTime": "15:47:30.722500",
  "BandwidthPerPixelPhaseEncode": 13.935,
  "BaseResolution": 104,
  "CoilString": "C:HEA;HEP",
  "ConversionSoftware": "dcm2niix",
  "ConversionSoftwareVersion": "v1.0.20210317",
  "DerivedVendorReportedEchoSpacing": 0.000690017,
  "DeviceSerialNumber": "35450",
  "DwellTime": 2.5e-06,
  "EchoTime": 0.0348,
  "EffectiveEchoSpacing": 0.000690017,
  "FlipAngle": 55,
  "ImageComments": "Unaliased MB8/PE3 (remote)",
  "ImageOrientationPatientDICOM": [0.999935, -0.0012935, -0.0113533, -8.93079e-09, 0.993572, -0.1132],
  "ImageType": [
    "ORIGINAL",
    "PRIMARY",
    "M",
    "MB",
    "ND",
    "MOSAIC"
],
  "ImagingFrequency": 123.235,
  "InPlanePhaseEncodingDirectionDICOM": "COL",
  "InstitutionAddress": "Univeristy Ave. 197,Newark,North East,US,07102-1814",
  "InstitutionName": "RUBIC",
  "InstitutionalDepartmentName": "Department",
  "MRAcquisitionType": "2D",
  "MagneticFieldStrength": 3,
  "Manufacturer": "Siemens",
  "ManufacturersModelName": "TrioTim",
  "Modality": "MR",
  "MultibandAccelerationFactor": 8,
  "PartialFourier": 0.875,
  "PatientPosition": "HFS",
  "PercentPhaseFOV": 100,
  "PercentSampling": 100,
  "PhaseEncodingDirection": "j-",
  "PhaseEncodingSteps": 91,
  "PhaseResolution": 1,
  "PixelBandwidth": 1923,
  "ProcedureStepDescription": "Cole^Michael",
  "ProtocolName": "cmrr_mbep2d_bold_2mm_MB8_Task_8x",
  "PulseSequenceDetails": "%CustomerSeq%\\cmrr_mbep2d_bold",
  "ReceiveCoilName": "32Ch_Head",
  "ReconMatrixPE": 104,
  "RepetitionTime": 0.785,
  "SAR": 0.15084,
  "ScanOptions": "PFP\\FS",
  "ScanningSequence": "EP",
  "SequenceName": "epfid2d1_104",
  "SequenceVariant": "SK\\SS",
  "SeriesDescription": "cmrr_mbep2d_bold_2mm_MB8_Task_8x",
  "SeriesNumber": 23,
  "ShimSetting": [2089, -434, -7278, 644, -91, -205, -7, -64],
  "SliceThickness": 2,
  "SliceTiming": [0, 0.4375, 0.0875, 0.525, 0.175, 0.6125, 0.2625, 0.7, 0.35, 0, 0.4375, 0.0875, 0.525, 0.175, 0.6125, 0.2625, 0.7, 0.35, 0, 0.4375, 0.0875, 0.525, 0.175, 0.6125, 0.2625, 0.7, 0.35, 0, 0.4375, 0.0875, 0.525, 0.175, 0.6125, 0.2625, 0.7, 0.35, 0, 0.4375, 0.0875, 0.525, 0.175, 0.6125, 0.2625, 0.7, 0.35, 0, 0.4375, 0.0875, 0.525, 0.175, 0.6125, 0.2625, 0.7, 0.35, 0, 0.4375, 0.0875, 0.525, 0.175, 0.6125, 0.2625, 0.7, 0.35, 0, 0.4375, 0.0875, 0.525, 0.175, 0.6125, 0.2625, 0.7, 0.35],
  "SoftwareVersions": "syngo MR B19",
  "SpacingBetweenSlices": 2,
  "StationName": "MRC35450",
  "TaskName": "cpro",
  "TotalReadoutTime": 0.0710717,
  "TxRefAmp": 341.118,
  "dcmmeta_affine": [
    [-1.999869465827942, -1.786158954075745e-08, -0.022853493690490723, 106.18873596191406],
    [0.0025869966484606266, 1.9871444702148438, -0.22638513147830963, -77.83424377441406],
    [-0.02270659990608692, 0.22639989852905273, 1.9870147705078125, -112.12376403808594],
    [0.0, 0.0, 0.0, 1.0]
],
  "dcmmeta_reorient_transform": [
    [0.0, -1.0, 0.0, 103.0],
    [1.0, 0.0, 0.0, 0.0],
    [0.0, 0.0, 1.0, 0.0],
    [0.0, 0.0, 0.0, 1.0]
],
  "dcmmeta_shape": [104, 104, 72, 581],
  "dcmmeta_slice_dim": 2,
  "dcmmeta_version": 0.6,
  "global": {
    "const": {
      "AcquisitionMatrix": [104, 0, 0, 104],
      "AngioFlag": "N",
      "BitsAllocated": 16,
      "BitsStored": 12,
      "Columns": 936,
      "EchoNumbers": 1,
      "EchoTime": 34.8,
      "EchoTrainLength": 1,
      "FlipAngle": 55.0,
      "HighBit": 11,
      "ImageOrientationPatient": [0.9999347125934, -0.0012934983654, -0.0113532996412, -8.930795e-09, 0.99357222722644, -0.1131999526691],
      "ImagePositionPatient": [-938.13441018176, -952.41753781221, 14.823734116093],
      "ImageType": [
        "ORIGINAL",
        "PRIMARY",
        "M",
        "MB",
        "ND",
        "MOSAIC"
],
      "ImagedNucleus": "1H",
      "ImagingFrequency": 123.234521,
      "InPlanePhaseEncodingDirection": "COL",
      "MRAcquisitionType": "2D",
      "MagneticFieldStrength": 3.0,
      "Manufacturer": "SIEMENS",
      "ManufacturerModelName": "TrioTim",
      "Modality": "MR",
      "NumberOfAverages": 1.0,
      "NumberOfPhaseEncodingSteps": 91,
      "PercentPhaseFieldOfView": 100.0,
      "PercentSampling": 100.0,
      "PerformedProcedureStepStartTime": "135217.078000",
      "PhotometricInterpretation": "MONOCHROME2",
      "PixelBandwidth": 1923.0,
      "PixelRepresentation": 0,
      "PixelSpacing": [2.0, 2.0],
      "ProtocolName": "cmrr_mbep2d_bold_2mm_MB8_Task_8x",
      "RepetitionTime": 785.0,
      "Rows": 936,
      "SAR": 0.15083981697198,
      "SamplesPerPixel": 1,
      "ScanOptions": [
        "PFP",
        "FS"
],
      "ScanningSequence": "EP",
      "SequenceName": "epfid2d1_104",
      "SequenceVariant": [
        "SK",
        "SS"
],
      "SeriesDescription": "cmrr_mbep2d_bold_2mm_MB8_Task_8x",
      "SeriesNumber": 23,
      "SeriesTime": "154755.531000",
      "SliceLocation": -103.79891719905,
      "SliceThickness": 2.0,
      "SmallestImagePixelValue": 0,
      "SoftwareVersions": "syngo MR B19",
      "SpacingBetweenSlices": 1.9999999969701,
      "SpecificCharacterSet": "ISO_IR 100",
      "StudyID": "1",
      "StudyTime": "135217.031000",
      "TransmitCoilName": "Body",
      "VariableFlipAngleFlag": "N",
      "WindowCenterWidthExplanation": "Algo1",
      "dBdt": 0.0},
    "slices": {}
  },
  "time": {
    "samples": {
      "AcquisitionNumber": [1, 2, 3, 4, 5, 6, 7, 8, 9, 10, 11, 12, 13, 14, 15, 16, 17, 18, 19, 20, 21, 22, 23, 24, 25, 26, 27, 28, 29, 30, 31, 32, 33, 34, 35, 36, 37, 38, 39, 40, 41, 42, 43, 44, 45, 46, 47, 48, 49, 50, 51, 52, 53, 54, 55, 56, 57, 58, 59, 60, 61, 62, 63, 64, 65, 66, 67, 68, 69, 70, 71, 72, 73, 74, 75, 76, 77, 78, 79, 80, 81, 82, 83, 84, 85, 86, 87, 88, 89, 90, 91, 92, 93, 94, 95, 96, 97, 98, 99, 100, 101, 102, 103, 104, 105, 106, 107, 108, 109, 110, 111, 112, 113, 114, 115, 116, 117, 118, 119, 120, 121, 122, 123, 124, 125, 126, 127, 128, 129, 130, 131, 132, 133, 134, 135, 136, 137, 138, 139, 140, 141, 142, 143, 144, 145, 146, 147, 148, 149, 150, 151, 152, 153, 154, 155, 156, 157, 158, 159, 160, 161, 162, 163, 164, 165, 166, 167, 168, 169, 170, 171, 172, 173, 174, 175, 176, 177, 178, 179, 180, 181, 182, 183, 184, 185, 186, 187, 188, 189, 190, 191, 192, 193, 194, 195, 196, 197, 198, 199, 200, 201, 202, 203, 204, 205, 206, 207, 208, 209, 210, 211, 212, 213, 214, 215, 216, 217, 218, 219, 220, 221, 222, 223, 224, 225, 226, 227, 228, 229, 230, 231, 232, 233, 234, 235, 236, 237, 238, 239, 240, 241, 242, 243, 244, 245, 246, 247, 248, 249, 250, 251, 252, 253, 254, 255, 256, 257, 258, 259, 260, 261, 262, 263, 264, 265, 266, 267, 268, 269, 270, 271, 272, 273, 274, 275, 276, 277, 278, 279, 280, 281, 282, 283, 284, 285, 286, 287, 288, 289, 290, 291, 292, 293, 294, 295, 296, 297, 298, 299, 300, 301, 302, 303, 304, 305, 306, 307, 308, 309, 310, 311, 312, 313, 314, 315, 316, 317, 318, 319, 320, 321, 322, 323, 324, 325, 326, 327, 328, 329, 330, 331, 332, 333, 334, 335, 336, 337, 338, 339, 340, 341, 342, 343, 344, 345, 346, 347, 348, 349, 350, 351, 352, 353, 354, 355, 356, 357, 358, 359, 360, 361, 362, 363, 364, 365, 366, 367, 368, 369, 370, 371, 372, 373, 374, 375, 376, 377, 378, 379, 380, 381, 382, 383, 384, 385, 386, 387, 388, 389, 390, 391, 392, 393, 394, 395, 396, 397, 398, 399, 400, 401, 402, 403, 404, 405, 406, 407, 408, 409, 410, 411, 412, 413, 414, 415, 416, 417, 418, 419, 420, 421, 422, 423, 424, 425, 426, 427, 428, 429, 430, 431, 432, 433, 434, 435, 436, 437, 438, 439, 440, 441, 442, 443, 444, 445, 446, 447, 448, 449, 450, 451, 452, 453, 454, 455, 456, 457, 458, 459, 460, 461, 462, 463, 464, 465, 466, 467, 468, 469, 470, 471, 472, 473, 474, 475, 476, 477, 478, 479, 480, 481, 482, 483, 484, 485, 486, 487, 488, 489, 490, 491, 492, 493, 494, 495, 496, 497, 498, 499, 500, 501, 502, 503, 504, 505, 506, 507, 508, 509, 510, 511, 512, 513, 514, 515, 516, 517, 518, 519, 520, 521, 522, 523, 524, 525, 526, 527, 528, 529, 530, 531, 532, 533, 534, 535, 536, 537, 538, 539, 540, 541, 542, 543, 544, 545, 546, 547, 548, 549, 550, 551, 552, 553, 554, 555, 556, 557, 558, 559, 560, 561, 562, 563, 564, 565, 566, 567, 568, 569, 570, 571, 572, 573, 574, 575, 576, 577, 578, 579, 580, 581],
      "AcquisitionTime": ["154730.722500", "154731.510000", "154732.300000", "154733.087500", "154733.875000", "154734.662500", "154735.452500", "154736.240000", "154737.027500", "154737.817500", "154738.605000", "154739.392500", "154740.180000", "154740.970000", "154741.757500", "154742.545000", "154743.332500", "154744.122500", "154744.910000", "154745.697500", "154746.485000", "154747.275000", "154748.062500", "154748.850000", "154749.637500", "154750.427500", "154751.215000", "154752.002500", "154752.790000", "154753.580000", "154754.367500", "154755.155000", "154755.945000", "154756.732500", "154757.520000", "154758.307500", "154759.097500", "154759.885000", "154800.672500", "154801.460000", "154802.250000", "154803.037500", "154803.825000", "154804.612500", "154805.402500", "154806.190000", "154806.977500", "154807.765000", "154808.555000", "154809.342500", "154810.130000", "154810.917500", "154811.707500", "154812.495000", "154813.282500", "154814.072500", "154814.860000", "154815.647500", "154816.435000", "154817.225000", "154818.012500", "154818.800000", "154819.587500", "154820.377500", "154821.165000", "154821.952500", "154822.740000", "154823.530000", "154824.317500", "154825.105000", "154825.892500", "154826.682500", "154827.470000", "154828.257500", "154829.045000", "154829.835000", "154830.622500", "154831.410000", "154832.200000", "154832.987500", "154833.775000", "154834.562500", "154835.352500", "154836.140000", "154836.927500", "154837.715000", "154838.505000", "154839.292500", "154840.080000", "154840.867500", "154841.657500", "154842.445000", "154843.232500", "154844.020000", "154844.810000", "154845.597500", "154846.385000", "154847.175000", "154847.962500", "154848.750000", "154849.537500", "154850.327500", "154851.115000", "154851.902500", "154852.690000", "154853.480000", "154854.267500", "154855.055000", "154855.842500", "154856.632500", "154857.420000", "154858.207500", "154858.995000", "154859.785000", "154900.572500", "154901.360000", "154902.147500", "154902.937500", "154903.725000", "154904.512500", "154905.302500", "154906.090000", "154906.877500", "154907.665000", "154908.455000", "154909.242500", "154910.030000", "154910.817500", "154911.607500", "154912.395000", "154913.182500", "154913.970000", "154914.760000", "154915.547500", "154916.335000", "154917.122500", "154917.912500", "154918.700000", "154919.487500", "154920.275000", "154921.065000", "154921.852500", "154922.640000", "154923.430000", "154924.217500", "154925.005000", "154925.792500", "154926.582500", "154927.370000", "154928.157500", "154928.945000", "154929.735000", "154930.522500", "154931.310000", "154932.097500", "154932.887500", "154933.675000", "154934.462500", "154935.250000", "154936.040000", "154936.827500", "154937.615000", "154938.402500", "154939.192500", "154939.980000", "154940.767500", "154941.557500", "154942.345000", "154943.132500", "154943.920000", "154944.710000", "154945.497500", "154946.285000", "154947.072500", "154947.862500", "154948.650000", "154949.437500", "154950.225000", "154951.015000", "154951.802500", "154952.590000", "154953.377500", "154954.167500", "154954.955000", "154955.742500", "154956.530000", "154957.320000", "154958.107500", "154958.895000", "154959.685000", "155000.472500", "155001.260000", "155002.047500", "155002.837500", "155003.625000", "155004.412500", "155005.200000", "155005.990000", "155006.777500", "155007.565000", "155008.352500", "155009.142500", "155009.930000", "155010.717500", "155011.505000", "155012.295000", "155013.082500", "155013.870000", "155014.657500", "155015.447500", "155016.235000", "155017.022500", "155017.812500", "155018.600000", "155019.387500", "155020.175000", "155020.965000", "155021.752500", "155022.540000", "155023.327500", "155024.117500", "155024.905000", "155025.692500", "155026.480000", "155027.270000", "155028.057500", "155028.845000", "155029.632500", "155030.422500", "155031.210000", "155031.997500", "155032.785000", "155033.575000", "155034.362500", "155035.150000", "155035.940000", "155036.727500", "155037.515000", "155038.302500", "155039.092500", "155039.880000", "155040.667500", "155041.455000", "155042.245000", "155043.032500", "155043.820000", "155044.607500", "155045.397500", "155046.185000", "155046.972500", "155047.760000", "155048.550000", "155049.337500", "155050.125000", "155050.912500", "155051.702500", "155052.490000", "155053.277500", "155054.067500", "155054.855000", "155055.642500", "155056.430000", "155057.220000", "155058.007500", "155058.795000", "155059.582500", "155100.372500", "155101.160000", "155101.947500", "155102.735000", "155103.525000", "155104.312500", "155105.100000", "155105.887500", "155106.677500", "155107.465000", "155108.252500", "155109.040000", "155109.830000", "155110.617500", "155111.405000", "155112.195000", "155112.982500", "155113.770000", "155114.557500", "155115.347500", "155116.135000", "155116.922500", "155117.710000", "155118.500000", "155119.287500", "155120.075000", "155120.862500", "155121.652500", "155122.440000", "155123.227500", "155124.015000", "155124.805000", "155125.592500", "155126.380000", "155127.167500", "155127.957500", "155128.745000", "155129.532500", "155130.322500", "155131.110000", "155131.897500", "155132.685000", "155133.475000", "155134.262500", "155135.050000", "155135.837500", "155136.627500", "155137.415000", "155138.202500", "155138.990000", "155139.780000", "155140.567500", "155141.355000", "155142.142500", "155142.932500", "155143.720000", "155144.507500", "155145.295000", "155146.085000", "155146.872500", "155147.660000", "155148.450000", "155149.237500", "155150.025000", "155150.812500", "155151.602500", "155152.390000", "155153.177500", "155153.965000", "155154.755000", "155155.542500", "155156.330000", "155157.117500", "155157.907500", "155158.695000", "155159.482500", "155200.270000", "155201.060000", "155201.847500", "155202.635000", "155203.425000", "155204.212500", "155205.000000", "155205.787500", "155206.577500", "155207.365000", "155208.152500", "155208.940000", "155209.730000", "155210.517500", "155211.305000", "155212.092500", "155212.882500", "155213.670000", "155214.457500", "155215.245000", "155216.035000", "155216.822500", "155217.610000", "155218.397500", "155219.187500", "155219.975000", "155220.762500", "155221.552500", "155222.340000", "155223.127500", "155223.915000", "155224.705000", "155225.492500", "155226.280000", "155227.067500", "155227.857500", "155228.645000", "155229.432500", "155230.220000", "155231.010000", "155231.797500", "155232.585000", "155233.372500", "155234.162500", "155234.950000", "155235.737500", "155236.525000", "155237.315000", "155238.102500", "155238.890000", "155239.680000", "155240.467500", "155241.255000", "155242.042500", "155242.832500", "155243.620000", "155244.407500", "155245.195000", "155245.985000", "155246.772500", "155247.560000", "155248.347500", "155249.137500", "155249.925000", "155250.712500", "155251.500000", "155252.290000", "155253.077500", "155253.865000", "155254.652500", "155255.442500", "155256.230000", "155257.017500", "155257.807500", "155258.595000", "155259.382500", "155300.170000", "155300.960000", "155301.747500", "155302.535000", "155303.322500", "155304.112500", "155304.900000", "155305.687500", "155306.475000", "155307.265000", "155308.052500", "155308.840000", "155309.627500", "155310.417500", "155311.205000", "155311.992500", "155312.780000", "155313.570000", "155314.357500", "155315.145000", "155315.935000", "155316.722500", "155317.510000", "155318.297500", "155319.087500", "155319.875000", "155320.662500", "155321.450000", "155322.240000", "155323.027500", "155323.815000", "155324.602500", "155325.392500", "155326.180000", "155326.967500", "155327.755000", "155328.545000", "155329.332500", "155330.120000", "155330.907500", "155331.697500", "155332.485000", "155333.272500", "155334.062500", "155334.850000", "155335.637500", "155336.425000", "155337.215000", "155338.002500", "155338.790000", "155339.577500", "155340.367500", "155341.155000", "155341.942500", "155342.730000", "155343.520000", "155344.307500", "155345.095000", "155345.882500", "155346.672500", "155347.460000", "155348.247500", "155349.035000", "155349.825000", "155350.612500", "155351.400000", "155352.190000", "155352.977500", "155353.765000", "155354.552500", "155355.342500", "155356.130000", "155356.917500", "155357.705000", "155358.495000", "155359.282500", "155400.070000", "155400.857500", "155401.647500", "155402.435000", "155403.222500", "155404.010000", "155404.800000", "155405.587500", "155406.375000", "155407.162500", "155407.952500", "155408.740000", "155409.527500", "155410.317500", "155411.105000", "155411.892500", "155412.680000", "155413.470000", "155414.257500", "155415.045000", "155415.832500", "155416.622500", "155417.410000", "155418.197500", "155418.985000", "155419.775000", "155420.562500", "155421.350000", "155422.137500", "155422.927500", "155423.715000", "155424.502500", "155425.290000", "155426.080000", "155426.867500", "155427.655000", "155428.445000", "155429.232500", "155430.020000", "155430.807500", "155431.597500", "155432.385000", "155433.172500", "155433.960000", "155434.750000", "155435.537500", "155436.325000", "155437.112500", "155437.902500", "155438.690000", "155439.477500", "155440.265000", "155441.055000", "155441.842500", "155442.630000", "155443.417500", "155444.207500", "155444.995000", "155445.782500", "155446.572500", "155447.360000", "155448.147500", "155448.935000", "155449.725000", "155450.512500", "155451.300000", "155452.087500", "155452.877500", "155453.665000", "155454.452500", "155455.240000", "155456.030000", "155456.817500", "155457.605000", "155458.392500", "155459.182500", "155459.970000", "155500.757500", "155501.545000", "155502.335000", "155503.122500", "155503.910000", "155504.700000", "155505.487500", "155506.275000", "155507.062500", "155507.852500"],
      "ContentTime": ["154755.531000", "154755.531000", "154755.546000", "154755.546000", "154755.546000", "154755.546000", "154755.546000", "154755.546000", "154755.546000", "154755.562000", "154755.562000", "154755.562000", "154755.562000", "154755.562000", "154755.562000", "154755.562000", "154755.578000", "154755.578000", "154755.578000", "154755.578000", "154755.578000", "154755.578000", "154755.578000", "154755.578000", "154755.593000", "154755.593000", "154755.593000", "154755.593000", "154815.515000", "154815.515000", "154815.515000", "154815.515000", "154815.515000", "154815.515000", "154815.531000", "154815.531000", "154815.531000", "154815.531000", "154815.531000", "154815.531000", "154815.531000", "154815.546000", "154815.546000", "154815.546000", "154815.546000", "154815.546000", "154815.546000", "154815.546000", "154815.546000", "154815.562000", "154815.562000", "154815.562000", "154815.562000", "154815.562000", "154835.515000", "154835.515000", "154835.515000", "154835.515000", "154835.515000", "154835.515000", "154835.531000", "154835.531000", "154835.531000", "154835.531000", "154835.531000", "154835.531000", "154835.531000", "154835.546000", "154835.546000", "154835.546000", "154835.546000", "154835.546000", "154835.546000", "154835.562000", "154835.562000", "154835.562000", "154835.562000", "154835.562000", "154835.578000", "154855.515000", "154855.515000", "154855.515000", "154855.515000", "154855.515000", "154855.515000", "154855.531000", "154855.531000", "154855.531000", "154855.531000", "154855.531000", "154855.531000", "154855.531000", "154855.546000", "154855.546000", "154855.546000", "154855.546000", "154855.546000", "154855.546000", "154855.546000", "154855.562000", "154855.562000", "154855.562000", "154855.562000", "154855.562000", "154855.562000", "154915.515000", "154915.515000", "154915.515000", "154915.515000", "154915.515000", "154915.531000", "154915.531000", "154915.531000", "154915.531000", "154915.531000", "154915.546000", "154915.546000", "154915.546000", "154915.546000", "154915.546000", "154915.546000", "154915.546000", "154915.546000", "154915.562000", "154915.562000", "154915.562000", "154915.562000", "154915.578000", "154915.578000", "154915.578000", "154935.515000", "154935.515000", "154935.515000", "154935.515000", "154935.515000", "154935.531000", "154935.531000", "154935.531000", "154935.531000", "154935.531000", "154935.531000", "154935.546000", "154935.546000", "154935.546000", "154935.546000", "154935.546000", "154935.546000", "154935.546000", "154935.546000", "154935.562000", "154935.562000", "154935.562000", "154935.562000", "154935.562000", "154935.562000", "154935.562000", "154955.515000", "154955.515000", "154955.515000", "154955.515000", "154955.515000", "154955.531000", "154955.531000", "154955.531000", "154955.531000", "154955.531000", "154955.531000", "154955.546000", "154955.546000", "154955.546000", "154955.546000", "154955.546000", "154955.546000", "154955.546000", "154955.562000", "154955.562000", "154955.562000", "154955.562000", "154955.562000", "154955.562000", "154955.562000", "155015.515000", "155015.515000", "155015.515000", "155015.515000", "155015.515000", "155015.515000", "155015.531000", "155015.531000", "155015.531000", "155015.531000", "155015.531000", "155015.531000", "155015.531000", "155015.546000", "155015.546000", "155015.546000", "155015.546000", "155015.546000", "155015.546000", "155015.546000", "155015.562000", "155015.562000", "155015.562000", "155015.562000", "155015.562000", "155015.562000", "155035.515000", "155035.515000", "155035.515000", "155035.515000", "155035.515000", "155035.531000", "155035.531000", "155035.531000", "155035.531000", "155035.531000", "155035.531000", "155035.531000", "155035.531000", "155035.546000", "155035.546000", "155035.546000", "155035.546000", "155035.546000", "155035.546000", "155035.546000", "155035.562000", "155035.562000", "155035.562000", "155035.562000", "155035.562000", "155055.515000", "155055.515000", "155055.515000", "155055.515000", "155055.515000", "155055.531000", "155055.531000", "155055.531000", "155055.531000", "155055.531000", "155055.531000", "155055.546000", "155055.546000", "155055.546000", "155055.546000", "155055.546000", "155055.546000", "155055.546000", "155055.546000", "155055.562000", "155055.562000", "155055.562000", "155055.562000", "155055.562000", "155055.578000", "155055.578000", "155115.515000", "155115.515000", "155115.515000", "155115.531000", "155115.531000", "155115.531000", "155115.531000", "155115.531000", "155115.531000", "155115.531000", "155115.531000", "155115.546000", "155115.546000", "155115.546000", "155115.546000", "155115.546000", "155115.562000", "155115.562000", "155115.562000", "155115.562000", "155115.562000", "155115.578000", "155115.578000", "155115.578000", "155115.578000", "155135.515000", "155135.515000", "155135.515000", "155135.515000", "155135.515000", "155135.515000", "155135.531000", "155135.531000", "155135.531000", "155135.531000", "155135.531000", "155135.531000", "155135.531000", "155135.546000", "155135.546000", "155135.546000", "155135.546000", "155135.546000", "155135.546000", "155135.546000", "155135.562000", "155135.562000", "155135.562000", "155135.562000", "155135.562000", "155135.562000", "155155.515000", "155155.515000", "155155.515000", "155155.515000", "155155.515000", "155155.531000", "155155.531000", "155155.531000", "155155.531000", "155155.531000", "155155.531000", "155155.531000", "155155.531000", "155155.546000", "155155.546000", "155155.546000", "155155.546000", "155155.546000", "155155.546000", "155155.546000", "155155.562000", "155155.562000", "155155.562000", "155155.562000", "155155.562000", "155215.515000", "155215.515000", "155215.515000", "155215.515000", "155215.515000", "155215.531000", "155215.531000", "155215.531000", "155215.531000", "155215.531000", "155215.531000", "155215.546000", "155215.546000", "155215.546000", "155215.546000", "155215.546000", "155215.546000", "155215.546000", "155215.562000", "155215.562000", "155215.562000", "155215.562000", "155215.562000", "155215.562000", "155215.562000", "155215.578000", "155235.515000", "155235.515000", "155235.515000", "155235.515000", "155235.515000", "155235.531000", "155235.531000", "155235.531000", "155235.531000", "155235.531000", "155235.531000", "155235.531000", "155235.531000", "155235.546000", "155235.546000", "155235.546000", "155235.546000", "155235.546000", "155235.546000", "155235.546000", "155235.546000", "155235.562000", "155235.562000", "155235.562000", "155235.562000", "155255.515000", "155255.515000", "155255.515000", "155255.515000", "155255.531000", "155255.531000", "155255.531000", "155255.531000", "155255.531000", "155255.531000", "155255.531000", "155255.546000", "155255.546000", "155255.546000", "155255.546000", "155255.546000", "155255.546000", "155255.562000", "155255.562000", "155255.562000", "155255.562000", "155255.562000", "155255.562000", "155255.562000", "155255.562000", "155315.515000", "155315.515000", "155315.515000", "155315.515000", "155315.515000", "155315.531000", "155315.531000", "155315.531000", "155315.531000", "155315.531000", "155315.531000", "155315.531000", "155315.531000", "155315.546000", "155315.546000", "155315.546000", "155315.546000", "155315.546000", "155315.546000", "155315.546000", "155315.546000", "155315.562000", "155315.562000", "155315.562000", "155315.562000", "155315.562000", "155335.515000", "155335.515000", "155335.515000", "155335.515000", "155335.515000", "155335.531000", "155335.531000", "155335.531000", "155335.531000", "155335.531000", "155335.531000", "155335.546000", "155335.546000", "155335.546000", "155335.546000", "155335.546000", "155335.546000", "155335.562000", "155335.562000", "155335.562000", "155335.562000", "155335.562000", "155335.562000", "155335.562000", "155335.578000", "155355.515000", "155355.515000", "155355.515000", "155355.515000", "155355.515000", "155355.531000", "155355.531000", "155355.531000", "155355.531000", "155355.531000", "155355.531000", "155355.531000", "155355.531000", "155355.546000", "155355.546000", "155355.546000", "155355.546000", "155355.546000", "155355.546000", "155355.546000", "155355.562000", "155355.562000", "155355.562000", "155355.562000", "155355.562000", "155355.562000", "155415.515000", "155415.515000", "155415.515000", "155415.515000", "155415.515000", "155415.531000", "155415.531000", "155415.531000", "155415.531000", "155415.531000", "155415.546000", "155415.546000", "155415.546000", "155415.546000", "155415.546000", "155415.546000", "155415.546000", "155415.546000", "155415.562000", "155415.562000", "155415.562000", "155415.562000", "155415.562000", "155415.562000", "155415.578000", "155435.515000", "155435.515000", "155435.515000", "155435.515000", "155435.515000", "155435.531000", "155435.531000", "155435.531000", "155435.531000", "155435.531000", "155435.531000", "155435.546000", "155435.546000", "155435.546000", "155435.546000", "155435.546000", "155435.546000", "155435.546000", "155435.562000", "155435.562000", "155435.562000", "155435.562000", "155435.562000", "155435.562000", "155435.562000", "155435.578000", "155455.515000", "155455.515000", "155455.515000", "155455.515000", "155455.515000", "155455.531000", "155455.531000", "155455.531000", "155455.531000", "155455.531000", "155455.531000", "155455.531000", "155455.531000", "155455.546000", "155455.546000", "155455.546000", "155455.546000", "155455.546000", "155455.546000", "155455.546000", "155455.562000", "155455.562000", "155455.562000", "155455.562000", "155455.562000", "155509.062000", "155509.062000", "155509.062000", "155509.062000", "155509.078000", "155509.078000", "155509.078000", "155509.078000", "155509.078000", "155509.078000", "155509.078000", "155509.078000", "155509.093000", "155509.093000", "155509.093000", "155509.093000", "155509.093000", "155509.093000"],
