{
  "AcquisitionMatrixPE": 104,
  "AcquisitionNumber": 1,
  "AcquisitionTime": "12:37:55.477500",
  "BandwidthPerPixelPhaseEncode": 13.935,
  "BaseResolution": 104,
  "CoilString": "C:HEA;HEP",
  "ConversionSoftware": "dcm2niix",
  "ConversionSoftwareVersion": "v1.0.20210317",
  "DerivedVendorReportedEchoSpacing": 0.000690017,
  "DeviceSerialNumber": "35450",
  "DwellTime": 2.5e-06,
  "EchoTime": 0.0348,
  "EffectiveEchoSpacing": 0.000690017,
  "FlipAngle": 55,
  "ImageComments": "Unaliased MB8/PE3 (remote)",
  "ImageOrientationPatientDICOM": [0.999278, 0.00357387, -0.0378182, 5.30526e-08, 0.995564, 0.0940837],
  "ImageType": [
    "ORIGINAL",
    "PRIMARY",
    "M",
    "MB",
    "ND",
    "MOSAIC"
],
  "ImagingFrequency": 123.234,
  "InPlanePhaseEncodingDirectionDICOM": "COL",
  "InstitutionAddress": "Univeristy Ave. 197,Newark,North East,US,07102-1814",
  "InstitutionName": "RUBIC",
  "InstitutionalDepartmentName": "Department",
  "MRAcquisitionType": "2D",
  "MagneticFieldStrength": 3,
  "Manufacturer": "Siemens",
  "ManufacturersModelName": "TrioTim",
  "Modality": "MR",
  "MultibandAccelerationFactor": 8,
  "PartialFourier": 0.875,
  "PatientPosition": "HFS",
  "PercentPhaseFOV": 100,
  "PercentSampling": 100,
  "PhaseEncodingDirection": "j-",
  "PhaseEncodingSteps": 91,
  "PhaseResolution": 1,
  "PixelBandwidth": 1923,
  "ProcedureStepDescription": "Cole^Michael",
  "ProtocolName": "cmrr_mbep2d_bold_2mm_MB8_Task_8x",
  "PulseSequenceDetails": "%CustomerSeq%\\cmrr_mbep2d_bold",
  "ReceiveCoilName": "32Ch_Head",
  "ReconMatrixPE": 104,
  "RepetitionTime": 0.785,
  "SAR": 0.134985,
  "ScanOptions": "PFP\\FS",
  "ScanningSequence": "EP",
  "SequenceName": "epfid2d1_104",
  "SequenceVariant": "SK\\SS",
  "SeriesDescription": "cmrr_mbep2d_bold_2mm_MB8_Task_8x",
  "SeriesNumber": 13,
  "ShimSetting": [2079, -435, -7348, 696, 181, -126, 152, 25],
  "SliceThickness": 2,
  "SliceTiming": [0, 0.44, 0.0875, 0.5275, 0.175, 0.615, 0.2625, 0.7025, 0.35, 0, 0.44, 0.0875, 0.5275, 0.175, 0.615, 0.2625, 0.7025, 0.35, 0, 0.44, 0.0875, 0.5275, 0.175, 0.615, 0.2625, 0.7025, 0.35, 0, 0.44, 0.0875, 0.5275, 0.175, 0.615, 0.2625, 0.7025, 0.35, 0, 0.44, 0.0875, 0.5275, 0.175, 0.615, 0.2625, 0.7025, 0.35, 0, 0.44, 0.0875, 0.5275, 0.175, 0.615, 0.2625, 0.7025, 0.35, 0, 0.44, 0.0875, 0.5275, 0.175, 0.615, 0.2625, 0.7025, 0.35, 0, 0.44, 0.0875, 0.5275, 0.175, 0.615, 0.2625, 0.7025, 0.35],
  "SoftwareVersions": "syngo MR B19",
  "SpacingBetweenSlices": 2,
  "StationName": "MRC35450",
  "TaskName": "cpro",
  "TotalReadoutTime": 0.0710717,
  "TxRefAmp": 319.102,
  "dcmmeta_affine": [
    [-1.9985564947128296, 1.0610514067366239e-07, -0.07597333937883377, 105.36046600341797],
    [-0.007147747091948986, 1.9911285638809204, 0.18803159892559052, -89.63948822021484],
    [-0.0756363496184349, -0.18816740810871124, 1.9896914958953857, -71.8756103515625],
    [0.0, 0.0, 0.0, 1.0]
],
  "dcmmeta_reorient_transform": [
    [0.0, -1.0, 0.0, 103.0],
    [1.0, 0.0, 0.0, 0.0],
    [0.0, 0.0, 1.0, 0.0],
    [0.0, 0.0, 0.0, 1.0]
],
  "dcmmeta_shape": [104, 104, 72, 581],
  "dcmmeta_slice_dim": 2,
  "dcmmeta_version": 0.6,
  "global": {
    "const": {
      "AcquisitionMatrix": [104, 0, 0, 104],
      "AngioFlag": "N",
      "BitsAllocated": 16,
      "BitsStored": 12,
      "Columns": 936,
      "EchoNumbers": 1,
      "EchoTime": 34.8,
      "EchoTrainLength": 1,
      "FlipAngle": 55.0,
      "HighBit": 11,
      "ImageOrientationPatient": [0.99927824603136, 0.00357387361232, -0.0378181759989, 5.3052572e-08, 0.99556429084606, 0.09408370099105],
      "ImagePositionPatient": [-936.76002110849, -946.72970937659, -138.06976668317],
      "ImageType": [
        "ORIGINAL",
        "PRIMARY",
        "M",
        "MB",
        "ND",
        "MOSAIC"
],
      "ImagedNucleus": "1H",
      "ImagingFrequency": 123.234468,
      "InPlanePhaseEncodingDirection": "COL",
      "MRAcquisitionType": "2D",
      "MagneticFieldStrength": 3.0,
      "Manufacturer": "SIEMENS",
      "ManufacturerModelName": "TrioTim",
      "Modality": "MR",
      "NumberOfAverages": 1.0,
      "NumberOfPhaseEncodingSteps": 91,
      "PercentPhaseFieldOfView": 100.0,
      "PercentSampling": 100.0,
      "PerformedProcedureStepStartTime": "114849.859000",
      "PhotometricInterpretation": "MONOCHROME2",
      "PixelBandwidth": 1923.0,
      "PixelRepresentation": 0,
      "PixelSpacing": [2.0, 2.0],
      "ProtocolName": "cmrr_mbep2d_bold_2mm_MB8_Task_8x",
      "RepetitionTime": 785.0,
      "Rows": 936,
      "SAR": 0.13498496023976,
      "SamplesPerPixel": 1,
      "ScanOptions": [
        "PFP",
        "FS"
],
      "ScanningSequence": "EP",
      "SequenceName": "epfid2d1_104",
      "SequenceVariant": [
        "SK",
        "SS"
],
      "SeriesDescription": "cmrr_mbep2d_bold_2mm_MB8_Task_8x",
      "SeriesNumber": 13,
      "SeriesTime": "123829.015000",
      "SliceLocation": -83.934962801648,
      "SliceThickness": 2.0,
      "SmallestImagePixelValue": 0,
      "SoftwareVersions": "syngo MR B19",
      "SpacingBetweenSlices": 2.0000000298538,
      "SpecificCharacterSet": "ISO_IR 100",
      "StudyID": "1",
      "StudyTime": "114849.812000",
      "TransmitCoilName": "Body",
      "VariableFlipAngleFlag": "N",
      "WindowCenterWidthExplanation": "Algo1",
      "dBdt": 0.0},
    "slices": {}
  },
  "time": {
    "samples": {
      "AcquisitionNumber": [1, 2, 3, 4, 5, 6, 7, 8, 9, 10, 11, 12, 13, 14, 15, 16, 17, 18, 19, 20, 21, 22, 23, 24, 25, 26, 27, 28, 29, 30, 31, 32, 33, 34, 35, 36, 37, 38, 39, 40, 41, 42, 43, 44, 45, 46, 47, 48, 49, 50, 51, 52, 53, 54, 55, 56, 57, 58, 59, 60, 61, 62, 63, 64, 65, 66, 67, 68, 69, 70, 71, 72, 73, 74, 75, 76, 77, 78, 79, 80, 81, 82, 83, 84, 85, 86, 87, 88, 89, 90, 91, 92, 93, 94, 95, 96, 97, 98, 99, 100, 101, 102, 103, 104, 105, 106, 107, 108, 109, 110, 111, 112, 113, 114, 115, 116, 117, 118, 119, 120, 121, 122, 123, 124, 125, 126, 127, 128, 129, 130, 131, 132, 133, 134, 135, 136, 137, 138, 139, 140, 141, 142, 143, 144, 145, 146, 147, 148, 149, 150, 151, 152, 153, 154, 155, 156, 157, 158, 159, 160, 161, 162, 163, 164, 165, 166, 167, 168, 169, 170, 171, 172, 173, 174, 175, 176, 177, 178, 179, 180, 181, 182, 183, 184, 185, 186, 187, 188, 189, 190, 191, 192, 193, 194, 195, 196, 197, 198, 199, 200, 201, 202, 203, 204, 205, 206, 207, 208, 209, 210, 211, 212, 213, 214, 215, 216, 217, 218, 219, 220, 221, 222, 223, 224, 225, 226, 227, 228, 229, 230, 231, 232, 233, 234, 235, 236, 237, 238, 239, 240, 241, 242, 243, 244, 245, 246, 247, 248, 249, 250, 251, 252, 253, 254, 255, 256, 257, 258, 259, 260, 261, 262, 263, 264, 265, 266, 267, 268, 269, 270, 271, 272, 273, 274, 275, 276, 277, 278, 279, 280, 281, 282, 283, 284, 285, 286, 287, 288, 289, 290, 291, 292, 293, 294, 295, 296, 297, 298, 299, 300, 301, 302, 303, 304, 305, 306, 307, 308, 309, 310, 311, 312, 313, 314, 315, 316, 317, 318, 319, 320, 321, 322, 323, 324, 325, 326, 327, 328, 329, 330, 331, 332, 333, 334, 335, 336, 337, 338, 339, 340, 341, 342, 343, 344, 345, 346, 347, 348, 349, 350, 351, 352, 353, 354, 355, 356, 357, 358, 359, 360, 361, 362, 363, 364, 365, 366, 367, 368, 369, 370, 371, 372, 373, 374, 375, 376, 377, 378, 379, 380, 381, 382, 383, 384, 385, 386, 387, 388, 389, 390, 391, 392, 393, 394, 395, 396, 397, 398, 399, 400, 401, 402, 403, 404, 405, 406, 407, 408, 409, 410, 411, 412, 413, 414, 415, 416, 417, 418, 419, 420, 421, 422, 423, 424, 425, 426, 427, 428, 429, 430, 431, 432, 433, 434, 435, 436, 437, 438, 439, 440, 441, 442, 443, 444, 445, 446, 447, 448, 449, 450, 451, 452, 453, 454, 455, 456, 457, 458, 459, 460, 461, 462, 463, 464, 465, 466, 467, 468, 469, 470, 471, 472, 473, 474, 475, 476, 477, 478, 479, 480, 481, 482, 483, 484, 485, 486, 487, 488, 489, 490, 491, 492, 493, 494, 495, 496, 497, 498, 499, 500, 501, 502, 503, 504, 505, 506, 507, 508, 509, 510, 511, 512, 513, 514, 515, 516, 517, 518, 519, 520, 521, 522, 523, 524, 525, 526, 527, 528, 529, 530, 531, 532, 533, 534, 535, 536, 537, 538, 539, 540, 541, 542, 543, 544, 545, 546, 547, 548, 549, 550, 551, 552, 553, 554, 555, 556, 557, 558, 559, 560, 561, 562, 563, 564, 565, 566, 567, 568, 569, 570, 571, 572, 573, 574, 575, 576, 577, 578, 579, 580, 581],
      "AcquisitionTime": ["123755.477500", "123756.267500", "123757.055000", "123757.842500", "123758.630000", "123759.420000", "123800.207500", "123800.995000", "123801.785000", "123802.572500", "123803.360000", "123804.147500", "123804.937500", "123805.725000", "123806.512500", "123807.300000", "123808.090000", "123808.877500", "123809.665000", "123810.452500", "123811.242500", "123812.030000", "123812.817500", "123813.605000", "123814.395000", "123815.182500", "123815.970000", "123816.757500", "123817.547500", "123818.335000", "123819.122500", "123819.912500", "123820.700000", "123821.487500", "123822.275000", "123823.065000", "123823.852500", "123824.640000", "123825.427500", "123826.217500", "123827.005000", "123827.792500", "123828.580000", "123829.370000", "123830.157500", "123830.945000", "123831.732500", "123832.522500", "123833.310000", "123834.097500", "123834.887500", "123835.675000", "123836.462500", "123837.250000", "123838.040000", "123838.827500", "123839.615000", "123840.402500", "123841.192500", "123841.980000", "123842.767500", "123843.555000", "123844.345000", "123845.132500", "123845.920000", "123846.707500", "123847.497500", "123848.285000", "123849.072500", "123849.860000", "123850.650000", "123851.437500", "123852.225000", "123853.015000", "123853.802500", "123854.590000", "123855.377500", "123856.167500", "123856.955000", "123857.742500", "123858.530000", "123859.320000", "123900.107500", "123900.895000", "123901.682500", "123902.472500", "123903.260000", "123904.047500", "123904.835000", "123905.625000", "123906.412500", "123907.200000", "123907.987500", "123908.777500", "123909.565000", "123910.352500", "123911.142500", "123911.930000", "123912.717500", "123913.505000", "123914.295000", "123915.082500", "123915.870000", "123916.657500", "123917.447500", "123918.235000", "123919.022500", "123919.810000", "123920.600000", "123921.387500", "123922.175000", "123922.962500", "123923.752500", "123924.540000", "123925.327500", "123926.115000", "123926.905000", "123927.692500", "123928.480000", "123929.270000", "123930.057500", "123930.845000", "123931.632500", "123932.422500", "123933.210000", "123933.997500", "123934.785000", "123935.575000", "123936.362500", "123937.150000", "123937.937500", "123938.727500", "123939.515000", "123940.302500", "123941.090000", "123941.880000", "123942.667500", "123943.455000", "123944.242500", "123945.032500", "123945.820000", "123946.607500", "123947.397500", "123948.185000", "123948.972500", "123949.760000", "123950.550000", "123951.337500", "123952.125000", "123952.912500", "123953.702500", "123954.490000", "123955.277500", "123956.065000", "123956.855000", "123957.642500", "123958.430000", "123959.217500", "124000.007500", "124000.795000", "124001.582500", "124002.370000", "124003.160000", "124003.947500", "124004.735000", "124005.525000", "124006.312500", "124007.100000", "124007.887500", "124008.677500", "124009.465000", "124010.252500", "124011.040000", "124011.830000", "124012.617500", "124013.405000", "124014.192500", "124014.982500", "124015.770000", "124016.557500", "124017.345000", "124018.135000", "124018.922500", "124019.710000", "124020.497500", "124021.287500", "124022.075000", "124022.862500", "124023.652500", "124024.440000", "124025.227500", "124026.015000", "124026.805000", "124027.592500", "124028.380000", "124029.167500", "124029.957500", "124030.745000", "124031.532500", "124032.320000", "124033.110000", "124033.897500", "124034.685000", "124035.472500", "124036.262500", "124037.050000", "124037.837500", "124038.625000", "124039.415000", "124040.202500", "124040.990000", "124041.780000", "124042.567500", "124043.355000", "124044.142500", "124044.932500", "124045.720000", "124046.507500", "124047.295000", "124048.085000", "124048.872500", "124049.660000", "124050.447500", "124051.237500", "124052.025000", "124052.812500", "124053.600000", "124054.390000", "124055.177500", "124055.965000", "124056.752500", "124057.542500", "124058.330000", "124059.117500", "124059.907500", "124100.695000", "124101.482500", "124102.270000", "124103.060000", "124103.847500", "124104.635000", "124105.422500", "124106.212500", "124107.000000", "124107.787500", "124108.575000", "124109.365000", "124110.152500", "124110.940000", "124111.727500", "124112.517500", "124113.305000", "124114.092500", "124114.880000", "124115.670000", "124116.457500", "124117.245000", "124118.035000", "124118.822500", "124119.610000", "124120.397500", "124121.187500", "124121.975000", "124122.762500", "124123.550000", "124124.340000", "124125.127500", "124125.915000", "124126.702500", "124127.492500", "124128.280000", "124129.067500", "124129.855000", "124130.645000", "124131.432500", "124132.220000", "124133.007500", "124133.797500", "124134.585000", "124135.372500", "124136.162500", "124136.950000", "124137.737500", "124138.525000", "124139.315000", "124140.102500", "124140.890000", "124141.677500", "124142.467500", "124143.255000", "124144.042500", "124144.830000", "124145.620000", "124146.407500", "124147.195000", "124147.982500", "124148.772500", "124149.560000", "124150.347500", "124151.137500", "124151.925000", "124152.712500", "124153.500000", "124154.290000", "124155.077500", "124155.865000", "124156.652500", "124157.442500", "124158.230000", "124159.017500", "124159.805000", "124200.595000", "124201.382500", "124202.170000", "124202.957500", "124203.747500", "124204.535000", "124205.322500", "124206.110000", "124206.900000", "124207.687500", "124208.475000", "124209.265000", "124210.052500", "124210.840000", "124211.627500", "124212.417500", "124213.205000", "124213.992500", "124214.780000", "124215.570000", "124216.357500", "124217.145000", "124217.932500", "124218.722500", "124219.510000", "124220.297500", "124221.085000", "124221.875000", "124222.662500", "124223.450000", "124224.237500", "124225.027500", "124225.815000", "124226.602500", "124227.392500", "124228.180000", "124228.967500", "124229.755000", "124230.545000", "124231.332500", "124232.120000", "124232.907500", "124233.697500", "124234.485000", "124235.272500", "124236.060000", "124236.850000", "124237.637500", "124238.425000", "124239.212500", "124240.002500", "124240.790000", "124241.577500", "124242.365000", "124243.155000", "124243.942500", "124244.730000", "124245.520000", "124246.307500", "124247.095000", "124247.882500", "124248.672500", "124249.460000", "124250.247500", "124251.035000", "124251.825000", "124252.612500", "124253.400000", "124254.187500", "124254.977500", "124255.765000", "124256.552500", "124257.340000", "124258.130000", "124258.917500", "124259.705000", "124300.492500", "124301.282500", "124302.070000", "124302.857500", "124303.647500", "124304.435000", "124305.222500", "124306.010000", "124306.800000", "124307.587500", "124308.375000", "124309.162500", "124309.952500", "124310.740000", "124311.527500", "124312.315000", "124313.105000", "124313.892500", "124314.680000", "124315.467500", "124316.257500", "124317.045000", "124317.832500", "124318.620000", "124319.410000", "124320.197500", "124320.985000", "124321.775000", "124322.562500", "124323.350000", "124324.137500", "124324.927500", "124325.715000", "124326.502500", "124327.290000", "124328.080000", "124328.867500", "124329.655000", "124330.442500", "124331.232500", "124332.020000", "124332.807500", "124333.595000", "124334.385000", "124335.172500", "124335.960000", "124336.747500", "124337.537500", "124338.325000", "124339.112500", "124339.902500", "124340.690000", "124341.477500", "124342.265000", "124343.055000", "124343.842500", "124344.630000", "124345.417500", "124346.207500", "124346.995000", "124347.782500", "124348.570000", "124349.360000", "124350.147500", "124350.935000", "124351.722500", "124352.512500", "124353.300000", "124354.087500", "124354.875000", "124355.665000", "124356.452500", "124357.240000", "124358.030000", "124358.817500", "124359.605000", "124400.392500", "124401.182500", "124401.970000", "124402.757500", "124403.545000", "124404.335000", "124405.122500", "124405.910000", "124406.697500", "124407.487500", "124408.275000", "124409.062500", "124409.850000", "124410.640000", "124411.427500", "124412.215000", "124413.002500", "124413.792500", "124414.580000", "124415.367500", "124416.157500", "124416.945000", "124417.732500", "124418.520000", "124419.310000", "124420.097500", "124420.885000", "124421.672500", "124422.462500", "124423.250000", "124424.037500", "124424.825000", "124425.615000", "124426.402500", "124427.190000", "124427.977500", "124428.767500", "124429.555000", "124430.342500", "124431.130000", "124431.920000", "124432.707500", "124433.495000", "124434.285000", "124435.072500", "124435.860000", "124436.647500", "124437.437500", "124438.225000", "124439.012500", "124439.800000", "124440.590000", "124441.377500", "124442.165000", "124442.952500", "124443.742500", "124444.530000", "124445.317500", "124446.105000", "124446.895000", "124447.682500", "124448.470000", "124449.257500", "124450.047500", "124450.835000", "124451.622500", "124452.412500", "124453.200000", "124453.987500", "124454.775000", "124455.565000", "124456.352500", "124457.140000", "124457.927500", "124458.717500", "124459.505000", "124500.292500", "124501.080000", "124501.870000", "124502.657500", "124503.445000", "124504.232500", "124505.022500", "124505.810000", "124506.597500", "124507.387500", "124508.175000", "124508.962500", "124509.750000", "124510.540000", "124511.327500", "124512.115000", "124512.902500", "124513.692500", "124514.480000", "124515.267500", "124516.055000", "124516.845000", "124517.632500", "124518.420000", "124519.207500", "124519.997500", "124520.785000", "124521.572500", "124522.360000", "124523.150000", "124523.937500", "124524.725000", "124525.515000", "124526.302500", "124527.090000", "124527.877500", "124528.667500", "124529.455000", "124530.242500", "124531.030000", "124531.820000", "124532.607500"],
      "ContentTime": ["123829.015000", "123829.015000", "123829.031000", "123829.031000", "123829.031000", "123829.031000", "123829.031000", "123829.031000", "123829.031000", "123829.046000", "123829.046000", "123829.046000", "123829.046000", "123829.046000", "123829.046000", "123829.046000", "123829.062000", "123829.062000", "123829.062000", "123829.062000", "123829.062000", "123829.078000", "123829.078000", "123829.078000", "123829.078000", "123829.078000", "123829.078000", "123829.078000", "123829.093000", "123829.093000", "123829.093000", "123829.093000", "123829.093000", "123829.093000", "123829.093000", "123829.109000", "123829.109000", "123829.109000", "123829.109000", "123829.109000", "123829.109000", "123848.984000", "123848.984000", "123849.000000", "123849.000000", "123849.000000", "123849.000000", "123849.000000", "123849.000000", "123849.000000", "123849.015000", "123849.015000", "123849.015000", "123849.015000", "123849.015000", "123849.015000", "123849.015000", "123849.031000", "123849.031000", "123849.031000", "123849.031000", "123849.031000", "123849.031000", "123849.031000", "123849.046000", "123849.046000", "123908.984000", "123908.984000", "123909.000000", "123909.000000", "123909.000000", "123909.000000", "123909.000000", "123909.000000", "123909.000000", "123909.015000", "123909.015000", "123909.015000", "123909.015000", "123909.015000", "123909.015000", "123909.015000", "123909.031000", "123909.031000", "123909.031000", "123909.031000", "123909.031000", "123909.031000", "123909.031000", "123909.046000", "123909.046000", "123909.046000", "123928.984000", "123928.984000", "123929.000000", "123929.000000", "123929.000000", "123929.000000", "123929.000000", "123929.000000", "123929.000000", "123929.015000", "123929.015000", "123929.015000", "123929.015000", "123929.015000", "123929.015000", "123929.015000", "123929.031000", "123929.031000", "123929.031000", "123929.031000", "123929.031000", "123929.031000", "123929.031000", "123929.046000", "123929.046000", "123948.984000", "123948.984000", "123949.000000", "123949.000000", "123949.000000", "123949.000000", "123949.000000", "123949.000000", "123949.015000", "123949.015000", "123949.015000", "123949.015000", "123949.015000", "123949.015000", "123949.015000", "123949.031000", "123949.031000", "123949.031000", "123949.031000", "123949.031000", "123949.031000", "123949.031000", "123949.046000", "123949.046000", "123949.046000", "123949.046000", "124008.984000", "124008.984000", "124009.000000", "124009.000000", "124009.000000", "124009.000000", "124009.000000", "124009.000000", "124009.000000", "124009.015000", "124009.015000", "124009.015000", "124009.015000", "124009.015000", "124009.015000", "124009.015000", "124009.031000", "124009.031000", "124009.031000", "124009.031000", "124009.031000", "124009.031000", "124009.046000", "124009.046000", "124009.046000", "124028.984000", "124028.984000", "124029.000000", "124029.000000", "124029.000000", "124029.000000", "124029.000000", "124029.000000", "124029.000000", "124029.015000", "124029.015000", "124029.015000", "124029.015000", "124029.015000", "124029.015000", "124029.015000", "124029.031000", "124029.031000", "124029.031000", "124029.031000", "124029.031000", "124029.031000", "124029.031000", "124029.046000", "124029.046000", "124029.046000", "124048.984000", "124048.984000", "124049.000000", "124049.000000", "124049.000000", "124049.000000", "124049.000000", "124049.000000", "124049.000000", "124049.015000", "124049.015000", "124049.015000", "124049.015000", "124049.015000", "124049.015000", "124049.015000", "124049.031000", "124049.031000", "124049.031000", "124049.031000", "124049.031000", "124049.031000", "124049.031000", "124049.046000", "124049.046000", "124108.984000", "124108.984000", "124109.000000", "124109.000000", "124109.000000", "124109.000000", "124109.000000", "124109.000000", "124109.000000", "124109.015000", "124109.015000", "124109.015000", "124109.015000", "124109.015000", "124109.015000", "124109.015000", "124109.031000", "124109.031000", "124109.031000", "124109.031000", "124109.031000", "124109.031000", "124109.031000", "124109.046000", "124109.046000", "124109.046000", "124128.984000", "124128.984000", "124129.000000", "124129.000000", "124129.000000", "124129.000000", "124129.000000", "124129.000000", "124129.000000", "124129.015000", "124129.015000", "124129.015000", "124129.015000", "124129.015000", "124129.015000", "124129.015000", "124129.031000", "124129.031000", "124129.031000", "124129.031000", "124129.031000", "124129.031000", "124129.031000", "124129.046000", "124129.046000", "124148.984000", "124148.984000", "124149.000000", "124149.000000", "124149.000000", "124149.000000", "124149.000000", "124149.000000", "124149.000000", "124149.015000", "124149.015000", "124149.015000", "124149.015000", "124149.015000", "124149.015000", "124149.031000", "124149.031000", "124149.031000", "124149.031000", "124149.031000", "124149.031000", "124149.046000", "124149.046000", "124149.046000", "124149.046000", "124149.046000", "124208.984000", "124208.984000", "124209.000000", "124209.000000", "124209.000000", "124209.000000", "124209.000000", "124209.000000", "124209.000000", "124209.015000", "124209.015000", "124209.015000", "124209.015000", "124209.015000", "124209.015000", "124209.015000", "124209.031000", "124209.031000", "124209.031000", "124209.031000", "124209.031000", "124209.046000", "124209.046000", "124209.046000", "124209.046000", "124228.984000", "124228.984000", "124229.000000", "124229.000000", "124229.000000", "124229.000000", "124229.000000", "124229.000000", "124229.000000", "124229.015000", "124229.015000", "124229.015000", "124229.015000", "124229.015000", "124229.015000", "124229.015000", "124229.031000", "124229.031000", "124229.031000", "124229.031000", "124229.031000", "124229.031000", "124229.031000", "124229.046000", "124229.046000", "124229.046000", "124248.984000", "124248.984000", "124249.000000", "124249.000000", "124249.000000", "124249.000000", "124249.000000", "124249.000000", "124249.000000", "124249.015000", "124249.015000", "124249.015000", "124249.015000", "124249.015000", "124249.015000", "124249.015000", "124249.031000", "124249.031000", "124249.031000", "124249.031000", "124249.031000", "124249.031000", "124249.046000", "124249.046000", "124249.046000", "124308.984000", "124309.000000", "124309.000000", "124309.000000", "124309.000000", "124309.000000", "124309.015000", "124309.015000", "124309.015000", "124309.015000", "124309.015000", "124309.015000", "124309.031000", "124309.031000", "124309.031000", "124309.031000", "124309.031000", "124309.031000", "124309.046000", "124309.046000", "124309.046000", "124309.046000", "124309.046000", "124309.046000", "124309.062000", "124309.062000", "124328.984000", "124328.984000", "124329.000000", "124329.000000", "124329.000000", "124329.000000", "124329.000000", "124329.000000", "124329.000000", "124329.015000", "124329.015000", "124329.015000", "124329.015000", "124329.015000", "124329.015000", "124329.015000", "124329.031000", "124329.031000", "124329.031000", "124329.031000", "124329.031000", "124329.031000", "124329.046000", "124329.046000", "124329.046000", "124348.984000", "124348.984000", "124349.000000", "124349.000000", "124349.000000", "124349.000000", "124349.000000", "124349.000000", "124349.000000", "124349.015000", "124349.015000", "124349.015000", "124349.015000", "124349.015000", "124349.015000", "124349.031000", "124349.031000", "124349.031000", "124349.031000", "124349.031000", "124349.031000", "124349.031000", "124349.046000", "124349.046000", "124349.046000", "124408.984000", "124408.984000", "124409.000000", "124409.000000", "124409.015000", "124409.015000", "124409.015000", "124409.015000", "124409.015000", "124409.015000", "124409.015000", "124409.031000", "124409.031000", "124409.031000", "124409.031000", "124409.031000", "124409.031000", "124409.046000", "124409.046000", "124409.046000", "124409.046000", "124409.046000", "124409.046000", "124409.046000", "124409.062000", "124409.062000", "124428.984000", "124428.984000", "124429.000000", "124429.000000", "124429.000000", "124429.000000", "124429.000000", "124429.000000", "124429.000000", "124429.015000", "124429.015000", "124429.015000", "124429.015000", "124429.015000", "124429.031000", "124429.031000", "124429.031000", "124429.031000", "124429.031000", "124429.031000", "124429.031000", "124429.046000", "124429.046000", "124429.046000", "124429.046000", "124448.984000", "124448.984000", "124449.000000", "124449.000000", "124449.000000", "124449.000000", "124449.000000", "124449.000000", "124449.000000", "124449.015000", "124449.015000", "124449.015000", "124449.015000", "124449.015000", "124449.015000", "124449.031000", "124449.031000", "124449.031000", "124449.031000", "124449.031000", "124449.031000", "124449.031000", "124449.046000", "124449.046000", "124449.046000", "124449.046000", "124508.984000", "124508.984000", "124509.000000", "124509.000000", "124509.000000", "124509.000000", "124509.000000", "124509.000000", "124509.000000", "124509.015000", "124509.015000", "124509.015000", "124509.015000", "124509.015000", "124509.015000", "124509.031000", "124509.031000", "124509.031000", "124509.031000", "124509.031000", "124509.046000", "124509.046000", "124509.046000", "124509.046000", "124509.046000", "124528.984000", "124528.984000", "124529.000000", "124529.000000", "124529.000000", "124529.000000", "124529.000000", "124529.000000", "124529.000000", "124529.015000", "124529.015000", "124529.015000", "124529.015000", "124529.015000", "124529.015000", "124529.015000", "124529.031000", "124529.031000", "124529.031000", "124529.031000", "124529.031000", "124529.031000", "124529.031000", "124529.046000", "124529.046000", "124529.046000", "124532.671000", "124532.671000", "124532.671000", "124532.671000", "124532.687000"],
      "DataSetTrailingPadding": [
        "\u0000\u0000\u0000\u0000\u0000\u0000\u0000\u0000\u0000\u0000\u0000\u0000\u0000\u0000\u0000\u0000\u0000\u0000\u0000\u0000\u0000\u0000\u0000\u0000\u0000\u0000\u0000\u0000\u0000\u0000\u0000\u0000\u0000\u0000\u0000\u0000\u0000\u0000",
        "\u0000\u0000\u0000\u0000\u0000\u0000\u0000\u0000\u0000\u0000\u0000\u0000\u0000\u0000\u0000\u0000\u0000\u0000\u0000\u0000\u0000\u0000\u0000\u0000\u0000\u0000\u0000\u0000\u0000\u0000\u0000\u0000\u0000\u0000\u0000\u0000",
        "\u0000\u0000\u0000\u0000\u0000\u0000\u0000\u0000\u0000\u0000\u0000\u0000\u0000\u0000\u0000\u0000\u0000\u0000\u0000\u0000\u0000\u0000\u0000\u0000\u0000\u0000\u0000\u0000\u0000\u0000\u0000\u0000\u0000\u0000\u0000\u0000\u0000\u0000",
        "\u0000\u0000\u0000\u0000\u0000\u0000\u0000\u0000\u0000\u0000\u0000\u0000\u0000\u0000\u0000\u0000\u0000\u0000\u0000\u0000\u0000\u0000\u0000\u0000\u0000\u0000\u0000\u0000\u0000\u0000\u0000\u0000\u0000\u0000\u0000\u0000",
        "\u0000\u0000\u0000\u0000\u0000\u0000\u0000\u0000\u0000\u0000\u0000\u0000\u0000\u0000\u0000\u0000\u0000\u0000\u0000\u0000\u0000\u0000\u0000\u0000\u0000\u0000\u0000\u0000\u0000\u0000\u0000\u0000\u0000\u0000\u0000\u0000\u0000\u0000",
        "\u0000\u0000\u0000\u0000\u0000\u0000\u0000\u0000\u0000\u0000\u0000\u0000\u0000\u0000\u0000\u0000\u0000\u0000\u0000\u0000\u0000\u0000\u0000\u0000\u0000\u0000\u0000\u0000\u0000\u0000\u0000\u0000\u0000\u0000\u0000\u0000\u0000\u0000\u0000\u0000",
        "\u0000\u0000\u0000\u0000\u0000\u0000\u0000\u0000\u0000\u0000\u0000\u0000\u0000\u0000\u0000\u0000\u0000\u0000\u0000\u0000\u0000\u0000\u0000\u0000\u0000\u0000\u0000\u0000\u0000\u0000\u0000\u0000\u0000\u0000\u0000\u0000",
        "\u0000\u0000\u0000\u0000\u0000\u0000\u0000\u0000\u0000\u0000\u0000\u0000\u0000\u0000\u0000\u0000\u0000\u0000\u0000\u0000\u0000\u0000\u0000\u0000\u0000\u0000\u0000\u0000\u0000\u0000\u0000\u0000\u0000\u0000\u0000\u0000\u0000\u0000",
