{
  "AcquisitionMatrixPE": 104,
  "AcquisitionNumber": 1,
  "AcquisitionTime": "13:03:0.707500",
  "BandwidthPerPixelPhaseEncode": 13.935,
  "BaseResolution": 104,
  "CoilString": "C:HEA;HEP",
  "ConversionSoftware": "dcm2niix",
  "ConversionSoftwareVersion": "v1.0.20210317",
  "DerivedVendorReportedEchoSpacing": 0.000690017,
  "DeviceSerialNumber": "35450",
  "DwellTime": 2.5e-06,
  "EchoTime": 0.0348,
  "EffectiveEchoSpacing": 0.000690017,
  "FlipAngle": 55,
  "ImageComments": "Unaliased MB8/PE3 (remote)",
  "ImageOrientationPatientDICOM": [0.999278, 0.00357387, -0.0378182, 5.30526e-08, 0.995564, 0.0940837],
  "ImageType": [
    "ORIGINAL",
    "PRIMARY",
    "M",
    "MB",
    "ND",
    "MOSAIC"
],
  "ImagingFrequency": 123.234,
  "InPlanePhaseEncodingDirectionDICOM": "COL",
  "InstitutionAddress": "Univeristy Ave. 197,Newark,North East,US,07102-1814",
  "InstitutionName": "RUBIC",
  "InstitutionalDepartmentName": "Department",
  "MRAcquisitionType": "2D",
  "MagneticFieldStrength": 3,
  "Manufacturer": "Siemens",
  "ManufacturersModelName": "TrioTim",
  "Modality": "MR",
  "MultibandAccelerationFactor": 8,
  "PartialFourier": 0.875,
  "PatientPosition": "HFS",
  "PercentPhaseFOV": 100,
  "PercentSampling": 100,
  "PhaseEncodingDirection": "j-",
  "PhaseEncodingSteps": 91,
  "PhaseResolution": 1,
  "PixelBandwidth": 1923,
  "ProcedureStepDescription": "Cole^Michael",
  "ProtocolName": "cmrr_mbep2d_bold_2mm_MB8_Task_8x",
  "PulseSequenceDetails": "%CustomerSeq%\\cmrr_mbep2d_bold",
  "ReceiveCoilName": "32Ch_Head",
  "ReconMatrixPE": 104,
  "RepetitionTime": 0.785,
  "SAR": 0.129367,
  "ScanOptions": "PFP\\FS",
  "ScanningSequence": "EP",
  "SequenceName": "epfid2d1_104",
  "SequenceVariant": "SK\\SS",
  "SeriesDescription": "cmrr_mbep2d_bold_2mm_MB8_Task_8x",
  "SeriesNumber": 19,
  "ShimSetting": [2079, -435, -7348, 696, 181, -126, 152, 25],
  "SliceThickness": 2,
  "SliceTiming": [0, 0.4375, 0.0875, 0.525, 0.175, 0.6125, 0.2625, 0.7, 0.35, 0, 0.4375, 0.0875, 0.525, 0.175, 0.6125, 0.2625, 0.7, 0.35, 0, 0.4375, 0.0875, 0.525, 0.175, 0.6125, 0.2625, 0.7, 0.35, 0, 0.4375, 0.0875, 0.525, 0.175, 0.6125, 0.2625, 0.7, 0.35, 0, 0.4375, 0.0875, 0.525, 0.175, 0.6125, 0.2625, 0.7, 0.35, 0, 0.4375, 0.0875, 0.525, 0.175, 0.6125, 0.2625, 0.7, 0.35, 0, 0.4375, 0.0875, 0.525, 0.175, 0.6125, 0.2625, 0.7, 0.35, 0, 0.4375, 0.0875, 0.525, 0.175, 0.6125, 0.2625, 0.7, 0.35],
  "SoftwareVersions": "syngo MR B19",
  "SpacingBetweenSlices": 2,
  "StationName": "MRC35450",
  "TaskName": "cpro",
  "TotalReadoutTime": 0.0710717,
  "TxRefAmp": 319.102,
  "dcmmeta_affine": [
    [-1.9985564947128296, 1.0610514067366239e-07, -0.07597333937883377, 105.36046600341797],
    [-0.007147747091948986, 1.9911285638809204, 0.18803159892559052, -89.63948822021484],
    [-0.0756363496184349, -0.18816740810871124, 1.9896914958953857, -71.8756103515625],
    [0.0, 0.0, 0.0, 1.0]
],
  "dcmmeta_reorient_transform": [
    [0.0, -1.0, 0.0, 103.0],
    [1.0, 0.0, 0.0, 0.0],
    [0.0, 0.0, 1.0, 0.0],
    [0.0, 0.0, 0.0, 1.0]
],
  "dcmmeta_shape": [104, 104, 72, 581],
  "dcmmeta_slice_dim": 2,
  "dcmmeta_version": 0.6,
  "global": {
    "const": {
      "AcquisitionMatrix": [104, 0, 0, 104],
      "AngioFlag": "N",
      "BitsAllocated": 16,
      "BitsStored": 12,
      "Columns": 936,
      "EchoNumbers": 1,
      "EchoTime": 34.8,
      "EchoTrainLength": 1,
      "FlipAngle": 55.0,
      "HighBit": 11,
      "ImageOrientationPatient": [0.99927824603136, 0.00357387361232, -0.0378181759989, 5.3052572e-08, 0.99556429084606, 0.09408370099105],
      "ImagePositionPatient": [-936.76002110849, -946.72970937659, -138.06976668317],
      "ImageType": [
        "ORIGINAL",
        "PRIMARY",
        "M",
        "MB",
        "ND",
        "MOSAIC"
],
      "ImagedNucleus": "1H",
      "ImagingFrequency": 123.234468,
      "InPlanePhaseEncodingDirection": "COL",
      "MRAcquisitionType": "2D",
      "MagneticFieldStrength": 3.0,
      "Manufacturer": "SIEMENS",
      "ManufacturerModelName": "TrioTim",
      "Modality": "MR",
      "NumberOfAverages": 1.0,
      "NumberOfPhaseEncodingSteps": 91,
      "PercentPhaseFieldOfView": 100.0,
      "PercentSampling": 100.0,
      "PerformedProcedureStepStartTime": "114849.859000",
      "PhotometricInterpretation": "MONOCHROME2",
      "PixelBandwidth": 1923.0,
      "PixelRepresentation": 0,
      "PixelSpacing": [2.0, 2.0],
      "ProtocolName": "cmrr_mbep2d_bold_2mm_MB8_Task_8x",
      "RepetitionTime": 785.0,
      "Rows": 936,
      "SAR": 0.12936703884619,
      "SamplesPerPixel": 1,
      "ScanOptions": [
        "PFP",
        "FS"
],
      "ScanningSequence": "EP",
      "SequenceName": "epfid2d1_104",
      "SequenceVariant": [
        "SK",
        "SS"
],
      "SeriesDescription": "cmrr_mbep2d_bold_2mm_MB8_Task_8x",
      "SeriesNumber": 19,
      "SeriesTime": "130329.015000",
      "SliceLocation": -83.934962801648,
      "SliceThickness": 2.0,
      "SmallestImagePixelValue": 0,
      "SoftwareVersions": "syngo MR B19",
      "SpacingBetweenSlices": 2.0000000298538,
      "SpecificCharacterSet": "ISO_IR 100",
      "StudyID": "1",
      "StudyTime": "114849.812000",
      "TransmitCoilName": "Body",
      "VariableFlipAngleFlag": "N",
      "WindowCenterWidthExplanation": "Algo1",
      "dBdt": 0.0},
    "slices": {}
  },
  "time": {
    "samples": {
      "AcquisitionNumber": [1, 2, 3, 4, 5, 6, 7, 8, 9, 10, 11, 12, 13, 14, 15, 16, 17, 18, 19, 20, 21, 22, 23, 24, 25, 26, 27, 28, 29, 30, 31, 32, 33, 34, 35, 36, 37, 38, 39, 40, 41, 42, 43, 44, 45, 46, 47, 48, 49, 50, 51, 52, 53, 54, 55, 56, 57, 58, 59, 60, 61, 62, 63, 64, 65, 66, 67, 68, 69, 70, 71, 72, 73, 74, 75, 76, 77, 78, 79, 80, 81, 82, 83, 84, 85, 86, 87, 88, 89, 90, 91, 92, 93, 94, 95, 96, 97, 98, 99, 100, 101, 102, 103, 104, 105, 106, 107, 108, 109, 110, 111, 112, 113, 114, 115, 116, 117, 118, 119, 120, 121, 122, 123, 124, 125, 126, 127, 128, 129, 130, 131, 132, 133, 134, 135, 136, 137, 138, 139, 140, 141, 142, 143, 144, 145, 146, 147, 148, 149, 150, 151, 152, 153, 154, 155, 156, 157, 158, 159, 160, 161, 162, 163, 164, 165, 166, 167, 168, 169, 170, 171, 172, 173, 174, 175, 176, 177, 178, 179, 180, 181, 182, 183, 184, 185, 186, 187, 188, 189, 190, 191, 192, 193, 194, 195, 196, 197, 198, 199, 200, 201, 202, 203, 204, 205, 206, 207, 208, 209, 210, 211, 212, 213, 214, 215, 216, 217, 218, 219, 220, 221, 222, 223, 224, 225, 226, 227, 228, 229, 230, 231, 232, 233, 234, 235, 236, 237, 238, 239, 240, 241, 242, 243, 244, 245, 246, 247, 248, 249, 250, 251, 252, 253, 254, 255, 256, 257, 258, 259, 260, 261, 262, 263, 264, 265, 266, 267, 268, 269, 270, 271, 272, 273, 274, 275, 276, 277, 278, 279, 280, 281, 282, 283, 284, 285, 286, 287, 288, 289, 290, 291, 292, 293, 294, 295, 296, 297, 298, 299, 300, 301, 302, 303, 304, 305, 306, 307, 308, 309, 310, 311, 312, 313, 314, 315, 316, 317, 318, 319, 320, 321, 322, 323, 324, 325, 326, 327, 328, 329, 330, 331, 332, 333, 334, 335, 336, 337, 338, 339, 340, 341, 342, 343, 344, 345, 346, 347, 348, 349, 350, 351, 352, 353, 354, 355, 356, 357, 358, 359, 360, 361, 362, 363, 364, 365, 366, 367, 368, 369, 370, 371, 372, 373, 374, 375, 376, 377, 378, 379, 380, 381, 382, 383, 384, 385, 386, 387, 388, 389, 390, 391, 392, 393, 394, 395, 396, 397, 398, 399, 400, 401, 402, 403, 404, 405, 406, 407, 408, 409, 410, 411, 412, 413, 414, 415, 416, 417, 418, 419, 420, 421, 422, 423, 424, 425, 426, 427, 428, 429, 430, 431, 432, 433, 434, 435, 436, 437, 438, 439, 440, 441, 442, 443, 444, 445, 446, 447, 448, 449, 450, 451, 452, 453, 454, 455, 456, 457, 458, 459, 460, 461, 462, 463, 464, 465, 466, 467, 468, 469, 470, 471, 472, 473, 474, 475, 476, 477, 478, 479, 480, 481, 482, 483, 484, 485, 486, 487, 488, 489, 490, 491, 492, 493, 494, 495, 496, 497, 498, 499, 500, 501, 502, 503, 504, 505, 506, 507, 508, 509, 510, 511, 512, 513, 514, 515, 516, 517, 518, 519, 520, 521, 522, 523, 524, 525, 526, 527, 528, 529, 530, 531, 532, 533, 534, 535, 536, 537, 538, 539, 540, 541, 542, 543, 544, 545, 546, 547, 548, 549, 550, 551, 552, 553, 554, 555, 556, 557, 558, 559, 560, 561, 562, 563, 564, 565, 566, 567, 568, 569, 570, 571, 572, 573, 574, 575, 576, 577, 578, 579, 580, 581],
      "AcquisitionTime": ["130300.707500", "130301.495000", "130302.285000", "130303.072500", "130303.860000", "130304.647500", "130305.437500", "130306.225000", "130307.012500", "130307.800000", "130308.590000", "130309.377500", "130310.165000", "130310.952500", "130311.742500", "130312.530000", "130313.317500", "130314.107500", "130314.895000", "130315.682500", "130316.470000", "130317.260000", "130318.047500", "130318.835000", "130319.622500", "130320.412500", "130321.200000", "130321.987500", "130322.775000", "130323.565000", "130324.352500", "130325.140000", "130325.927500", "130326.717500", "130327.505000", "130328.292500", "130329.080000", "130329.870000", "130330.657500", "130331.445000", "130332.235000", "130333.022500", "130333.810000", "130334.597500", "130335.387500", "130336.175000", "130336.962500", "130337.750000", "130338.540000", "130339.327500", "130340.115000", "130340.902500", "130341.692500", "130342.480000", "130343.267500", "130344.055000", "130344.845000", "130345.632500", "130346.420000", "130347.207500", "130347.997500", "130348.785000", "130349.572500", "130350.362500", "130351.150000", "130351.937500", "130352.725000", "130353.515000", "130354.302500", "130355.090000", "130355.877500", "130356.667500", "130357.455000", "130358.242500", "130359.030000", "130359.820000", "130400.607500", "130401.395000", "130402.182500", "130402.972500", "130403.760000", "130404.547500", "130405.335000", "130406.125000", "130406.912500", "130407.700000", "130408.490000", "130409.277500", "130410.065000", "130410.852500", "130411.642500", "130412.430000", "130413.217500", "130414.005000", "130414.795000", "130415.582500", "130416.370000", "130417.157500", "130417.947500", "130418.735000", "130419.522500", "130420.310000", "130421.100000", "130421.887500", "130422.675000", "130423.462500", "130424.252500", "130425.040000", "130425.827500", "130426.617500", "130427.405000", "130428.192500", "130428.980000", "130429.770000", "130430.557500", "130431.345000", "130432.132500", "130432.922500", "130433.710000", "130434.497500", "130435.285000", "130436.075000", "130436.862500", "130437.650000", "130438.437500", "130439.227500", "130440.015000", "130440.802500", "130441.590000", "130442.380000", "130443.167500", "130443.955000", "130444.745000", "130445.532500", "130446.320000", "130447.107500", "130447.897500", "130448.685000", "130449.472500", "130450.260000", "130451.050000", "130451.837500", "130452.625000", "130453.412500", "130454.202500", "130454.990000", "130455.777500", "130456.565000", "130457.355000", "130458.142500", "130458.930000", "130459.717500", "130500.507500", "130501.295000", "130502.082500", "130502.872500", "130503.660000", "130504.447500", "130505.235000", "130506.025000", "130506.812500", "130507.600000", "130508.387500", "130509.177500", "130509.965000", "130510.752500", "130511.540000", "130512.330000", "130513.117500", "130513.905000", "130514.692500", "130515.482500", "130516.270000", "130517.057500", "130517.847500", "130518.635000", "130519.422500", "130520.210000", "130521.000000", "130521.787500", "130522.575000", "130523.362500", "130524.152500", "130524.940000", "130525.727500", "130526.515000", "130527.305000", "130528.092500", "130528.880000", "130529.667500", "130530.457500", "130531.245000", "130532.032500", "130532.820000", "130533.610000", "130534.397500", "130535.185000", "130535.975000", "130536.762500", "130537.550000", "130538.337500", "130539.127500", "130539.915000", "130540.702500", "130541.490000", "130542.280000", "130543.067500", "130543.855000", "130544.642500", "130545.432500", "130546.220000", "130547.007500", "130547.795000", "130548.585000", "130549.372500", "130550.160000", "130550.947500", "130551.737500", "130552.525000", "130553.312500", "130554.102500", "130554.890000", "130555.677500", "130556.465000", "130557.255000", "130558.042500", "130558.830000", "130559.617500", "130600.407500", "130601.195000", "130601.982500", "130602.770000", "130603.560000", "130604.347500", "130605.135000", "130605.922500", "130606.712500", "130607.500000", "130608.287500", "130609.075000", "130609.865000", "130610.652500", "130611.440000", "130612.230000", "130613.017500", "130613.805000", "130614.592500", "130615.382500", "130616.170000", "130616.957500", "130617.745000", "130618.535000", "130619.322500", "130620.110000", "130620.897500", "130621.687500", "130622.475000", "130623.262500", "130624.050000", "130624.840000", "130625.627500", "130626.415000", "130627.202500", "130627.992500", "130628.780000", "130629.567500", "130630.357500", "130631.145000", "130631.932500", "130632.720000", "130633.510000", "130634.297500", "130635.085000", "130635.872500", "130636.662500", "130637.450000", "130638.237500", "130639.025000", "130639.815000", "130640.602500", "130641.390000", "130642.177500", "130642.967500", "130643.755000", "130644.542500", "130645.330000", "130646.120000", "130646.907500", "130647.695000", "130648.485000", "130649.272500", "130650.060000", "130650.847500", "130651.637500", "130652.425000", "130653.212500", "130654.000000", "130654.790000", "130655.577500", "130656.365000", "130657.152500", "130657.942500", "130658.730000", "130659.517500", "130700.305000", "130701.095000", "130701.882500", "130702.670000", "130703.457500", "130704.247500", "130705.035000", "130705.822500", "130706.612500", "130707.400000", "130708.187500", "130708.975000", "130709.765000", "130710.552500", "130711.340000", "130712.127500", "130712.917500", "130713.705000", "130714.492500", "130715.280000", "130716.070000", "130716.857500", "130717.645000", "130718.432500", "130719.222500", "130720.010000", "130720.797500", "130721.585000", "130722.375000", "130723.162500", "130723.950000", "130724.740000", "130725.527500", "130726.315000", "130727.102500", "130727.892500", "130728.680000", "130729.467500", "130730.255000", "130731.045000", "130731.832500", "130732.620000", "130733.407500", "130734.197500", "130734.985000", "130735.772500", "130736.560000", "130737.350000", "130738.137500", "130738.925000", "130739.712500", "130740.502500", "130741.290000", "130742.077500", "130742.867500", "130743.655000", "130744.442500", "130745.230000", "130746.020000", "130746.807500", "130747.595000", "130748.382500", "130749.172500", "130749.960000", "130750.747500", "130751.535000", "130752.325000", "130753.112500", "130753.900000", "130754.687500", "130755.477500", "130756.265000", "130757.052500", "130757.840000", "130758.630000", "130759.417500", "130800.205000", "130800.995000", "130801.782500", "130802.570000", "130803.357500", "130804.147500", "130804.935000", "130805.722500", "130806.510000", "130807.300000", "130808.087500", "130808.875000", "130809.662500", "130810.452500", "130811.240000", "130812.027500", "130812.815000", "130813.605000", "130814.392500", "130815.180000", "130815.967500", "130816.757500", "130817.545000", "130818.332500", "130819.122500", "130819.910000", "130820.697500", "130821.485000", "130822.275000", "130823.062500", "130823.850000", "130824.637500", "130825.427500", "130826.215000", "130827.002500", "130827.790000", "130828.580000", "130829.367500", "130830.155000", "130830.942500", "130831.732500", "130832.520000", "130833.307500", "130834.097500", "130834.885000", "130835.672500", "130836.460000", "130837.250000", "130838.037500", "130838.825000", "130839.612500", "130840.402500", "130841.190000", "130841.977500", "130842.765000", "130843.555000", "130844.342500", "130845.130000", "130845.917500", "130846.707500", "130847.495000", "130848.282500", "130849.070000", "130849.860000", "130850.647500", "130851.435000", "130852.225000", "130853.012500", "130853.800000", "130854.587500", "130855.377500", "130856.165000", "130856.952500", "130857.740000", "130858.530000", "130859.317500", "130900.105000", "130900.892500", "130901.682500", "130902.470000", "130903.257500", "130904.045000", "130904.835000", "130905.622500", "130906.410000", "130907.197500", "130907.987500", "130908.775000", "130909.562500", "130910.352500", "130911.140000", "130911.927500", "130912.715000", "130913.505000", "130914.292500", "130915.080000", "130915.867500", "130916.657500", "130917.445000", "130918.232500", "130919.020000", "130919.810000", "130920.597500", "130921.385000", "130922.172500", "130922.962500", "130923.750000", "130924.537500", "130925.325000", "130926.115000", "130926.902500", "130927.690000", "130928.480000", "130929.267500", "130930.055000", "130930.842500", "130931.632500", "130932.420000", "130933.207500", "130933.995000", "130934.785000", "130935.572500", "130936.360000", "130937.147500", "130937.937500", "130938.725000", "130939.512500", "130940.300000", "130941.090000", "130941.877500", "130942.665000", "130943.452500", "130944.242500", "130945.030000", "130945.817500", "130946.607500", "130947.395000", "130948.182500", "130948.970000", "130949.760000", "130950.547500", "130951.335000", "130952.122500", "130952.912500", "130953.700000", "130954.487500", "130955.275000", "130956.065000", "130956.852500", "130957.640000", "130958.427500", "130959.217500", "131000.005000", "131000.792500", "131001.580000", "131002.370000", "131003.157500", "131003.945000", "131004.735000", "131005.522500", "131006.310000", "131007.097500", "131007.887500", "131008.675000", "131009.462500", "131010.250000", "131011.040000", "131011.827500", "131012.615000", "131013.402500", "131014.192500", "131014.980000", "131015.767500", "131016.555000", "131017.345000", "131018.132500", "131018.920000", "131019.707500", "131020.497500", "131021.285000", "131022.072500", "131022.862500", "131023.650000", "131024.437500", "131025.225000", "131026.015000", "131026.802500", "131027.590000", "131028.377500", "131029.167500", "131029.955000", "131030.742500", "131031.530000", "131032.320000", "131033.107500", "131033.895000", "131034.682500", "131035.472500", "131036.260000", "131037.047500", "131037.835000"],
      "ContentTime": ["130329.015000", "130329.015000", "130329.015000", "130329.015000", "130329.015000", "130329.031000", "130329.031000", "130329.031000", "130329.031000", "130329.031000", "130329.031000", "130329.031000", "130329.046000", "130329.046000", "130329.046000", "130329.046000", "130329.046000", "130329.046000", "130329.046000", "130329.062000", "130329.062000", "130329.062000", "130329.062000", "130329.062000", "130329.062000", "130329.062000", "130329.078000", "130329.078000", "130329.078000", "130329.078000", "130329.078000", "130329.078000", "130329.078000", "130348.984000", "130348.984000", "130349.000000", "130349.000000", "130349.000000", "130349.000000", "130349.000000", "130349.000000", "130349.000000", "130349.015000", "130349.015000", "130349.015000", "130349.015000", "130349.015000", "130349.015000", "130349.015000", "130349.031000", "130349.031000", "130349.031000", "130349.031000", "130349.031000", "130349.031000", "130349.031000", "130349.046000", "130349.046000", "130349.046000", "130408.984000", "130408.984000", "130409.000000", "130409.000000", "130409.000000", "130409.000000", "130409.000000", "130409.000000", "130409.000000", "130409.015000", "130409.015000", "130409.015000", "130409.015000", "130409.015000", "130409.015000", "130409.015000", "130409.031000", "130409.031000", "130409.031000", "130409.031000", "130409.031000", "130409.031000", "130409.031000", "130409.046000", "130409.046000", "130428.984000", "130428.984000", "130429.000000", "130429.000000", "130429.000000", "130429.000000", "130429.000000", "130429.000000", "130429.000000", "130429.015000", "130429.015000", "130429.015000", "130429.015000", "130429.015000", "130429.031000", "130429.031000", "130429.031000", "130429.031000", "130429.031000", "130429.031000", "130429.031000", "130429.046000", "130429.046000", "130429.046000", "130429.046000", "130429.046000", "130448.984000", "130448.984000", "130449.000000", "130449.000000", "130449.000000", "130449.000000", "130449.000000", "130449.000000", "130449.000000", "130449.015000", "130449.015000", "130449.015000", "130449.015000", "130449.015000", "130449.031000", "130449.031000", "130449.031000", "130449.031000", "130449.031000", "130449.031000", "130449.031000", "130449.031000", "130449.046000", "130449.046000", "130449.046000", "130508.984000", "130508.984000", "130509.000000", "130509.000000", "130509.000000", "130509.000000", "130509.000000", "130509.000000", "130509.000000", "130509.015000", "130509.015000", "130509.015000", "130509.015000", "130509.015000", "130509.015000", "130509.015000", "130509.031000", "130509.031000", "130509.031000", "130509.031000", "130509.031000", "130509.031000", "130509.031000", "130509.046000", "130509.046000", "130509.046000", "130528.984000", "130528.984000", "130529.000000", "130529.000000", "130529.000000", "130529.000000", "130529.000000", "130529.000000", "130529.000000", "130529.015000", "130529.015000", "130529.015000", "130529.015000", "130529.015000", "130529.015000", "130529.015000", "130529.031000", "130529.031000", "130529.031000", "130529.031000", "130529.031000", "130529.046000", "130529.046000", "130529.046000", "130529.046000", "130548.984000", "130548.984000", "130549.000000", "130549.000000", "130549.000000", "130549.000000", "130549.000000", "130549.000000", "130549.000000", "130549.015000", "130549.015000", "130549.015000", "130549.015000", "130549.015000", "130549.015000", "130549.031000", "130549.031000", "130549.031000", "130549.031000", "130549.031000", "130549.031000", "130549.031000", "130549.046000", "130549.046000", "130549.046000", "130549.046000", "130608.984000", "130608.984000", "130609.000000", "130609.000000", "130609.000000", "130609.000000", "130609.000000", "130609.000000", "130609.015000", "130609.015000", "130609.015000", "130609.015000", "130609.031000", "130609.031000", "130609.031000", "130609.031000", "130609.031000", "130609.031000", "130609.031000", "130609.046000", "130609.046000", "130609.046000", "130609.046000", "130609.046000", "130609.046000", "130628.984000", "130628.984000", "130629.000000", "130629.000000", "130629.000000", "130629.000000", "130629.000000", "130629.000000", "130629.000000", "130629.015000", "130629.015000", "130629.015000", "130629.015000", "130629.015000", "130629.015000", "130629.015000", "130629.031000", "130629.031000", "130629.031000", "130629.031000", "130629.031000", "130629.031000", "130629.031000", "130629.046000", "130629.046000", "130648.984000", "130648.984000", "130649.000000", "130649.000000", "130649.000000", "130649.000000", "130649.000000", "130649.000000", "130649.000000", "130649.015000", "130649.015000", "130649.015000", "130649.015000", "130649.015000", "130649.015000", "130649.015000", "130649.031000", "130649.031000", "130649.031000", "130649.031000", "130649.031000", "130649.031000", "130649.031000", "130649.046000", "130649.046000", "130649.046000", "130708.984000", "130708.984000", "130709.000000", "130709.000000", "130709.000000", "130709.000000", "130709.000000", "130709.000000", "130709.000000", "130709.015000", "130709.015000", "130709.015000", "130709.015000", "130709.015000", "130709.015000", "130709.031000", "130709.031000", "130709.031000", "130709.031000", "130709.031000", "130709.031000", "130709.046000", "130709.046000", "130709.046000", "130709.046000", "130728.984000", "130728.984000", "130729.000000", "130729.000000", "130729.000000", "130729.000000", "130729.000000", "130729.000000", "130729.000000", "130729.015000", "130729.015000", "130729.015000", "130729.015000", "130729.015000", "130729.015000", "130729.015000", "130729.031000", "130729.031000", "130729.031000", "130729.031000", "130729.031000", "130729.031000", "130729.046000", "130729.046000", "130729.046000", "130729.046000", "130748.984000", "130748.984000", "130749.000000", "130749.000000", "130749.000000", "130749.000000", "130749.000000", "130749.000000", "130749.000000", "130749.015000", "130749.015000", "130749.015000", "130749.015000", "130749.015000", "130749.031000", "130749.031000", "130749.031000", "130749.031000", "130749.031000", "130749.031000", "130749.046000", "130749.046000", "130749.046000", "130749.046000", "130749.046000", "130808.984000", "130808.984000", "130809.000000", "130809.000000", "130809.000000", "130809.000000", "130809.000000", "130809.000000", "130809.000000", "130809.015000", "130809.015000", "130809.015000", "130809.015000", "130809.015000", "130809.015000", "130809.015000", "130809.031000", "130809.031000", "130809.031000", "130809.031000", "130809.031000", "130809.046000", "130809.046000", "130809.046000", "130809.046000", "130809.046000", "130828.984000", "130828.984000", "130829.000000", "130829.000000", "130829.000000", "130829.000000", "130829.000000", "130829.015000", "130829.015000", "130829.015000", "130829.015000", "130829.015000", "130829.015000", "130829.015000", "130829.031000", "130829.031000", "130829.031000", "130829.031000", "130829.031000", "130829.031000", "130829.031000", "130829.046000", "130829.046000", "130829.046000", "130829.046000", "130848.984000", "130848.984000", "130849.000000", "130849.000000", "130849.000000", "130849.000000", "130849.000000", "130849.000000", "130849.000000", "130849.015000", "130849.015000", "130849.015000", "130849.015000", "130849.015000", "130849.015000", "130849.015000", "130849.031000", "130849.031000", "130849.031000", "130849.031000", "130849.031000", "130849.046000", "130849.046000", "130849.046000", "130849.046000", "130849.046000", "130908.984000", "130908.984000", "130909.000000", "130909.000000", "130909.000000", "130909.000000", "130909.000000", "130909.000000", "130909.000000", "130909.015000", "130909.015000", "130909.015000", "130909.015000", "130909.015000", "130909.015000", "130909.015000", "130909.031000", "130909.031000", "130909.031000", "130909.031000", "130909.031000", "130909.031000", "130909.031000", "130909.046000", "130909.046000", "130928.984000", "130928.984000", "130929.000000", "130929.000000", "130929.000000", "130929.000000", "130929.000000", "130929.000000", "130929.000000", "130929.015000", "130929.015000", "130929.015000", "130929.015000", "130929.015000", "130929.015000", "130929.015000", "130929.031000", "130929.031000", "130929.031000", "130929.031000", "130929.031000", "130929.031000", "130929.031000", "130929.046000", "130929.046000", "130929.046000", "130948.984000", "130948.984000", "130949.000000", "130949.000000", "130949.000000", "130949.000000", "130949.000000", "130949.000000", "130949.000000", "130949.015000", "130949.015000", "130949.015000", "130949.015000", "130949.015000", "130949.015000", "130949.015000", "130949.031000", "130949.031000", "130949.031000", "130949.031000", "130949.031000", "130949.031000", "130949.046000", "130949.046000", "130949.046000", "131008.984000", "131008.984000", "131009.000000", "131009.000000", "131009.000000", "131009.000000", "131009.000000", "131009.000000", "131009.000000", "131009.015000", "131009.015000", "131009.015000", "131009.015000", "131009.015000", "131009.015000", "131009.015000", "131009.031000", "131009.031000", "131009.031000", "131009.031000", "131009.031000", "131009.031000", "131009.046000", "131009.046000", "131009.046000", "131009.046000", "131028.984000", "131028.984000", "131029.000000", "131029.000000", "131029.000000", "131029.000000", "131029.000000", "131029.000000", "131029.000000", "131029.015000", "131029.015000", "131029.015000", "131029.015000", "131029.015000", "131029.015000", "131029.015000", "131029.031000", "131029.031000", "131029.031000", "131029.031000", "131029.031000", "131029.031000", "131029.046000", "131029.046000", "131029.046000", "131038.750000", "131038.750000", "131038.750000", "131038.750000", "131038.750000", "131038.765000", "131038.765000", "131038.765000", "131038.765000", "131038.765000", "131038.765000", "131038.765000", "131038.781000"],
      "DataSetTrailingPadding": [
        "\u0000\u0000\u0000\u0000\u0000\u0000\u0000\u0000\u0000\u0000\u0000\u0000\u0000\u0000\u0000\u0000\u0000\u0000\u0000\u0000\u0000\u0000\u0000\u0000\u0000\u0000\u0000\u0000\u0000\u0000\u0000\u0000\u0000\u0000\u0000\u0000\u0000\u0000",
        "\u0000\u0000\u0000\u0000\u0000\u0000\u0000\u0000\u0000\u0000\u0000\u0000\u0000\u0000\u0000\u0000\u0000\u0000\u0000\u0000\u0000\u0000\u0000\u0000\u0000\u0000\u0000\u0000\u0000\u0000\u0000\u0000\u0000\u0000\u0000\u0000\u0000\u0000",
        "\u0000\u0000\u0000\u0000\u0000\u0000\u0000\u0000\u0000\u0000\u0000\u0000\u0000\u0000\u0000\u0000\u0000\u0000\u0000\u0000\u0000\u0000\u0000\u0000\u0000\u0000\u0000\u0000\u0000\u0000\u0000\u0000\u0000\u0000\u0000\u0000\u0000\u0000",
        "\u0000\u0000\u0000\u0000\u0000\u0000\u0000\u0000\u0000\u0000\u0000\u0000\u0000\u0000\u0000\u0000\u0000\u0000\u0000\u0000\u0000\u0000\u0000\u0000\u0000\u0000\u0000\u0000\u0000\u0000\u0000\u0000\u0000\u0000\u0000\u0000",
        "\u0000\u0000\u0000\u0000\u0000\u0000\u0000\u0000\u0000\u0000\u0000\u0000\u0000\u0000\u0000\u0000\u0000\u0000\u0000\u0000\u0000\u0000\u0000\u0000\u0000\u0000\u0000\u0000\u0000\u0000\u0000\u0000\u0000\u0000\u0000\u0000\u0000\u0000",
        "\u0000\u0000\u0000\u0000\u0000\u0000\u0000\u0000\u0000\u0000\u0000\u0000\u0000\u0000\u0000\u0000\u0000\u0000\u0000\u0000\u0000\u0000\u0000\u0000\u0000\u0000\u0000\u0000\u0000\u0000\u0000\u0000\u0000\u0000\u0000\u0000",
        "\u0000\u0000\u0000\u0000\u0000\u0000\u0000\u0000\u0000\u0000\u0000\u0000\u0000\u0000\u0000\u0000\u0000\u0000\u0000\u0000\u0000\u0000\u0000\u0000\u0000\u0000\u0000\u0000\u0000\u0000\u0000\u0000\u0000\u0000\u0000\u0000",
        "\u0000\u0000\u0000\u0000\u0000\u0000\u0000\u0000\u0000\u0000\u0000\u0000\u0000\u0000\u0000\u0000\u0000\u0000\u0000\u0000\u0000\u0000\u0000\u0000\u0000\u0000\u0000\u0000\u0000\u0000\u0000\u0000\u0000\u0000\u0000\u0000\u0000\u0000",
