{
  "AcquisitionMatrixPE": 104,
  "AcquisitionNumber": 1,
  "AcquisitionTime": "12:13:53.955000",
  "BandwidthPerPixelPhaseEncode": 13.935,
  "BaseResolution": 104,
  "CoilString": "C:HEA;HEP",
  "ConversionSoftware": "dcm2niix",
  "ConversionSoftwareVersion": "v1.0.20210317",
  "DerivedVendorReportedEchoSpacing": 0.000690017,
  "DeviceSerialNumber": "35450",
  "DwellTime": 2.5e-06,
  "EchoTime": 0.0348,
  "EffectiveEchoSpacing": 0.000690017,
  "FlipAngle": 55,
  "ImageComments": "Unaliased MB8/PE3 (remote)",
  "ImageOrientationPatientDICOM": [0.999278, 0.00357387, -0.0378182, 5.30526e-08, 0.995564, 0.0940837],
  "ImageType": [
    "ORIGINAL",
    "PRIMARY",
    "M",
    "MB",
    "ND",
    "MOSAIC"
],
  "ImagingFrequency": 123.234,
  "InPlanePhaseEncodingDirectionDICOM": "COL",
  "InstitutionAddress": "Univeristy Ave. 197,Newark,North East,US,07102-1814",
  "InstitutionName": "RUBIC",
  "InstitutionalDepartmentName": "Department",
  "MRAcquisitionType": "2D",
  "MagneticFieldStrength": 3,
  "Manufacturer": "Siemens",
  "ManufacturersModelName": "TrioTim",
  "Modality": "MR",
  "MultibandAccelerationFactor": 8,
  "PartialFourier": 0.875,
  "PatientPosition": "HFS",
  "PercentPhaseFOV": 100,
  "PercentSampling": 100,
  "PhaseEncodingDirection": "j-",
  "PhaseEncodingSteps": 91,
  "PhaseResolution": 1,
  "PixelBandwidth": 1923,
  "ProcedureStepDescription": "Cole^Michael",
  "ProtocolName": "cmrr_mbep2d_bold_2mm_MB8_Rest",
  "PulseSequenceDetails": "%CustomerSeq%\\cmrr_mbep2d_bold",
  "ReceiveCoilName": "32Ch_Head",
  "ReconMatrixPE": 104,
  "RepetitionTime": 0.785,
  "SAR": 0.1202,
  "ScanOptions": "PFP\\FS",
  "ScanningSequence": "EP",
  "SequenceName": "epfid2d1_104",
  "SequenceVariant": "SK\\SS",
  "SeriesDescription": "cmrr_mbep2d_bold_2mm_MB8_Rest",
  "SeriesNumber": 9,
  "ShimSetting": [2079, -435, -7348, 696, 181, -126, 152, 25],
  "SliceThickness": 2,
  "SliceTiming": [0, 0.4375, 0.0875, 0.525, 0.175, 0.6125, 0.2625, 0.7, 0.35, 0, 0.4375, 0.0875, 0.525, 0.175, 0.6125, 0.2625, 0.7, 0.35, 0, 0.4375, 0.0875, 0.525, 0.175, 0.6125, 0.2625, 0.7, 0.35, 0, 0.4375, 0.0875, 0.525, 0.175, 0.6125, 0.2625, 0.7, 0.35, 0, 0.4375, 0.0875, 0.525, 0.175, 0.6125, 0.2625, 0.7, 0.35, 0, 0.4375, 0.0875, 0.525, 0.175, 0.6125, 0.2625, 0.7, 0.35, 0, 0.4375, 0.0875, 0.525, 0.175, 0.6125, 0.2625, 0.7, 0.35, 0, 0.4375, 0.0875, 0.525, 0.175, 0.6125, 0.2625, 0.7, 0.35],
  "SoftwareVersions": "syngo MR B19",
  "SpacingBetweenSlices": 2,
  "StationName": "MRC35450",
  "TaskName": "rest",
  "TotalReadoutTime": 0.0710717,
  "TxRefAmp": 319.102,
  "dcmmeta_affine": [
    [-1.9985564947128296, 1.0610514067366239e-07, -0.07597333937883377, 105.36046600341797],
    [-0.007147747091948986, 1.9911285638809204, 0.18803159892559052, -89.63948822021484],
    [-0.0756363496184349, -0.18816740810871124, 1.9896914958953857, -71.8756103515625],
    [0.0, 0.0, 0.0, 1.0]
],
  "dcmmeta_reorient_transform": [
    [0.0, -1.0, 0.0, 103.0],
    [1.0, 0.0, 0.0, 0.0],
    [0.0, 0.0, 1.0, 0.0],
    [0.0, 0.0, 0.0, 1.0]
],
  "dcmmeta_shape": [104, 104, 72, 1070],
  "dcmmeta_slice_dim": 2,
  "dcmmeta_version": 0.6,
  "global": {
    "const": {
      "AcquisitionMatrix": [104, 0, 0, 104],
      "AngioFlag": "N",
      "BitsAllocated": 16,
      "BitsStored": 12,
      "Columns": 936,
      "EchoNumbers": 1,
      "EchoTime": 34.8,
      "EchoTrainLength": 1,
      "FlipAngle": 55.0,
      "HighBit": 11,
      "ImageOrientationPatient": [0.99927824603136, 0.00357387361232, -0.0378181759989, 5.3052572e-08, 0.99556429084606, 0.09408370099105],
      "ImagePositionPatient": [-936.76002110849, -946.72970937659, -138.06976668317],
      "ImageType": [
        "ORIGINAL",
        "PRIMARY",
        "M",
        "MB",
        "ND",
        "MOSAIC"
],
      "ImagedNucleus": "1H",
      "ImagingFrequency": 123.234406,
      "InPlanePhaseEncodingDirection": "COL",
      "MRAcquisitionType": "2D",
      "MagneticFieldStrength": 3.0,
      "Manufacturer": "SIEMENS",
      "ManufacturerModelName": "TrioTim",
      "Modality": "MR",
      "NumberOfAverages": 1.0,
      "NumberOfPhaseEncodingSteps": 91,
      "PercentPhaseFieldOfView": 100.0,
      "PercentSampling": 100.0,
      "PerformedProcedureStepStartTime": "114849.859000",
      "PhotometricInterpretation": "MONOCHROME2",
      "PixelBandwidth": 1923.0,
      "PixelRepresentation": 0,
      "PixelSpacing": [2.0, 2.0],
      "ProtocolName": "cmrr_mbep2d_bold_2mm_MB8_Rest",
      "RepetitionTime": 785.0,
      "Rows": 936,
      "SAR": 0.1201998385498,
      "SamplesPerPixel": 1,
      "ScanOptions": [
        "PFP",
        "FS"
],
      "ScanningSequence": "EP",
      "SequenceName": "epfid2d1_104",
      "SequenceVariant": [
        "SK",
        "SS"
],
      "SeriesDescription": "cmrr_mbep2d_bold_2mm_MB8_Rest",
      "SeriesNumber": 9,
      "SeriesTime": "121430.375000",
      "SliceLocation": -83.934962801648,
      "SliceThickness": 2.0,
      "SmallestImagePixelValue": 0,
      "SoftwareVersions": "syngo MR B19",
      "SpacingBetweenSlices": 2.0000000298538,
      "SpecificCharacterSet": "ISO_IR 100",
      "StudyID": "1",
      "StudyTime": "114849.812000",
      "TransmitCoilName": "Body",
      "VariableFlipAngleFlag": "N",
      "WindowCenterWidthExplanation": "Algo1",
      "dBdt": 0.0},
    "slices": {}
  },
  "time": {
    "samples": {
      "AcquisitionNumber": [1, 2, 3, 4, 5, 6, 7, 8, 9, 10, 11, 12, 13, 14, 15, 16, 17, 18, 19, 20, 21, 22, 23, 24, 25, 26, 27, 28, 29, 30, 31, 32, 33, 34, 35, 36, 37, 38, 39, 40, 41, 42, 43, 44, 45, 46, 47, 48, 49, 50, 51, 52, 53, 54, 55, 56, 57, 58, 59, 60, 61, 62, 63, 64, 65, 66, 67, 68, 69, 70, 71, 72, 73, 74, 75, 76, 77, 78, 79, 80, 81, 82, 83, 84, 85, 86, 87, 88, 89, 90, 91, 92, 93, 94, 95, 96, 97, 98, 99, 100, 101, 102, 103, 104, 105, 106, 107, 108, 109, 110, 111, 112, 113, 114, 115, 116, 117, 118, 119, 120, 121, 122, 123, 124, 125, 126, 127, 128, 129, 130, 131, 132, 133, 134, 135, 136, 137, 138, 139, 140, 141, 142, 143, 144, 145, 146, 147, 148, 149, 150, 151, 152, 153, 154, 155, 156, 157, 158, 159, 160, 161, 162, 163, 164, 165, 166, 167, 168, 169, 170, 171, 172, 173, 174, 175, 176, 177, 178, 179, 180, 181, 182, 183, 184, 185, 186, 187, 188, 189, 190, 191, 192, 193, 194, 195, 196, 197, 198, 199, 200, 201, 202, 203, 204, 205, 206, 207, 208, 209, 210, 211, 212, 213, 214, 215, 216, 217, 218, 219, 220, 221, 222, 223, 224, 225, 226, 227, 228, 229, 230, 231, 232, 233, 234, 235, 236, 237, 238, 239, 240, 241, 242, 243, 244, 245, 246, 247, 248, 249, 250, 251, 252, 253, 254, 255, 256, 257, 258, 259, 260, 261, 262, 263, 264, 265, 266, 267, 268, 269, 270, 271, 272, 273, 274, 275, 276, 277, 278, 279, 280, 281, 282, 283, 284, 285, 286, 287, 288, 289, 290, 291, 292, 293, 294, 295, 296, 297, 298, 299, 300, 301, 302, 303, 304, 305, 306, 307, 308, 309, 310, 311, 312, 313, 314, 315, 316, 317, 318, 319, 320, 321, 322, 323, 324, 325, 326, 327, 328, 329, 330, 331, 332, 333, 334, 335, 336, 337, 338, 339, 340, 341, 342, 343, 344, 345, 346, 347, 348, 349, 350, 351, 352, 353, 354, 355, 356, 357, 358, 359, 360, 361, 362, 363, 364, 365, 366, 367, 368, 369, 370, 371, 372, 373, 374, 375, 376, 377, 378, 379, 380, 381, 382, 383, 384, 385, 386, 387, 388, 389, 390, 391, 392, 393, 394, 395, 396, 397, 398, 399, 400, 401, 402, 403, 404, 405, 406, 407, 408, 409, 410, 411, 412, 413, 414, 415, 416, 417, 418, 419, 420, 421, 422, 423, 424, 425, 426, 427, 428, 429, 430, 431, 432, 433, 434, 435, 436, 437, 438, 439, 440, 441, 442, 443, 444, 445, 446, 447, 448, 449, 450, 451, 452, 453, 454, 455, 456, 457, 458, 459, 460, 461, 462, 463, 464, 465, 466, 467, 468, 469, 470, 471, 472, 473, 474, 475, 476, 477, 478, 479, 480, 481, 482, 483, 484, 485, 486, 487, 488, 489, 490, 491, 492, 493, 494, 495, 496, 497, 498, 499, 500, 501, 502, 503, 504, 505, 506, 507, 508, 509, 510, 511, 512, 513, 514, 515, 516, 517, 518, 519, 520, 521, 522, 523, 524, 525, 526, 527, 528, 529, 530, 531, 532, 533, 534, 535, 536, 537, 538, 539, 540, 541, 542, 543, 544, 545, 546, 547, 548, 549, 550, 551, 552, 553, 554, 555, 556, 557, 558, 559, 560, 561, 562, 563, 564, 565, 566, 567, 568, 569, 570, 571, 572, 573, 574, 575, 576, 577, 578, 579, 580, 581, 582, 583, 584, 585, 586, 587, 588, 589, 590, 591, 592, 593, 594, 595, 596, 597, 598, 599, 600, 601, 602, 603, 604, 605, 606, 607, 608, 609, 610, 611, 612, 613, 614, 615, 616, 617, 618, 619, 620, 621, 622, 623, 624, 625, 626, 627, 628, 629, 630, 631, 632, 633, 634, 635, 636, 637, 638, 639, 640, 641, 642, 643, 644, 645, 646, 647, 648, 649, 650, 651, 652, 653, 654, 655, 656, 657, 658, 659, 660, 661, 662, 663, 664, 665, 666, 667, 668, 669, 670, 671, 672, 673, 674, 675, 676, 677, 678, 679, 680, 681, 682, 683, 684, 685, 686, 687, 688, 689, 690, 691, 692, 693, 694, 695, 696, 697, 698, 699, 700, 701, 702, 703, 704, 705, 706, 707, 708, 709, 710, 711, 712, 713, 714, 715, 716, 717, 718, 719, 720, 721, 722, 723, 724, 725, 726, 727, 728, 729, 730, 731, 732, 733, 734, 735, 736, 737, 738, 739, 740, 741, 742, 743, 744, 745, 746, 747, 748, 749, 750, 751, 752, 753, 754, 755, 756, 757, 758, 759, 760, 761, 762, 763, 764, 765, 766, 767, 768, 769, 770, 771, 772, 773, 774, 775, 776, 777, 778, 779, 780, 781, 782, 783, 784, 785, 786, 787, 788, 789, 790, 791, 792, 793, 794, 795, 796, 797, 798, 799, 800, 801, 802, 803, 804, 805, 806, 807, 808, 809, 810, 811, 812, 813, 814, 815, 816, 817, 818, 819, 820, 821, 822, 823, 824, 825, 826, 827, 828, 829, 830, 831, 832, 833, 834, 835, 836, 837, 838, 839, 840, 841, 842, 843, 844, 845, 846, 847, 848, 849, 850, 851, 852, 853, 854, 855, 856, 857, 858, 859, 860, 861, 862, 863, 864, 865, 866, 867, 868, 869, 870, 871, 872, 873, 874, 875, 876, 877, 878, 879, 880, 881, 882, 883, 884, 885, 886, 887, 888, 889, 890, 891, 892, 893, 894, 895, 896, 897, 898, 899, 900, 901, 902, 903, 904, 905, 906, 907, 908, 909, 910, 911, 912, 913, 914, 915, 916, 917, 918, 919, 920, 921, 922, 923, 924, 925, 926, 927, 928, 929, 930, 931, 932, 933, 934, 935, 936, 937, 938, 939, 940, 941, 942, 943, 944, 945, 946, 947, 948, 949, 950, 951, 952, 953, 954, 955, 956, 957, 958, 959, 960, 961, 962, 963, 964, 965, 966, 967, 968, 969, 970, 971, 972, 973, 974, 975, 976, 977, 978, 979, 980, 981, 982, 983, 984, 985, 986, 987, 988, 989, 990, 991, 992, 993, 994, 995, 996, 997, 998, 999, 1000, 1001, 1002, 1003, 1004, 1005, 1006, 1007, 1008, 1009, 1010, 1011, 1012, 1013, 1014, 1015, 1016, 1017, 1018, 1019, 1020, 1021, 1022, 1023, 1024, 1025, 1026, 1027, 1028, 1029, 1030, 1031, 1032, 1033, 1034, 1035, 1036, 1037, 1038, 1039, 1040, 1041, 1042, 1043, 1044, 1045, 1046, 1047, 1048, 1049, 1050, 1051, 1052, 1053, 1054, 1055, 1056, 1057, 1058, 1059, 1060, 1061, 1062, 1063, 1064, 1065, 1066, 1067, 1068, 1069, 1070],
      "AcquisitionTime": ["121353.955000", "121354.742500", "121355.532500", "121356.320000", "121357.107500", "121357.895000", "121358.685000", "121359.472500", "121400.260000", "121401.047500", "121401.837500", "121402.625000", "121403.412500", "121404.200000", "121404.990000", "121405.777500", "121406.565000", "121407.355000", "121408.142500", "121408.930000", "121409.717500", "121410.507500", "121411.295000", "121412.082500", "121412.870000", "121413.660000", "121414.447500", "121415.235000", "121416.022500", "121416.812500", "121417.600000", "121418.387500", "121419.175000", "121419.965000", "121420.752500", "121421.540000", "121422.327500", "121423.117500", "121423.905000", "121424.692500", "121425.482500", "121426.270000", "121427.057500", "121427.845000", "121428.635000", "121429.422500", "121430.210000", "121430.997500", "121431.787500", "121432.575000", "121433.362500", "121434.150000", "121434.940000", "121435.727500", "121436.515000", "121437.302500", "121438.092500", "121438.880000", "121439.667500", "121440.455000", "121441.245000", "121442.032500", "121442.820000", "121443.610000", "121444.397500", "121445.185000", "121445.972500", "121446.762500", "121447.550000", "121448.337500", "121449.125000", "121449.915000", "121450.702500", "121451.490000", "121452.277500", "121453.067500", "121453.855000", "121454.642500", "121455.430000", "121456.220000", "121457.007500", "121457.795000", "121458.582500", "121459.372500", "121500.160000", "121500.947500", "121501.737500", "121502.525000", "121503.312500", "121504.100000", "121504.890000", "121505.677500", "121506.465000", "121507.252500", "121508.042500", "121508.830000", "121509.617500", "121510.405000", "121511.195000", "121511.982500", "121512.770000", "121513.557500", "121514.347500", "121515.135000", "121515.922500", "121516.710000", "121517.500000", "121518.287500", "121519.075000", "121519.865000", "121520.652500", "121521.440000", "121522.227500", "121523.017500", "121523.805000", "121524.592500", "121525.380000", "121526.170000", "121526.957500", "121527.745000", "121528.532500", "121529.322500", "121530.110000", "121530.897500", "121531.685000", "121532.475000", "121533.262500", "121534.050000", "121534.837500", "121535.627500", "121536.415000", "121537.202500", "121537.992500", "121538.780000", "121539.567500", "121540.355000", "121541.145000", "121541.932500", "121542.720000", "121543.507500", "121544.297500", "121545.085000", "121545.872500", "121546.660000", "121547.450000", "121548.237500", "121549.025000", "121549.812500", "121550.602500", "121551.390000", "121552.177500", "121552.965000", "121553.755000", "121554.542500", "121555.330000", "121556.120000", "121556.907500", "121557.695000", "121558.482500", "121559.272500", "121600.060000", "121600.847500", "121601.635000", "121602.425000", "121603.212500", "121604.000000", "121604.787500", "121605.577500", "121606.365000", "121607.152500", "121607.940000", "121608.730000", "121609.517500", "121610.305000", "121611.095000", "121611.882500", "121612.670000", "121613.457500", "121614.247500", "121615.035000", "121615.822500", "121616.610000", "121617.400000", "121618.187500", "121618.975000", "121619.762500", "121620.552500", "121621.340000", "121622.127500", "121622.915000", "121623.705000", "121624.492500", "121625.280000", "121626.067500", "121626.857500", "121627.645000", "121628.432500", "121629.222500", "121630.010000", "121630.797500", "121631.585000", "121632.375000", "121633.162500", "121633.950000", "121634.737500", "121635.527500", "121636.315000", "121637.102500", "121637.890000", "121638.680000", "121639.467500", "121640.255000", "121641.042500", "121641.832500", "121642.620000", "121643.407500", "121644.195000", "121644.985000", "121645.772500", "121646.560000", "121647.350000", "121648.137500", "121648.925000", "121649.712500", "121650.502500", "121651.290000", "121652.077500", "121652.865000", "121653.655000", "121654.442500", "121655.230000", "121656.017500", "121656.807500", "121657.595000", "121658.382500", "121659.170000", "121659.960000", "121700.747500", "121701.535000", "121702.322500", "121703.112500", "121703.900000", "121704.687500", "121705.477500", "121706.265000", "121707.052500", "121707.840000", "121708.630000", "121709.417500", "121710.205000", "121710.992500", "121711.782500", "121712.570000", "121713.357500", "121714.145000", "121714.935000", "121715.722500", "121716.510000", "121717.297500", "121718.087500", "121718.875000", "121719.662500", "121720.450000", "121721.240000", "121722.027500", "121722.815000", "121723.605000", "121724.392500", "121725.180000", "121725.967500", "121726.757500", "121727.545000", "121728.332500", "121729.120000", "121729.910000", "121730.697500", "121731.485000", "121732.272500", "121733.062500", "121733.850000", "121734.637500", "121735.425000", "121736.215000", "121737.002500", "121737.790000", "121738.577500", "121739.367500", "121740.155000", "121740.942500", "121741.732500", "121742.520000", "121743.307500", "121744.095000", "121744.885000", "121745.672500", "121746.460000", "121747.247500", "121748.037500", "121748.825000", "121749.612500", "121750.400000", "121751.190000", "121751.977500", "121752.765000", "121753.552500", "121754.342500", "121755.130000", "121755.917500", "121756.705000", "121757.495000", "121758.282500", "121759.070000", "121759.860000", "121800.647500", "121801.435000", "121802.222500", "121803.012500", "121803.800000", "121804.587500", "121805.375000", "121806.165000", "121806.952500", "121807.740000", "121808.527500", "121809.317500", "121810.105000", "121810.892500", "121811.680000", "121812.470000", "121813.257500", "121814.045000", "121814.832500", "121815.622500", "121816.410000", "121817.197500", "121817.987500", "121818.775000", "121819.562500", "121820.350000", "121821.140000", "121821.927500", "121822.715000", "121823.502500", "121824.292500", "121825.080000", "121825.867500", "121826.655000", "121827.445000", "121828.232500", "121829.020000", "121829.807500", "121830.597500", "121831.385000", "121832.172500", "121832.960000", "121833.750000", "121834.537500", "121835.325000", "121836.115000", "121836.902500", "121837.690000", "121838.477500", "121839.267500", "121840.055000", "121840.842500", "121841.630000", "121842.420000", "121843.207500", "121843.995000", "121844.782500", "121845.572500", "121846.360000", "121847.147500", "121847.935000", "121848.725000", "121849.512500", "121850.300000", "121851.087500", "121851.877500", "121852.665000", "121853.452500", "121854.242500", "121855.030000", "121855.817500", "121856.605000", "121857.395000", "121858.182500", "121858.970000", "121859.757500", "121900.547500", "121901.335000", "121902.122500", "121902.910000", "121903.700000", "121904.487500", "121905.275000", "121906.062500", "121906.852500", "121907.640000", "121908.427500", "121909.215000", "121910.005000", "121910.792500", "121911.580000", "121912.370000", "121913.157500", "121913.945000", "121914.732500", "121915.522500", "121916.310000", "121917.097500", "121917.885000", "121918.675000", "121919.462500", "121920.250000", "121921.037500", "121921.827500", "121922.615000", "121923.402500", "121924.190000", "121924.980000", "121925.767500", "121926.555000", "121927.345000", "121928.132500", "121928.920000", "121929.707500", "121930.497500", "121931.285000", "121932.072500", "121932.860000", "121933.650000", "121934.437500", "121935.225000", "121936.012500", "121936.802500", "121937.590000", "121938.377500", "121939.165000", "121939.955000", "121940.742500", "121941.530000", "121942.317500", "121943.107500", "121943.895000", "121944.682500", "121945.472500", "121946.260000", "121947.047500", "121947.835000", "121948.625000", "121949.412500", "121950.200000", "121950.987500", "121951.777500", "121952.565000", "121953.352500", "121954.140000", "121954.930000", "121955.717500", "121956.505000", "121957.292500", "121958.082500", "121958.870000", "121959.657500", "122000.445000", "122001.235000", "122002.022500", "122002.810000", "122003.600000", "122004.387500", "122005.175000", "122005.962500", "122006.752500", "122007.540000", "122008.327500", "122009.115000", "122009.905000", "122010.692500", "122011.480000", "122012.267500", "122013.057500", "122013.845000", "122014.632500", "122015.420000", "122016.210000", "122016.997500", "122017.785000", "122018.572500", "122019.362500", "122020.150000", "122020.937500", "122021.727500", "122022.515000", "122023.302500", "122024.090000", "122024.880000", "122025.667500", "122026.455000", "122027.242500", "122028.032500", "122028.820000", "122029.607500", "122030.395000", "122031.185000", "122031.972500", "122032.760000", "122033.547500", "122034.337500", "122035.125000", "122035.912500", "122036.700000", "122037.490000", "122038.277500", "122039.065000", "122039.855000", "122040.642500", "122041.430000", "122042.217500", "122043.007500", "122043.795000", "122044.582500", "122045.370000", "122046.160000", "122046.947500", "122047.735000", "122048.522500", "122049.312500", "122050.100000", "122050.887500", "122051.675000", "122052.465000", "122053.252500", "122054.040000", "122054.827500", "122055.617500", "122056.405000", "122057.192500", "122057.982500", "122058.770000", "122059.557500", "122100.345000", "122101.135000", "122101.922500", "122102.710000", "122103.497500", "122104.287500", "122105.075000", "122105.862500", "122106.650000", "122107.440000", "122108.227500", "122109.015000", "122109.802500", "122110.592500", "122111.380000", "122112.167500", "122112.955000", "122113.745000", "122114.532500", "122115.320000", "122116.110000", "122116.897500", "122117.685000", "122118.472500", "122119.262500", "122120.050000", "122120.837500", "122121.625000", "122122.415000", "122123.202500", "122123.990000", "122124.777500", "122125.567500", "122126.355000", "122127.142500", "122127.930000", "122128.720000", "122129.507500", "122130.295000", "122131.082500", "122131.872500", "122132.660000", "122133.447500", "122134.237500", "122135.025000", "122135.812500", "122136.600000", "122137.390000", "122138.177500", "122138.965000", "122139.752500", "122140.542500", "122141.330000", "122142.117500", "122142.905000", "122143.695000", "122144.482500", "122145.270000", "122146.057500", "122146.847500", "122147.635000", "122148.422500", "122149.210000", "122150.000000", "122150.787500", "122151.575000", "122152.365000", "122153.152500", "122153.940000", "122154.727500", "122155.517500", "122156.305000", "122157.092500", "122157.880000", "122158.670000", "122159.457500", "122200.245000", "122201.032500", "122201.822500", "122202.610000", "122203.397500", "122204.185000", "122204.975000", "122205.762500", "122206.550000", "122207.337500", "122208.127500", "122208.915000", "122209.702500", "122210.492500", "122211.280000", "122212.067500", "122212.855000", "122213.645000", "122214.432500", "122215.220000", "122216.007500", "122216.797500", "122217.585000", "122218.372500", "122219.160000", "122219.950000", "122220.737500", "122221.525000", "122222.312500", "122223.102500", "122223.890000", "122224.677500", "122225.465000", "122226.255000", "122227.042500", "122227.830000", "122228.620000", "122229.407500", "122230.195000", "122230.982500", "122231.772500", "122232.560000", "122233.347500", "122234.135000", "122234.925000", "122235.712500", "122236.500000", "122237.287500", "122238.077500", "122238.865000", "122239.652500", "122240.440000", "122241.230000", "122242.017500", "122242.805000", "122243.595000", "122244.382500", "122245.170000", "122245.957500", "122246.747500", "122247.535000", "122248.322500", "122249.110000", "122249.900000", "122250.687500", "122251.475000", "122252.262500", "122253.052500", "122253.840000", "122254.627500", "122255.415000", "122256.205000", "122256.992500", "122257.780000", "122258.567500", "122259.357500", "122300.145000", "122300.932500", "122301.722500", "122302.510000", "122303.297500", "122304.085000", "122304.875000", "122305.662500", "122306.450000", "122307.237500", "122308.027500", "122308.815000", "122309.602500", "122310.390000", "122311.180000", "122311.967500", "122312.755000", "122313.542500", "122314.332500", "122315.120000", "122315.907500", "122316.695000", "122317.485000", "122318.272500", "122319.060000", "122319.850000", "122320.637500", "122321.425000", "122322.212500", "122323.002500", "122323.790000", "122324.577500", "122325.365000", "122326.155000", "122326.942500", "122327.730000", "122328.517500", "122329.307500", "122330.095000", "122330.882500", "122331.670000", "122332.460000", "122333.247500", "122334.035000", "122334.822500", "122335.612500", "122336.400000", "122337.187500", "122337.977500", "122338.765000", "122339.552500", "122340.340000", "122341.130000", "122341.917500", "122342.705000", "122343.492500", "122344.282500", "122345.070000", "122345.857500", "122346.645000", "122347.435000", "122348.222500", "122349.010000", "122349.797500", "122350.587500", "122351.375000", "122352.162500", "122352.950000", "122353.740000", "122354.527500", "122355.315000", "122356.105000", "122356.892500", "122357.680000", "122358.467500", "122359.257500", "122400.045000", "122400.832500", "122401.620000", "122402.410000", "122403.197500", "122403.985000", "122404.772500", "122405.562500", "122406.350000", "122407.137500", "122407.925000", "122408.715000", "122409.502500", "122410.290000", "122411.077500", "122411.867500", "122412.655000", "122413.442500", "122414.232500", "122415.020000", "122415.807500", "122416.595000", "122417.385000", "122418.172500", "122418.960000", "122419.747500", "122420.537500", "122421.325000", "122422.112500", "122422.900000", "122423.690000", "122424.477500", "122425.265000", "122426.052500", "122426.842500", "122427.630000", "122428.417500", "122429.205000", "122429.995000", "122430.782500", "122431.570000", "122432.360000", "122433.147500", "122433.935000", "122434.722500", "122435.512500", "122436.300000", "122437.087500", "122437.875000", "122438.665000", "122439.452500", "122440.240000", "122441.027500", "122441.817500", "122442.605000", "122443.392500", "122444.180000", "122444.970000", "122445.757500", "122446.545000", "122447.332500", "122448.122500", "122448.910000", "122449.697500", "122450.487500", "122451.275000", "122452.062500", "122452.850000", "122453.640000", "122454.427500", "122455.215000", "122456.002500", "122456.792500", "122457.580000", "122458.367500", "122459.155000", "122459.945000", "122500.732500", "122501.520000", "122502.307500", "122503.097500", "122503.885000", "122504.672500", "122505.460000", "122506.250000", "122507.037500", "122507.825000", "122508.615000", "122509.402500", "122510.190000", "122510.977500", "122511.767500", "122512.555000", "122513.342500", "122514.130000", "122514.920000", "122515.707500", "122516.495000", "122517.282500", "122518.072500", "122518.860000", "122519.647500", "122520.435000", "122521.225000", "122522.012500", "122522.800000", "122523.587500", "122524.377500", "122525.165000", "122525.952500", "122526.742500", "122527.530000", "122528.317500", "122529.105000", "122529.895000", "122530.682500", "122531.470000", "122532.257500", "122533.047500", "122533.835000", "122534.622500", "122535.410000", "122536.200000", "122536.987500", "122537.775000", "122538.562500", "122539.352500", "122540.140000", "122540.927500", "122541.715000", "122542.505000", "122543.292500", "122544.080000", "122544.870000", "122545.657500", "122546.445000", "122547.232500", "122548.022500", "122548.810000", "122549.597500", "122550.385000", "122551.175000", "122551.962500", "122552.750000", "122553.537500", "122554.327500", "122555.115000", "122555.902500", "122556.690000", "122557.480000", "122558.267500", "122559.055000", "122559.845000", "122600.632500", "122601.420000", "122602.207500", "122602.997500", "122603.785000", "122604.572500", "122605.360000", "122606.150000", "122606.937500", "122607.725000", "122608.512500", "122609.302500", "122610.090000", "122610.877500", "122611.665000", "122612.455000", "122613.242500", "122614.030000", "122614.817500", "122615.607500", "122616.395000", "122617.182500", "122617.972500", "122618.760000", "122619.547500", "122620.335000", "122621.125000", "122621.912500", "122622.700000", "122623.487500", "122624.277500", "122625.065000", "122625.852500", "122626.640000", "122627.430000", "122628.217500", "122629.005000", "122629.792500", "122630.582500", "122631.370000", "122632.157500", "122632.945000", "122633.735000", "122634.522500", "122635.310000", "122636.100000", "122636.887500", "122637.675000", "122638.462500", "122639.252500", "122640.040000", "122640.827500", "122641.615000", "122642.405000", "122643.192500", "122643.980000", "122644.767500", "122645.557500", "122646.345000", "122647.132500", "122647.920000", "122648.710000", "122649.497500", "122650.285000", "122651.072500", "122651.862500", "122652.650000", "122653.437500", "122654.227500", "122655.015000", "122655.802500", "122656.590000", "122657.380000", "122658.167500", "122658.955000", "122659.742500", "122700.532500", "122701.320000", "122702.107500", "122702.895000", "122703.685000", "122704.472500", "122705.260000", "122706.047500", "122706.837500", "122707.625000", "122708.412500", "122709.200000", "122709.990000", "122710.777500", "122711.565000", "122712.355000", "122713.142500", "122713.930000", "122714.717500", "122715.507500", "122716.295000", "122717.082500", "122717.870000", "122718.660000", "122719.447500", "122720.235000", "122721.022500", "122721.812500", "122722.600000", "122723.387500", "122724.175000", "122724.965000", "122725.752500", "122726.540000", "122727.327500", "122728.117500", "122728.905000", "122729.692500", "122730.482500", "122731.270000", "122732.057500", "122732.845000", "122733.635000", "122734.422500", "122735.210000", "122735.997500", "122736.787500", "122737.575000", "122738.362500", "122739.150000", "122739.940000", "122740.727500", "122741.515000", "122742.302500", "122743.092500", "122743.880000", "122744.667500", "122745.455000", "122746.245000", "122747.032500", "122747.820000", "122748.610000", "122749.397500", "122750.185000", "122750.972500", "122751.762500", "122752.550000", "122753.337500", "122754.125000", "122754.915000", "122755.702500", "122756.490000"],
