{
  "AcquisitionMatrixPE": 104,
  "AcquisitionNumber": 1,
  "AcquisitionTime": "15:31:31.725000",
  "BandwidthPerPixelPhaseEncode": 13.935,
  "BaseResolution": 104,
  "CoilString": "C:HEA;HEP",
  "ConversionSoftware": "dcm2niix",
  "ConversionSoftwareVersion": "v1.0.20210317",
  "DerivedVendorReportedEchoSpacing": 0.000690017,
  "DeviceSerialNumber": "35450",
  "DwellTime": 2.5e-06,
  "EchoTime": 0.0348,
  "EffectiveEchoSpacing": 0.000690017,
  "FlipAngle": 55,
  "ImageComments": "Unaliased MB8/PE3",
  "ImageOrientationPatientDICOM": [1, -0.000135443, -0.000745015, 5.74508e-08, 0.983887, -0.178793],
  "ImageType": [
    "ORIGINAL",
    "PRIMARY",
    "M",
    "MB",
    "ND",
    "MOSAIC"
],
  "ImagingFrequency": 123.235,
  "InPlanePhaseEncodingDirectionDICOM": "COL",
  "InstitutionAddress": "Univeristy Ave. 197,Newark,North East,US,07102-1814",
  "InstitutionName": "RUBIC",
  "InstitutionalDepartmentName": "Department",
  "MRAcquisitionType": "2D",
  "MagneticFieldStrength": 3,
  "Manufacturer": "Siemens",
  "ManufacturersModelName": "TrioTim",
  "Modality": "MR",
  "MultibandAccelerationFactor": 8,
  "PartialFourier": 0.875,
  "PatientPosition": "HFS",
  "PercentPhaseFOV": 100,
  "PercentSampling": 100,
  "PhaseEncodingDirection": "j-",
  "PhaseEncodingSteps": 91,
  "PhaseResolution": 1,
  "PixelBandwidth": 1923,
  "ProcedureStepDescription": "Cole^Michael",
  "ProtocolName": "cmrr_mbep2d_bold_2mm_MB8_Task_8x",
  "PulseSequenceDetails": "%CustomerSeq%\\cmrr_mbep2d_bold",
  "ReceiveCoilName": "32Ch_Head",
  "ReconMatrixPE": 104,
  "RepetitionTime": 0.785,
  "SAR": 0.120123,
  "ScanOptions": "PFP\\FS",
  "ScanningSequence": "EP",
  "SequenceName": "epfid2d1_104",
  "SequenceVariant": "SK\\SS",
  "SeriesDescription": "cmrr_mbep2d_bold_2mm_MB8_Task_8x",
  "SeriesNumber": 17,
  "ShimSetting": [2111, -403, -7489, 215, 59, -345, 228, 82],
  "SliceThickness": 2,
  "SliceTiming": [0, 0.4375, 0.0875, 0.525, 0.175, 0.6125, 0.2625, 0.7, 0.35, 0, 0.4375, 0.0875, 0.525, 0.175, 0.6125, 0.2625, 0.7, 0.35, 0, 0.4375, 0.0875, 0.525, 0.175, 0.6125, 0.2625, 0.7, 0.35, 0, 0.4375, 0.0875, 0.525, 0.175, 0.6125, 0.2625, 0.7, 0.35, 0, 0.4375, 0.0875, 0.525, 0.175, 0.6125, 0.2625, 0.7, 0.35, 0, 0.4375, 0.0875, 0.525, 0.175, 0.6125, 0.2625, 0.7, 0.35, 0, 0.4375, 0.0875, 0.525, 0.175, 0.6125, 0.2625, 0.7, 0.35, 0, 0.4375, 0.0875, 0.525, 0.175, 0.6125, 0.2625, 0.7, 0.35],
  "SoftwareVersions": "syngo MR B19",
  "SpacingBetweenSlices": 2,
  "StationName": "MRC35450",
  "TaskName": "cpro",
  "TotalReadoutTime": 0.0710717,
  "TxRefAmp": 310.758,
  "dcmmeta_affine": [
    [-1.9999994039535522, 1.1490166684779979e-07, -0.0015144535573199391, 101.21371459960938],
    [0.0002708868123590946, 1.9677734375, -0.35758596658706665, -73.25880432128906],
    [-0.0014900302048772573, 0.3575860857963562, 1.9677728414535522, -94.5534439086914],
    [0.0, 0.0, 0.0, 1.0]
],
  "dcmmeta_reorient_transform": [
    [0.0, -1.0, 0.0, 103.0],
    [1.0, 0.0, 0.0, 0.0],
    [0.0, 0.0, 1.0, 0.0],
    [0.0, 0.0, 0.0, 1.0]
],
  "dcmmeta_shape": [104, 104, 72, 581],
  "dcmmeta_slice_dim": 2,
  "dcmmeta_version": 0.6,
  "global": {
    "const": {
      "AcquisitionMatrix": [104, 0, 0, 104],
      "AngioFlag": "N",
      "BitsAllocated": 16,
      "BitsStored": 12,
      "Columns": 936,
      "EchoNumbers": 1,
      "EchoTime": 34.8,
      "EchoTrainLength": 1,
      "FlipAngle": 55.0,
      "HighBit": 11,
      "ImageOrientationPatient": [0.99999971330374, -0.0001354434054, -0.0007450151108, 5.7450833e-08, 0.98388670563677, -0.178793038095],
      "ImagePositionPatient": [-933.21353292765, -947.90291011682, 91.653582461203],
      "ImageType": [
        "ORIGINAL",
        "PRIMARY",
        "M",
        "MB",
        "ND",
        "MOSAIC"
],
      "ImagedNucleus": "1H",
      "ImagingFrequency": 123.235048,
      "InPlanePhaseEncodingDirection": "COL",
      "MRAcquisitionType": "2D",
      "MagneticFieldStrength": 3.0,
      "Manufacturer": "SIEMENS",
      "ManufacturerModelName": "TrioTim",
      "Modality": "MR",
      "NumberOfAverages": 1.0,
      "NumberOfPhaseEncodingSteps": 91,
      "PercentPhaseFieldOfView": 100.0,
      "PercentSampling": 100.0,
      "PerformedProcedureStepStartTime": "140722.093000",
      "PhotometricInterpretation": "MONOCHROME2",
      "PixelBandwidth": 1923.0,
      "PixelRepresentation": 0,
      "PixelSpacing": [2.0, 2.0],
      "ProtocolName": "cmrr_mbep2d_bold_2mm_MB8_Task_8x",
      "RepetitionTime": 785.0,
      "Rows": 936,
      "SAR": 0.12012343128242,
      "SamplesPerPixel": 1,
      "ScanOptions": [
        "PFP",
        "FS"
],
      "ScanningSequence": "EP",
      "SequenceName": "epfid2d1_104",
      "SequenceVariant": [
        "SK",
        "SS"
],
      "SeriesDescription": "cmrr_mbep2d_bold_2mm_MB8_Task_8x",
      "SeriesNumber": 17,
      "SeriesTime": "161522.609000",
      "SliceLocation": -80.008331332601,
      "SliceThickness": 2.0,
      "SmallestImagePixelValue": 0,
      "SoftwareVersions": "syngo MR B19",
      "SpacingBetweenSlices": 1.9999999465957,
      "SpecificCharacterSet": "ISO_IR 100",
      "StudyID": "1",
      "StudyTime": "140722.062000",
      "TransmitCoilName": "Body",
      "VariableFlipAngleFlag": "N",
      "WindowCenterWidthExplanation": "Algo1",
      "dBdt": 0.0},
    "slices": {}
  },
  "time": {
    "samples": {
      "AcquisitionNumber": [1, 2, 3, 4, 5, 6, 7, 8, 9, 10, 11, 12, 13, 14, 15, 16, 17, 18, 19, 20, 21, 22, 23, 24, 25, 26, 27, 28, 29, 30, 31, 32, 33, 34, 35, 36, 37, 38, 39, 40, 41, 42, 43, 44, 45, 46, 47, 48, 49, 50, 51, 52, 53, 54, 55, 56, 57, 58, 59, 60, 61, 62, 63, 64, 65, 66, 67, 68, 69, 70, 71, 72, 73, 74, 75, 76, 77, 78, 79, 80, 81, 82, 83, 84, 85, 86, 87, 88, 89, 90, 91, 92, 93, 94, 95, 96, 97, 98, 99, 100, 101, 102, 103, 104, 105, 106, 107, 108, 109, 110, 111, 112, 113, 114, 115, 116, 117, 118, 119, 120, 121, 122, 123, 124, 125, 126, 127, 128, 129, 130, 131, 132, 133, 134, 135, 136, 137, 138, 139, 140, 141, 142, 143, 144, 145, 146, 147, 148, 149, 150, 151, 152, 153, 154, 155, 156, 157, 158, 159, 160, 161, 162, 163, 164, 165, 166, 167, 168, 169, 170, 171, 172, 173, 174, 175, 176, 177, 178, 179, 180, 181, 182, 183, 184, 185, 186, 187, 188, 189, 190, 191, 192, 193, 194, 195, 196, 197, 198, 199, 200, 201, 202, 203, 204, 205, 206, 207, 208, 209, 210, 211, 212, 213, 214, 215, 216, 217, 218, 219, 220, 221, 222, 223, 224, 225, 226, 227, 228, 229, 230, 231, 232, 233, 234, 235, 236, 237, 238, 239, 240, 241, 242, 243, 244, 245, 246, 247, 248, 249, 250, 251, 252, 253, 254, 255, 256, 257, 258, 259, 260, 261, 262, 263, 264, 265, 266, 267, 268, 269, 270, 271, 272, 273, 274, 275, 276, 277, 278, 279, 280, 281, 282, 283, 284, 285, 286, 287, 288, 289, 290, 291, 292, 293, 294, 295, 296, 297, 298, 299, 300, 301, 302, 303, 304, 305, 306, 307, 308, 309, 310, 311, 312, 313, 314, 315, 316, 317, 318, 319, 320, 321, 322, 323, 324, 325, 326, 327, 328, 329, 330, 331, 332, 333, 334, 335, 336, 337, 338, 339, 340, 341, 342, 343, 344, 345, 346, 347, 348, 349, 350, 351, 352, 353, 354, 355, 356, 357, 358, 359, 360, 361, 362, 363, 364, 365, 366, 367, 368, 369, 370, 371, 372, 373, 374, 375, 376, 377, 378, 379, 380, 381, 382, 383, 384, 385, 386, 387, 388, 389, 390, 391, 392, 393, 394, 395, 396, 397, 398, 399, 400, 401, 402, 403, 404, 405, 406, 407, 408, 409, 410, 411, 412, 413, 414, 415, 416, 417, 418, 419, 420, 421, 422, 423, 424, 425, 426, 427, 428, 429, 430, 431, 432, 433, 434, 435, 436, 437, 438, 439, 440, 441, 442, 443, 444, 445, 446, 447, 448, 449, 450, 451, 452, 453, 454, 455, 456, 457, 458, 459, 460, 461, 462, 463, 464, 465, 466, 467, 468, 469, 470, 471, 472, 473, 474, 475, 476, 477, 478, 479, 480, 481, 482, 483, 484, 485, 486, 487, 488, 489, 490, 491, 492, 493, 494, 495, 496, 497, 498, 499, 500, 501, 502, 503, 504, 505, 506, 507, 508, 509, 510, 511, 512, 513, 514, 515, 516, 517, 518, 519, 520, 521, 522, 523, 524, 525, 526, 527, 528, 529, 530, 531, 532, 533, 534, 535, 536, 537, 538, 539, 540, 541, 542, 543, 544, 545, 546, 547, 548, 549, 550, 551, 552, 553, 554, 555, 556, 557, 558, 559, 560, 561, 562, 563, 564, 565, 566, 567, 568, 569, 570, 571, 572, 573, 574, 575, 576, 577, 578, 579, 580, 581],
      "AcquisitionTime": ["153131.725000", "153132.512500", "153133.300000", "153134.087500", "153134.877500", "153135.665000", "153136.452500", "153137.240000", "153138.030000", "153138.817500", "153139.605000", "153140.392500", "153141.182500", "153141.970000", "153142.757500", "153143.545000", "153144.335000", "153145.122500", "153145.910000", "153146.697500", "153147.487500", "153148.275000", "153149.062500", "153149.852500", "153150.640000", "153151.427500", "153152.215000", "153153.005000", "153153.792500", "153154.580000", "153155.367500", "153156.157500", "153156.945000", "153157.732500", "153158.520000", "153159.310000", "153200.097500", "153200.885000", "153201.672500", "153202.462500", "153203.250000", "153204.037500", "153204.825000", "153205.615000", "153206.402500", "153207.190000", "153207.980000", "153208.767500", "153209.555000", "153210.342500", "153211.132500", "153211.920000", "153212.707500", "153213.495000", "153214.285000", "153215.072500", "153215.860000", "153216.647500", "153217.437500", "153218.225000", "153219.012500", "153219.800000", "153220.590000", "153221.377500", "153222.165000", "153222.952500", "153223.742500", "153224.530000", "153225.317500", "153226.107500", "153226.895000", "153227.682500", "153228.470000", "153229.260000", "153230.047500", "153230.835000", "153231.622500", "153232.412500", "153233.200000", "153233.987500", "153234.775000", "153235.565000", "153236.352500", "153237.140000", "153237.927500", "153238.717500", "153239.505000", "153240.292500", "153241.080000", "153241.870000", "153242.657500", "153243.445000", "153244.235000", "153245.022500", "153245.810000", "153246.597500", "153247.387500", "153248.175000", "153248.962500", "153249.750000", "153250.540000", "153251.327500", "153252.115000", "153252.902500", "153253.692500", "153254.480000", "153255.267500", "153256.055000", "153256.845000", "153257.632500", "153258.420000", "153259.210000", "153259.997500", "153300.785000", "153301.572500", "153302.362500", "153303.150000", "153303.937500", "153304.725000", "153305.515000", "153306.302500", "153307.090000", "153307.877500", "153308.667500", "153309.455000", "153310.242500", "153311.030000", "153311.820000", "153312.607500", "153313.395000", "153314.182500", "153314.972500", "153315.760000", "153316.547500", "153317.337500", "153318.125000", "153318.912500", "153319.700000", "153320.490000", "153321.277500", "153322.065000", "153322.852500", "153323.642500", "153324.430000", "153325.217500", "153326.005000", "153326.795000", "153327.582500", "153328.370000", "153329.157500", "153329.947500", "153330.735000", "153331.522500", "153332.310000", "153333.100000", "153333.887500", "153334.675000", "153335.465000", "153336.252500", "153337.040000", "153337.827500", "153338.617500", "153339.405000", "153340.192500", "153340.980000", "153341.770000", "153342.557500", "153343.345000", "153344.132500", "153344.922500", "153345.710000", "153346.497500", "153347.285000", "153348.075000", "153348.862500", "153349.650000", "153350.437500", "153351.227500", "153352.015000", "153352.802500", "153353.592500", "153354.380000", "153355.167500", "153355.955000", "153356.745000", "153357.532500", "153358.320000", "153359.107500", "153359.897500", "153400.685000", "153401.472500", "153402.260000", "153403.050000", "153403.837500", "153404.625000", "153405.412500", "153406.202500", "153406.990000", "153407.777500", "153408.565000", "153409.355000", "153410.142500", "153410.930000", "153411.720000", "153412.507500", "153413.295000", "153414.082500", "153414.872500", "153415.660000", "153416.447500", "153417.235000", "153418.025000", "153418.812500", "153419.600000", "153420.387500", "153421.177500", "153421.965000", "153422.752500", "153423.540000", "153424.330000", "153425.117500", "153425.905000", "153426.692500", "153427.482500", "153428.270000", "153429.057500", "153429.847500", "153430.635000", "153431.422500", "153432.210000", "153433.000000", "153433.787500", "153434.575000", "153435.362500", "153436.152500", "153436.940000", "153437.727500", "153438.515000", "153439.305000", "153440.092500", "153440.880000", "153441.667500", "153442.457500", "153443.245000", "153444.032500", "153444.820000", "153445.610000", "153446.397500", "153447.185000", "153447.975000", "153448.762500", "153449.550000", "153450.337500", "153451.127500", "153451.915000", "153452.702500", "153453.490000", "153454.280000", "153455.067500", "153455.855000", "153456.642500", "153457.432500", "153458.220000", "153459.007500", "153459.795000", "153500.585000", "153501.372500", "153502.160000", "153502.947500", "153503.737500", "153504.525000", "153505.312500", "153506.102500", "153506.890000", "153507.677500", "153508.465000", "153509.255000", "153510.042500", "153510.830000", "153511.617500", "153512.407500", "153513.195000", "153513.982500", "153514.770000", "153515.560000", "153516.347500", "153517.135000", "153517.922500", "153518.712500", "153519.500000", "153520.287500", "153521.075000", "153521.865000", "153522.652500", "153523.440000", "153524.230000", "153525.017500", "153525.805000", "153526.592500", "153527.382500", "153528.170000", "153528.957500", "153529.745000", "153530.535000", "153531.322500", "153532.110000", "153532.897500", "153533.687500", "153534.475000", "153535.262500", "153536.050000", "153536.840000", "153537.627500", "153538.415000", "153539.202500", "153539.992500", "153540.780000", "153541.567500", "153542.357500", "153543.145000", "153543.932500", "153544.720000", "153545.510000", "153546.297500", "153547.085000", "153547.872500", "153548.662500", "153549.450000", "153550.237500", "153551.025000", "153551.815000", "153552.602500", "153553.390000", "153554.177500", "153554.967500", "153555.755000", "153556.542500", "153557.330000", "153558.120000", "153558.907500", "153559.695000", "153600.485000", "153601.272500", "153602.060000", "153602.847500", "153603.637500", "153604.425000", "153605.212500", "153606.000000", "153606.790000", "153607.577500", "153608.365000", "153609.152500", "153609.942500", "153610.730000", "153611.517500", "153612.305000", "153613.095000", "153613.882500", "153614.670000", "153615.460000", "153616.247500", "153617.035000", "153617.822500", "153618.612500", "153619.400000", "153620.187500", "153620.975000", "153621.765000", "153622.552500", "153623.340000", "153624.127500", "153624.917500", "153625.705000", "153626.492500", "153627.280000", "153628.070000", "153628.857500", "153629.645000", "153630.432500", "153631.222500", "153632.010000", "153632.797500", "153633.587500", "153634.375000", "153635.162500", "153635.950000", "153636.740000", "153637.527500", "153638.315000", "153639.102500", "153639.892500", "153640.680000", "153641.467500", "153642.255000", "153643.045000", "153643.832500", "153644.620000", "153645.407500", "153646.197500", "153646.985000", "153647.772500", "153648.560000", "153649.350000", "153650.137500", "153650.925000", "153651.715000", "153652.502500", "153653.290000", "153654.077500", "153654.867500", "153655.655000", "153656.442500", "153657.230000", "153658.020000", "153658.807500", "153659.595000", "153700.382500", "153701.172500", "153701.960000", "153702.747500", "153703.535000", "153704.325000", "153705.112500", "153705.900000", "153706.687500", "153707.477500", "153708.265000", "153709.052500", "153709.842500", "153710.630000", "153711.417500", "153712.205000", "153712.995000", "153713.782500", "153714.570000", "153715.357500", "153716.147500", "153716.935000", "153717.722500", "153718.510000", "153719.300000", "153720.087500", "153720.875000", "153721.662500", "153722.452500", "153723.240000", "153724.027500", "153724.815000", "153725.605000", "153726.392500", "153727.180000", "153727.970000", "153728.757500", "153729.545000", "153730.332500", "153731.122500", "153731.910000", "153732.697500", "153733.485000", "153734.275000", "153735.062500", "153735.850000", "153736.637500", "153737.427500", "153738.215000", "153739.002500", "153739.790000", "153740.580000", "153741.367500", "153742.155000", "153742.942500", "153743.732500", "153744.520000", "153745.307500", "153746.097500", "153746.885000", "153747.672500", "153748.460000", "153749.250000", "153750.037500", "153750.825000", "153751.612500", "153752.402500", "153753.190000", "153753.977500", "153754.765000", "153755.555000", "153756.342500", "153757.130000", "153757.917500", "153758.707500", "153759.495000", "153800.282500", "153801.070000", "153801.860000", "153802.647500", "153803.435000", "153804.225000", "153805.012500", "153805.800000", "153806.587500", "153807.377500", "153808.165000", "153808.952500", "153809.740000", "153810.530000", "153811.317500", "153812.105000", "153812.892500", "153813.682500", "153814.470000", "153815.257500", "153816.045000", "153816.835000", "153817.622500", "153818.410000", "153819.197500", "153819.987500", "153820.775000", "153821.562500", "153822.352500", "153823.140000", "153823.927500", "153824.715000", "153825.505000", "153826.292500", "153827.080000", "153827.867500", "153828.657500", "153829.445000", "153830.232500", "153831.020000", "153831.810000", "153832.597500", "153833.385000", "153834.172500", "153834.962500", "153835.750000", "153836.537500", "153837.325000", "153838.115000", "153838.902500", "153839.690000", "153840.480000", "153841.267500", "153842.055000", "153842.842500", "153843.632500", "153844.420000", "153845.207500", "153845.995000", "153846.785000", "153847.572500", "153848.360000", "153849.147500", "153849.937500", "153850.725000", "153851.512500", "153852.300000", "153853.090000", "153853.877500", "153854.665000", "153855.452500", "153856.242500", "153857.030000", "153857.817500", "153858.607500", "153859.395000", "153900.182500", "153900.970000", "153901.760000", "153902.547500", "153903.335000", "153904.122500", "153904.912500", "153905.700000", "153906.487500", "153907.275000", "153908.065000", "153908.852500"],
      "ContentTime": ["161522.609000", "161522.625000", "161522.625000", "161522.625000", "161522.625000", "161522.625000", "161622.593000", "161622.593000", "161622.593000", "161622.593000", "161622.609000", "161622.609000", "161622.609000", "161622.609000", "161622.609000", "161622.609000", "161622.609000", "161622.625000", "161622.625000", "161622.625000", "161622.625000", "161622.625000", "161622.625000", "161622.625000", "161622.640000", "161622.640000", "161622.640000", "161622.640000", "161622.640000", "161622.640000", "161622.640000", "161622.656000", "161622.656000", "161722.593000", "161722.593000", "161722.593000", "161722.593000", "161722.609000", "161722.609000", "161722.609000", "161722.609000", "161722.609000", "161722.609000", "161722.609000", "161722.625000", "161722.625000", "161722.625000", "161722.625000", "161722.625000", "161722.625000", "161722.640000", "161722.640000", "161722.640000", "161722.640000", "161722.640000", "161722.640000", "161722.656000", "161722.656000", "161722.656000", "161722.656000", "161722.656000", "161822.593000", "161822.593000", "161822.593000", "161822.593000", "161822.609000", "161822.609000", "161822.609000", "161822.609000", "161822.609000", "161822.609000", "161822.609000", "161822.625000", "161822.625000", "161822.625000", "161822.625000", "161822.625000", "161822.625000", "161822.640000", "161822.640000", "161822.640000", "161822.640000", "161822.640000", "161822.640000", "161822.640000", "161822.656000", "161822.656000", "161822.656000", "161922.593000", "161922.593000", "161922.593000", "161922.593000", "161922.609000", "161922.609000", "161922.609000", "161922.609000", "161922.609000", "161922.609000", "161922.625000", "161922.625000", "161922.625000", "161922.625000", "161922.640000", "161922.640000", "161922.640000", "161922.640000", "161922.640000", "161922.640000", "161922.656000", "161922.656000", "161922.656000", "161922.656000", "161922.656000", "161922.656000", "161922.656000", "162022.593000", "162022.593000", "162022.593000", "162022.593000", "162022.609000", "162022.609000", "162022.609000", "162022.609000", "162022.609000", "162022.609000", "162022.609000", "162022.625000", "162022.625000", "162022.625000", "162022.625000", "162022.625000", "162022.625000", "162022.625000", "162022.640000", "162022.640000", "162022.640000", "162022.640000", "162022.640000", "162022.640000", "162022.640000", "162022.656000", "162022.656000", "162022.656000", "162122.593000", "162122.593000", "162122.593000", "162122.593000", "162122.609000", "162122.609000", "162122.609000", "162122.609000", "162122.609000", "162122.609000", "162122.609000", "162122.625000", "162122.625000", "162122.625000", "162122.625000", "162122.625000", "162122.625000", "162122.640000", "162122.640000", "162122.640000", "162122.640000", "162122.640000", "162122.640000", "162122.640000", "162122.656000", "162122.656000", "162122.656000", "162122.656000", "162142.593000", "162142.593000", "162142.593000", "162142.593000", "162142.609000", "162142.609000", "162142.609000", "162142.609000", "162142.609000", "162242.593000", "162242.593000", "162242.593000", "162242.593000", "162242.609000", "162242.609000", "162242.609000", "162242.609000", "162242.609000", "162242.609000", "162242.609000", "162242.625000", "162242.625000", "162242.625000", "162242.625000", "162242.625000", "162242.640000", "162242.640000", "162242.640000", "162242.640000", "162242.640000", "162242.640000", "162242.640000", "162242.656000", "162242.656000", "162242.656000", "162242.656000", "162342.593000", "162342.593000", "162342.593000", "162342.593000", "162342.609000", "162342.609000", "162342.609000", "162342.609000", "162342.609000", "162342.609000", "162342.609000", "162342.625000", "162342.625000", "162342.625000", "162342.625000", "162342.625000", "162342.625000", "162342.625000", "162342.640000", "162342.640000", "162342.640000", "162342.640000", "162342.640000", "162342.640000", "162342.656000", "162342.656000", "162342.656000", "162442.593000", "162442.593000", "162442.593000", "162442.593000", "162442.609000", "162442.609000", "162442.609000", "162442.609000", "162442.609000", "162442.609000", "162442.609000", "162442.625000", "162442.625000", "162442.625000", "162442.625000", "162442.625000", "162442.625000", "162442.625000", "162442.640000", "162442.640000", "162442.640000", "162442.640000", "162442.640000", "162442.640000", "162442.640000", "162442.656000", "162442.656000", "162442.656000", "162542.593000", "162542.593000", "162542.593000", "162542.593000", "162542.609000", "162542.609000", "162542.609000", "162542.609000", "162542.609000", "162542.625000", "162542.625000", "162542.625000", "162542.625000", "162542.625000", "162542.625000", "162542.625000", "162542.640000", "162542.640000", "162542.640000", "162542.640000", "162542.640000", "162542.640000", "162542.640000", "162542.656000", "162542.656000", "162542.656000", "162542.656000", "162642.593000", "162642.593000", "162642.593000", "162642.593000", "162642.609000", "162642.609000", "162642.609000", "162642.609000", "162642.609000", "162642.609000", "162642.609000", "162642.625000", "162642.625000", "162642.625000", "162642.625000", "162642.625000", "162642.625000", "162642.625000", "162642.640000", "162642.640000", "162642.640000", "162642.640000", "162642.640000", "162642.640000", "162642.640000", "162642.656000", "162642.656000", "162642.656000", "162742.593000", "162742.593000", "162742.593000", "162742.593000", "162742.609000", "162742.609000", "162742.609000", "162742.609000", "162742.609000", "162742.609000", "162742.609000", "162742.625000", "162742.625000", "162742.625000", "162742.625000", "162742.625000", "162742.625000", "162742.625000", "162742.640000", "162742.640000", "162742.640000", "162742.640000", "162742.640000", "162742.640000", "162742.656000", "162742.656000", "162742.656000", "162842.593000", "162842.593000", "162842.593000", "162842.593000", "162842.609000", "162842.609000", "162842.609000", "162842.609000", "162842.609000", "162842.609000", "162842.609000", "162842.625000", "162842.625000", "162842.625000", "162842.625000", "162842.625000", "162842.640000", "162842.640000", "162842.640000", "162842.640000", "162842.640000", "162842.640000", "162842.640000", "162842.656000", "162842.656000", "162842.656000", "162842.656000", "162842.656000", "162942.593000", "162942.593000", "162942.593000", "162942.593000", "162942.609000", "162942.609000", "162942.609000", "162942.609000", "162942.609000", "162942.625000", "162942.625000", "162942.625000", "162942.625000", "162942.625000", "162942.625000", "162942.625000", "162942.640000", "162942.640000", "162942.640000", "162942.640000", "162942.640000", "162942.640000", "162942.640000", "162942.656000", "162942.656000", "162942.656000", "162942.656000", "162942.656000", "163042.593000", "163042.593000", "163042.593000", "163042.593000", "163042.609000", "163042.609000", "163042.609000", "163042.609000", "163042.609000", "163042.609000", "163042.609000", "163042.625000", "163042.625000", "163042.625000", "163042.625000", "163042.625000", "163042.625000", "163042.625000", "163042.640000", "163042.640000", "163042.640000", "163042.640000", "163042.640000", "163042.640000", "163042.640000", "163042.656000", "163042.656000", "163042.656000", "163142.593000", "163142.593000", "163142.593000", "163142.593000", "163142.609000", "163142.609000", "163142.609000", "163142.609000", "163142.609000", "163142.609000", "163142.609000", "163142.625000", "163142.625000", "163142.625000", "163142.625000", "163142.625000", "163142.625000", "163142.640000", "163142.640000", "163142.640000", "163142.640000", "163142.640000", "163142.640000", "163142.640000", "163142.656000", "163142.656000", "163142.656000", "163142.656000", "163242.593000", "163242.593000", "163242.593000", "163242.593000", "163242.609000", "163242.609000", "163242.609000", "163242.609000", "163242.625000", "163242.625000", "163242.625000", "163242.625000", "163242.625000", "163242.625000", "163242.625000", "163242.640000", "163242.640000", "163242.640000", "163242.640000", "163242.640000", "163242.640000", "163242.640000", "163242.656000", "163242.656000", "163242.656000", "163242.656000", "163242.656000", "163242.656000", "163342.593000", "163342.593000", "163342.593000", "163342.593000", "163342.609000", "163342.609000", "163342.609000", "163342.609000", "163342.609000", "163342.609000", "163342.609000", "163342.625000", "163342.625000", "163342.625000", "163342.625000", "163342.625000", "163342.625000", "163342.640000", "163342.640000", "163342.640000", "163342.640000", "163342.640000", "163342.640000", "163342.640000", "163342.656000", "163342.656000", "163342.656000", "163342.656000", "163442.593000", "163442.593000", "163442.593000", "163442.593000", "163442.609000", "163442.609000", "163442.609000", "163442.609000", "163442.609000", "163442.609000", "163442.609000", "163442.625000", "163442.625000", "163442.625000", "163442.625000", "163442.625000", "163442.625000", "163442.640000", "163442.640000", "163442.640000", "163442.640000", "163442.640000", "163442.640000", "163442.640000", "163442.656000", "163442.656000", "163442.656000", "163442.656000", "163542.593000", "163542.593000", "163542.593000", "163542.593000", "163542.609000", "163542.609000", "163542.609000", "163542.609000", "163542.609000", "163542.609000", "163542.609000", "163542.625000", "163542.625000", "163542.625000", "163542.625000", "163542.625000", "163542.640000", "163542.640000", "163542.640000", "163542.640000", "163542.640000", "163542.656000", "163542.656000", "163542.656000", "163542.656000", "163542.656000", "163542.656000", "163542.656000", "163542.671000", "163607.546000", "163607.546000", "163607.546000", "163607.546000", "163607.546000", "163607.546000", "163607.546000", "163607.562000", "163607.562000", "163607.562000", "163607.562000", "163607.562000"],
