{
  "AcquisitionMatrixPE": 104,
  "AcquisitionNumber": 1,
  "AcquisitionTime": "11:57:11.707500",
  "BandwidthPerPixelPhaseEncode": 13.935,
  "BaseResolution": 104,
  "CoilString": "C:HEA;HEP",
  "ConversionSoftware": "dcm2niix",
  "ConversionSoftwareVersion": "v1.0.20210317",
  "DerivedVendorReportedEchoSpacing": 0.000690017,
  "DeviceSerialNumber": "35450",
  "DwellTime": 2.5e-06,
  "EchoTime": 0.0348,
  "EffectiveEchoSpacing": 0.000690017,
  "FlipAngle": 55,
  "ImageComments": "Unaliased MB8/PE3 (remote)",
  "ImageOrientationPatientDICOM": [0.999754, -0.00574006, -0.0214189, 8.63938e-09, 0.965916, -0.258856],
  "ImageType": [
    "ORIGINAL",
    "PRIMARY",
    "M",
    "MB",
    "ND",
    "MOSAIC"
],
  "ImagingFrequency": 123.234,
  "InPlanePhaseEncodingDirectionDICOM": "COL",
  "InstitutionAddress": "Univeristy Ave. 197,Newark,North East,US,07102-1814",
  "InstitutionName": "RUBIC",
  "InstitutionalDepartmentName": "Department",
  "MRAcquisitionType": "2D",
  "MagneticFieldStrength": 3,
  "Manufacturer": "Siemens",
  "ManufacturersModelName": "TrioTim",
  "Modality": "MR",
  "MultibandAccelerationFactor": 8,
  "PartialFourier": 0.875,
  "PatientPosition": "HFS",
  "PercentPhaseFOV": 100,
  "PercentSampling": 100,
  "PhaseEncodingDirection": "j-",
  "PhaseEncodingSteps": 91,
  "PhaseResolution": 1,
  "PixelBandwidth": 1923,
  "ProcedureStepDescription": "Cole^Michael",
  "ProtocolName": "cmrr_mbep2d_bold_2mm_MB8_Task_8x",
  "PulseSequenceDetails": "%CustomerSeq%\\cmrr_mbep2d_bold",
  "ReceiveCoilName": "32Ch_Head",
  "ReconMatrixPE": 104,
  "RepetitionTime": 0.785,
  "SAR": 0.14118,
  "ScanOptions": "PFP\\FS",
  "ScanningSequence": "EP",
  "SequenceName": "epfid2d1_104",
  "SequenceVariant": "SK\\SS",
  "SeriesDescription": "cmrr_mbep2d_bold_2mm_MB8_Task_8x",
  "SeriesNumber": 19,
  "ShimSetting": [2099, -369, -7322, 330, 31, -362, 427, 93],
  "SliceThickness": 2,
  "SliceTiming": [0, 0.4375, 0.0875, 0.525, 0.175, 0.6125, 0.2625, 0.7, 0.35, 0, 0.4375, 0.0875, 0.525, 0.175, 0.6125, 0.2625, 0.7, 0.35, 0, 0.4375, 0.0875, 0.525, 0.175, 0.6125, 0.2625, 0.7, 0.35, 0, 0.4375, 0.0875, 0.525, 0.175, 0.6125, 0.2625, 0.7, 0.35, 0, 0.4375, 0.0875, 0.525, 0.175, 0.6125, 0.2625, 0.7, 0.35, 0, 0.4375, 0.0875, 0.525, 0.175, 0.6125, 0.2625, 0.7, 0.35, 0, 0.4375, 0.0875, 0.525, 0.175, 0.6125, 0.2625, 0.7, 0.35, 0, 0.4375, 0.0875, 0.525, 0.175, 0.6125, 0.2625, 0.7, 0.35],
  "SoftwareVersions": "syngo MR B19",
  "SpacingBetweenSlices": 2,
  "StationName": "MRC35450",
  "TaskName": "cpro",
  "TotalReadoutTime": 0.0710717,
  "TxRefAmp": 342.455,
  "dcmmeta_affine": [
    [-1.999508261680603, 1.727876330903655e-08, -0.04434943199157715, 103.35143280029297],
    [0.011480111628770828, 1.9318320751190186, -0.5175837278366089, -68.3075942993164],
    [-0.042837824672460556, 0.5177110433578491, 1.9313570261001587, -120.01380157470703],
    [0.0, 0.0, 0.0, 1.0]
],
  "dcmmeta_reorient_transform": [
    [0.0, -1.0, 0.0, 103.0],
    [1.0, 0.0, 0.0, 0.0],
    [0.0, 0.0, 1.0, 0.0],
    [0.0, 0.0, 0.0, 1.0]
],
  "dcmmeta_shape": [104, 104, 72, 581],
  "dcmmeta_slice_dim": 2,
  "dcmmeta_version": 0.6,
  "global": {
    "const": {
      "AcquisitionMatrix": [104, 0, 0, 104],
      "AngioFlag": "N",
      "BitsAllocated": 16,
      "BitsStored": 12,
      "Columns": 936,
      "EchoNumbers": 1,
      "EchoTime": 34.8,
      "EchoTrainLength": 1,
      "FlipAngle": 55.0,
      "HighBit": 11,
      "ImageOrientationPatient": [0.9997541107618, -0.0057400556602, -0.0214189116413, 8.639382e-09, 0.96591605499928, -0.2588555092993],
      "ImagePositionPatient": [-935.14686229027, -929.53754437184, 166.49875375237],
      "ImageType": [
        "ORIGINAL",
        "PRIMARY",
        "M",
        "MB",
        "ND",
        "MOSAIC"
],
      "ImagedNucleus": "1H",
      "ImagingFrequency": 123.234471,
      "InPlanePhaseEncodingDirection": "COL",
      "MRAcquisitionType": "2D",
      "MagneticFieldStrength": 3.0,
      "Manufacturer": "SIEMENS",
      "ManufacturerModelName": "TrioTim",
      "Modality": "MR",
      "NumberOfAverages": 1.0,
      "NumberOfPhaseEncodingSteps": 91,
      "PercentPhaseFieldOfView": 100.0,
      "PercentSampling": 100.0,
      "PerformedProcedureStepStartTime": "102230.000000",
      "PhotometricInterpretation": "MONOCHROME2",
      "PixelBandwidth": 1923.0,
      "PixelRepresentation": 0,
      "PixelSpacing": [2.0, 2.0],
      "ProtocolName": "cmrr_mbep2d_bold_2mm_MB8_Task_8x",
      "RepetitionTime": 785.0,
      "Rows": 936,
      "SAR": 0.14117982885331,
      "SamplesPerPixel": 1,
      "ScanOptions": [
        "PFP",
        "FS"
],
      "ScanningSequence": "EP",
      "SequenceName": "epfid2d1_104",
      "SequenceVariant": [
        "SK",
        "SS"
],
      "SeriesDescription": "cmrr_mbep2d_bold_2mm_MB8_Task_8x",
      "SeriesNumber": 19,
      "SeriesTime": "115733.656000",
      "SliceLocation": -100.50909065418,
      "SliceThickness": 2.0,
      "SmallestImagePixelValue": 0,
      "SoftwareVersions": "syngo MR B19",
      "SpacingBetweenSlices": 1.999999961397,
      "SpecificCharacterSet": "ISO_IR 100",
      "StudyID": "1",
      "StudyTime": "102229.890000",
      "TransmitCoilName": "Body",
      "VariableFlipAngleFlag": "N",
      "WindowCenterWidthExplanation": "Algo1",
      "dBdt": 0.0},
    "slices": {}
  },
  "time": {
    "samples": {
      "AcquisitionNumber": [1, 2, 3, 4, 5, 6, 7, 8, 9, 10, 11, 12, 13, 14, 15, 16, 17, 18, 19, 20, 21, 22, 23, 24, 25, 26, 27, 28, 29, 30, 31, 32, 33, 34, 35, 36, 37, 38, 39, 40, 41, 42, 43, 44, 45, 46, 47, 48, 49, 50, 51, 52, 53, 54, 55, 56, 57, 58, 59, 60, 61, 62, 63, 64, 65, 66, 67, 68, 69, 70, 71, 72, 73, 74, 75, 76, 77, 78, 79, 80, 81, 82, 83, 84, 85, 86, 87, 88, 89, 90, 91, 92, 93, 94, 95, 96, 97, 98, 99, 100, 101, 102, 103, 104, 105, 106, 107, 108, 109, 110, 111, 112, 113, 114, 115, 116, 117, 118, 119, 120, 121, 122, 123, 124, 125, 126, 127, 128, 129, 130, 131, 132, 133, 134, 135, 136, 137, 138, 139, 140, 141, 142, 143, 144, 145, 146, 147, 148, 149, 150, 151, 152, 153, 154, 155, 156, 157, 158, 159, 160, 161, 162, 163, 164, 165, 166, 167, 168, 169, 170, 171, 172, 173, 174, 175, 176, 177, 178, 179, 180, 181, 182, 183, 184, 185, 186, 187, 188, 189, 190, 191, 192, 193, 194, 195, 196, 197, 198, 199, 200, 201, 202, 203, 204, 205, 206, 207, 208, 209, 210, 211, 212, 213, 214, 215, 216, 217, 218, 219, 220, 221, 222, 223, 224, 225, 226, 227, 228, 229, 230, 231, 232, 233, 234, 235, 236, 237, 238, 239, 240, 241, 242, 243, 244, 245, 246, 247, 248, 249, 250, 251, 252, 253, 254, 255, 256, 257, 258, 259, 260, 261, 262, 263, 264, 265, 266, 267, 268, 269, 270, 271, 272, 273, 274, 275, 276, 277, 278, 279, 280, 281, 282, 283, 284, 285, 286, 287, 288, 289, 290, 291, 292, 293, 294, 295, 296, 297, 298, 299, 300, 301, 302, 303, 304, 305, 306, 307, 308, 309, 310, 311, 312, 313, 314, 315, 316, 317, 318, 319, 320, 321, 322, 323, 324, 325, 326, 327, 328, 329, 330, 331, 332, 333, 334, 335, 336, 337, 338, 339, 340, 341, 342, 343, 344, 345, 346, 347, 348, 349, 350, 351, 352, 353, 354, 355, 356, 357, 358, 359, 360, 361, 362, 363, 364, 365, 366, 367, 368, 369, 370, 371, 372, 373, 374, 375, 376, 377, 378, 379, 380, 381, 382, 383, 384, 385, 386, 387, 388, 389, 390, 391, 392, 393, 394, 395, 396, 397, 398, 399, 400, 401, 402, 403, 404, 405, 406, 407, 408, 409, 410, 411, 412, 413, 414, 415, 416, 417, 418, 419, 420, 421, 422, 423, 424, 425, 426, 427, 428, 429, 430, 431, 432, 433, 434, 435, 436, 437, 438, 439, 440, 441, 442, 443, 444, 445, 446, 447, 448, 449, 450, 451, 452, 453, 454, 455, 456, 457, 458, 459, 460, 461, 462, 463, 464, 465, 466, 467, 468, 469, 470, 471, 472, 473, 474, 475, 476, 477, 478, 479, 480, 481, 482, 483, 484, 485, 486, 487, 488, 489, 490, 491, 492, 493, 494, 495, 496, 497, 498, 499, 500, 501, 502, 503, 504, 505, 506, 507, 508, 509, 510, 511, 512, 513, 514, 515, 516, 517, 518, 519, 520, 521, 522, 523, 524, 525, 526, 527, 528, 529, 530, 531, 532, 533, 534, 535, 536, 537, 538, 539, 540, 541, 542, 543, 544, 545, 546, 547, 548, 549, 550, 551, 552, 553, 554, 555, 556, 557, 558, 559, 560, 561, 562, 563, 564, 565, 566, 567, 568, 569, 570, 571, 572, 573, 574, 575, 576, 577, 578, 579, 580, 581],
      "AcquisitionTime": ["115711.707500", "115712.495000", "115713.282500", "115714.072500", "115714.860000", "115715.647500", "115716.435000", "115717.225000", "115718.012500", "115718.800000", "115719.587500", "115720.377500", "115721.165000", "115721.952500", "115722.740000", "115723.530000", "115724.317500", "115725.105000", "115725.892500", "115726.682500", "115727.470000", "115728.257500", "115729.047500", "115729.835000", "115730.622500", "115731.410000", "115732.200000", "115732.987500", "115733.775000", "115734.562500", "115735.352500", "115736.140000", "115736.927500", "115737.715000", "115738.505000", "115739.292500", "115740.080000", "115740.867500", "115741.657500", "115742.445000", "115743.232500", "115744.020000", "115744.810000", "115745.597500", "115746.385000", "115747.175000", "115747.962500", "115748.750000", "115749.537500", "115750.327500", "115751.115000", "115751.902500", "115752.690000", "115753.480000", "115754.267500", "115755.055000", "115755.842500", "115756.632500", "115757.420000", "115758.207500", "115758.995000", "115759.785000", "115800.572500", "115801.360000", "115802.147500", "115802.937500", "115803.725000", "115804.512500", "115805.302500", "115806.090000", "115806.877500", "115807.665000", "115808.455000", "115809.242500", "115810.030000", "115810.817500", "115811.607500", "115812.395000", "115813.182500", "115813.970000", "115814.760000", "115815.547500", "115816.335000", "115817.122500", "115817.912500", "115818.700000", "115819.487500", "115820.275000", "115821.065000", "115821.852500", "115822.640000", "115823.430000", "115824.217500", "115825.005000", "115825.792500", "115826.582500", "115827.370000", "115828.157500", "115828.945000", "115829.735000", "115830.522500", "115831.310000", "115832.097500", "115832.887500", "115833.675000", "115834.462500", "115835.250000", "115836.040000", "115836.827500", "115837.615000", "115838.402500", "115839.192500", "115839.980000", "115840.767500", "115841.557500", "115842.345000", "115843.132500", "115843.920000", "115844.710000", "115845.497500", "115846.285000", "115847.072500", "115847.862500", "115848.650000", "115849.437500", "115850.225000", "115851.015000", "115851.802500", "115852.590000", "115853.377500", "115854.167500", "115854.955000", "115855.742500", "115856.532500", "115857.320000", "115858.107500", "115858.895000", "115859.685000", "115900.472500", "115901.260000", "115902.047500", "115902.837500", "115903.625000", "115904.412500", "115905.200000", "115905.990000", "115906.777500", "115907.565000", "115908.352500", "115909.142500", "115909.930000", "115910.717500", "115911.505000", "115912.295000", "115913.082500", "115913.870000", "115914.660000", "115915.447500", "115916.235000", "115917.022500", "115917.812500", "115918.600000", "115919.387500", "115920.175000", "115920.965000", "115921.752500", "115922.540000", "115923.327500", "115924.117500", "115924.905000", "115925.692500", "115926.480000", "115927.270000", "115928.057500", "115928.845000", "115929.632500", "115930.422500", "115931.210000", "115931.997500", "115932.787500", "115933.575000", "115934.362500", "115935.150000", "115935.940000", "115936.727500", "115937.515000", "115938.302500", "115939.092500", "115939.880000", "115940.667500", "115941.455000", "115942.245000", "115943.032500", "115943.820000", "115944.607500", "115945.397500", "115946.185000", "115946.972500", "115947.760000", "115948.550000", "115949.337500", "115950.125000", "115950.915000", "115951.702500", "115952.490000", "115953.277500", "115954.067500", "115954.855000", "115955.642500", "115956.430000", "115957.220000", "115958.007500", "115958.795000", "115959.582500", "120000.372500", "120001.160000", "120001.947500", "120002.735000", "120003.525000", "120004.312500", "120005.100000", "120005.887500", "120006.677500", "120007.465000", "120008.252500", "120009.042500", "120009.830000", "120010.617500", "120011.405000", "120012.195000", "120012.982500", "120013.770000", "120014.557500", "120015.347500", "120016.135000", "120016.922500", "120017.710000", "120018.500000", "120019.287500", "120020.075000", "120020.862500", "120021.652500", "120022.440000", "120023.227500", "120024.015000", "120024.805000", "120025.592500", "120026.380000", "120027.170000", "120027.957500", "120028.745000", "120029.532500", "120030.322500", "120031.110000", "120031.897500", "120032.685000", "120033.475000", "120034.262500", "120035.050000", "120035.837500", "120036.627500", "120037.415000", "120038.202500", "120038.990000", "120039.780000", "120040.567500", "120041.355000", "120042.142500", "120042.932500", "120043.720000", "120044.507500", "120045.297500", "120046.085000", "120046.872500", "120047.660000", "120048.450000", "120049.237500", "120050.025000", "120050.812500", "120051.602500", "120052.390000", "120053.177500", "120053.965000", "120054.755000", "120055.542500", "120056.330000", "120057.117500", "120057.907500", "120058.695000", "120059.482500", "120100.270000", "120101.060000", "120101.847500", "120102.635000", "120103.425000", "120104.212500", "120105.000000", "120105.787500", "120106.577500", "120107.365000", "120108.152500", "120108.940000", "120109.730000", "120110.517500", "120111.305000", "120112.092500", "120112.882500", "120113.670000", "120114.457500", "120115.245000", "120116.035000", "120116.822500", "120117.610000", "120118.397500", "120119.187500", "120119.975000", "120120.762500", "120121.552500", "120122.340000", "120123.127500", "120123.915000", "120124.705000", "120125.492500", "120126.280000", "120127.067500", "120127.857500", "120128.645000", "120129.432500", "120130.220000", "120131.010000", "120131.797500", "120132.585000", "120133.372500", "120134.162500", "120134.950000", "120135.737500", "120136.525000", "120137.315000", "120138.102500", "120138.890000", "120139.680000", "120140.467500", "120141.255000", "120142.042500", "120142.832500", "120143.620000", "120144.407500", "120145.195000", "120145.985000", "120146.772500", "120147.560000", "120148.347500", "120149.137500", "120149.925000", "120150.712500", "120151.500000", "120152.290000", "120153.077500", "120153.865000", "120154.652500", "120155.442500", "120156.230000", "120157.017500", "120157.807500", "120158.595000", "120159.382500", "120200.170000", "120200.960000", "120201.747500", "120202.535000", "120203.322500", "120204.112500", "120204.900000", "120205.687500", "120206.475000", "120207.265000", "120208.052500", "120208.840000", "120209.627500", "120210.417500", "120211.205000", "120211.992500", "120212.782500", "120213.570000", "120214.357500", "120215.145000", "120215.935000", "120216.722500", "120217.510000", "120218.297500", "120219.087500", "120219.875000", "120220.662500", "120221.450000", "120222.240000", "120223.027500", "120223.815000", "120224.602500", "120225.392500", "120226.180000", "120226.967500", "120227.755000", "120228.545000", "120229.332500", "120230.120000", "120230.910000", "120231.697500", "120232.485000", "120233.272500", "120234.062500", "120234.850000", "120235.637500", "120236.425000", "120237.215000", "120238.002500", "120238.790000", "120239.577500", "120240.367500", "120241.155000", "120241.942500", "120242.730000", "120243.520000", "120244.307500", "120245.095000", "120245.882500", "120246.672500", "120247.460000", "120248.247500", "120249.037500", "120249.825000", "120250.612500", "120251.400000", "120252.190000", "120252.977500", "120253.765000", "120254.552500", "120255.342500", "120256.130000", "120256.917500", "120257.705000", "120258.495000", "120259.282500", "120300.070000", "120300.857500", "120301.647500", "120302.435000", "120303.222500", "120304.010000", "120304.800000", "120305.587500", "120306.375000", "120307.165000", "120307.952500", "120308.740000", "120309.527500", "120310.317500", "120311.105000", "120311.892500", "120312.680000", "120313.470000", "120314.257500", "120315.045000", "120315.832500", "120316.622500", "120317.410000", "120318.197500", "120318.985000", "120319.775000", "120320.562500", "120321.350000", "120322.137500", "120322.927500", "120323.715000", "120324.502500", "120325.292500", "120326.080000", "120326.867500", "120327.655000", "120328.445000", "120329.232500", "120330.020000", "120330.807500", "120331.597500", "120332.385000", "120333.172500", "120333.960000", "120334.750000", "120335.537500", "120336.325000", "120337.112500", "120337.902500", "120338.690000", "120339.477500", "120340.265000", "120341.055000", "120341.842500", "120342.630000", "120343.420000", "120344.207500", "120344.995000", "120345.782500", "120346.572500", "120347.360000", "120348.147500", "120348.935000", "120349.725000", "120350.512500", "120351.300000", "120352.087500", "120352.877500", "120353.665000", "120354.452500", "120355.240000", "120356.030000", "120356.817500", "120357.605000", "120358.392500", "120359.182500", "120359.970000", "120400.757500", "120401.547500", "120402.335000", "120403.122500", "120403.910000", "120404.700000", "120405.487500", "120406.275000", "120407.062500", "120407.852500", "120408.640000", "120409.427500", "120410.215000", "120411.005000", "120411.792500", "120412.580000", "120413.367500", "120414.157500", "120414.945000", "120415.732500", "120416.520000", "120417.310000", "120418.097500", "120418.885000", "120419.675000", "120420.462500", "120421.250000", "120422.037500", "120422.827500", "120423.615000", "120424.402500", "120425.190000", "120425.980000", "120426.767500", "120427.555000", "120428.342500", "120429.132500", "120429.920000", "120430.707500", "120431.495000", "120432.285000", "120433.072500", "120433.860000", "120434.647500", "120435.437500", "120436.225000", "120437.012500", "120437.802500", "120438.590000", "120439.377500", "120440.165000", "120440.955000", "120441.742500", "120442.530000", "120443.317500", "120444.107500", "120444.895000", "120445.682500", "120446.470000", "120447.260000", "120448.047500", "120448.835000"],
      "ContentTime": ["115733.656000", "115733.671000", "115733.671000", "115733.671000", "115733.671000", "115733.671000", "115733.671000", "115733.671000", "115733.671000", "115733.687000", "115733.687000", "115733.687000", "115733.687000", "115733.687000", "115733.687000", "115733.687000", "115733.703000", "115733.703000", "115733.703000", "115733.703000", "115733.703000", "115733.703000", "115733.718000", "115733.718000", "115733.718000", "115753.625000", "115753.625000", "115753.640000", "115753.640000", "115753.640000", "115753.640000", "115753.640000", "115753.640000", "115753.640000", "115753.656000", "115753.656000", "115753.656000", "115753.656000", "115753.656000", "115753.656000", "115753.656000", "115753.656000", "115753.671000", "115753.671000", "115753.671000", "115753.671000", "115753.671000", "115753.671000", "115753.671000", "115753.671000", "115753.687000", "115813.625000", "115813.625000", "115813.640000", "115813.640000", "115813.640000", "115813.640000", "115813.640000", "115813.640000", "115813.656000", "115813.656000", "115813.656000", "115813.656000", "115813.656000", "115813.656000", "115813.656000", "115813.671000", "115813.671000", "115813.671000", "115813.671000", "115813.671000", "115813.671000", "115813.671000", "115813.671000", "115813.687000", "115813.687000", "115833.625000", "115833.625000", "115833.640000", "115833.640000", "115833.640000", "115833.640000", "115833.640000", "115833.671000", "115833.671000", "115833.671000", "115833.671000", "115833.671000", "115833.671000", "115833.671000", "115833.687000", "115833.687000", "115833.687000", "115833.687000", "115833.687000", "115833.687000", "115833.687000", "115833.703000", "115833.703000", "115833.703000", "115833.703000", "115853.625000", "115853.625000", "115853.640000", "115853.640000", "115853.640000", "115853.640000", "115853.640000", "115853.640000", "115853.640000", "115853.656000", "115853.656000", "115853.656000", "115853.656000", "115853.656000", "115853.656000", "115853.656000", "115853.671000", "115853.671000", "115853.671000", "115853.671000", "115853.671000", "115853.671000", "115853.671000", "115853.671000", "115853.687000", "115853.687000", "115913.625000", "115913.625000", "115913.640000", "115913.640000", "115913.640000", "115913.656000", "115913.656000", "115913.656000", "115913.656000", "115913.671000", "115913.671000", "115913.671000", "115913.671000", "115913.671000", "115913.671000", "115913.671000", "115913.687000", "115913.687000", "115913.687000", "115913.687000", "115913.687000", "115913.687000", "115913.687000", "115913.703000", "115913.703000", "115933.625000", "115933.625000", "115933.640000", "115933.640000", "115933.640000", "115933.640000", "115933.640000", "115933.656000", "115933.656000", "115933.656000", "115933.656000", "115933.656000", "115933.656000", "115933.656000", "115933.671000", "115933.671000", "115933.671000", "115933.671000", "115933.671000", "115933.671000", "115933.671000", "115933.671000", "115933.687000", "115933.687000", "115933.687000", "115933.687000", "115953.625000", "115953.640000", "115953.640000", "115953.640000", "115953.640000", "115953.640000", "115953.640000", "115953.640000", "115953.656000", "115953.656000", "115953.656000", "115953.656000", "115953.656000", "115953.656000", "115953.671000", "115953.671000", "115953.671000", "115953.671000", "115953.671000", "115953.671000", "115953.671000", "115953.687000", "115953.687000", "115953.687000", "115953.687000", "120013.625000", "120013.625000", "120013.640000", "120013.640000", "120013.640000", "120013.640000", "120013.640000", "120013.640000", "120013.640000", "120013.656000", "120013.656000", "120013.656000", "120013.656000", "120013.656000", "120013.656000", "120013.656000", "120013.656000", "120013.671000", "120013.671000", "120013.671000", "120013.671000", "120013.671000", "120013.671000", "120013.671000", "120013.671000", "120013.687000", "120033.625000", "120033.640000", "120033.640000", "120033.640000", "120033.640000", "120033.640000", "120033.640000", "120033.640000", "120033.656000", "120033.656000", "120033.656000", "120033.656000", "120033.656000", "120033.671000", "120033.671000", "120033.671000", "120033.671000", "120033.671000", "120033.671000", "120033.671000", "120033.687000", "120033.687000", "120033.687000", "120033.687000", "120033.687000", "120053.625000", "120053.625000", "120053.640000", "120053.640000", "120053.640000", "120053.640000", "120053.640000", "120053.640000", "120053.640000", "120053.656000", "120053.656000", "120053.656000", "120053.656000", "120053.656000", "120053.656000", "120053.656000", "120053.656000", "120053.671000", "120053.671000", "120053.671000", "120053.671000", "120053.671000", "120053.671000", "120053.687000", "120053.687000", "120053.687000", "120113.625000", "120113.625000", "120113.640000", "120113.640000", "120113.640000", "120113.640000", "120113.640000", "120113.640000", "120113.640000", "120113.656000", "120113.656000", "120113.656000", "120113.656000", "120113.656000", "120113.656000", "120113.656000", "120113.671000", "120113.671000", "120113.671000", "120113.671000", "120113.671000", "120113.671000", "120113.687000", "120113.687000", "120113.687000", "120133.625000", "120133.640000", "120133.640000", "120133.640000", "120133.640000", "120133.640000", "120133.640000", "120133.656000", "120133.656000", "120133.656000", "120133.656000", "120133.656000", "120133.656000", "120133.656000", "120133.656000", "120133.671000", "120133.671000", "120133.671000", "120133.671000", "120133.671000", "120133.671000", "120133.671000", "120133.671000", "120133.687000", "120133.687000", "120133.687000", "120153.625000", "120153.625000", "120153.640000", "120153.640000", "120153.640000", "120153.640000", "120153.640000", "120153.640000", "120153.640000", "120153.656000", "120153.656000", "120153.656000", "120153.656000", "120153.656000", "120153.656000", "120153.656000", "120153.656000", "120153.671000", "120153.671000", "120153.671000", "120153.671000", "120153.671000", "120153.671000", "120153.671000", "120153.671000", "120213.625000", "120213.625000", "120213.640000", "120213.640000", "120213.640000", "120213.640000", "120213.640000", "120213.640000", "120213.640000", "120213.656000", "120213.656000", "120213.656000", "120213.656000", "120213.656000", "120213.656000", "120213.656000", "120213.671000", "120213.671000", "120213.671000", "120213.671000", "120213.671000", "120213.671000", "120213.687000", "120213.687000", "120213.687000", "120213.687000", "120233.625000", "120233.625000", "120233.640000", "120233.640000", "120233.640000", "120233.640000", "120233.640000", "120233.640000", "120233.640000", "120233.656000", "120233.656000", "120233.656000", "120233.656000", "120233.656000", "120233.656000", "120233.656000", "120233.656000", "120233.671000", "120233.671000", "120233.671000", "120233.671000", "120233.671000", "120233.687000", "120233.687000", "120233.687000", "120253.625000", "120253.640000", "120253.640000", "120253.640000", "120253.640000", "120253.640000", "120253.640000", "120253.640000", "120253.640000", "120253.656000", "120253.656000", "120253.656000", "120253.656000", "120253.656000", "120253.656000", "120253.656000", "120253.656000", "120253.671000", "120253.671000", "120253.671000", "120253.671000", "120253.671000", "120253.687000", "120253.687000", "120253.687000", "120253.687000", "120313.625000", "120313.625000", "120313.640000", "120313.640000", "120313.640000", "120313.640000", "120313.640000", "120313.656000", "120313.656000", "120313.656000", "120313.656000", "120313.656000", "120313.656000", "120313.656000", "120313.656000", "120313.671000", "120313.671000", "120313.671000", "120313.671000", "120313.671000", "120313.671000", "120313.671000", "120313.687000", "120313.687000", "120313.687000", "120333.625000", "120333.625000", "120333.640000", "120333.640000", "120333.640000", "120333.640000", "120333.640000", "120333.640000", "120333.640000", "120333.656000", "120333.656000", "120333.656000", "120333.656000", "120333.656000", "120333.656000", "120333.656000", "120333.656000", "120333.671000", "120333.671000", "120333.671000", "120333.671000", "120333.671000", "120333.671000", "120333.671000", "120333.687000", "120333.687000", "120353.625000", "120353.625000", "120353.640000", "120353.640000", "120353.640000", "120353.640000", "120353.640000", "120353.640000", "120353.640000", "120353.656000", "120353.656000", "120353.656000", "120353.656000", "120353.656000", "120353.656000", "120353.656000", "120353.656000", "120353.671000", "120353.671000", "120353.671000", "120353.671000", "120353.687000", "120353.687000", "120353.687000", "120353.687000", "120413.625000", "120413.640000", "120413.640000", "120413.640000", "120413.640000", "120413.640000", "120413.640000", "120413.640000", "120413.640000", "120413.656000", "120413.656000", "120413.656000", "120413.656000", "120413.656000", "120413.656000", "120413.656000", "120413.656000", "120413.671000", "120413.671000", "120413.671000", "120413.671000", "120413.671000", "120413.671000", "120413.671000", "120413.687000", "120413.687000", "120433.625000", "120433.640000", "120433.640000", "120433.640000", "120433.640000", "120433.640000", "120433.640000", "120433.656000", "120433.656000", "120433.656000", "120433.656000", "120433.656000", "120433.656000", "120433.656000", "120433.671000", "120433.671000", "120433.671000", "120433.671000", "120433.687000", "120433.687000", "120433.687000", "120433.687000", "120433.687000", "120433.687000", "120433.687000", "120449.687000", "120449.687000", "120449.687000", "120449.687000", "120449.687000", "120449.687000", "120449.687000", "120449.687000", "120449.703000", "120449.703000", "120449.703000", "120449.703000", "120449.703000", "120449.718000", "120449.718000", "120449.718000", "120449.718000", "120449.718000", "120449.718000", "120449.718000", "120449.734000"],
