{
  "AcquisitionMatrixPE": 104,
  "AcquisitionNumber": 1,
  "AcquisitionTime": "14:53:45.147500",
  "BandwidthPerPixelPhaseEncode": 13.935,
  "BaseResolution": 104,
  "CoilString": "C:HEA;HEP",
  "ConversionSoftware": "dcm2niix",
  "ConversionSoftwareVersion": "v1.0.20210317",
  "DerivedVendorReportedEchoSpacing": 0.000690017,
  "DeviceSerialNumber": "35450",
  "DwellTime": 2.5e-06,
  "EchoTime": 0.0348,
  "EffectiveEchoSpacing": 0.000690017,
  "FlipAngle": 55,
  "ImageComments": "Unaliased MB8/PE3 (remote)",
  "ImageOrientationPatientDICOM": [0.999783, 0.002393, 0.0206772, -4.1966e-08, 0.99337, -0.114962],
  "ImageType": [
    "ORIGINAL",
    "PRIMARY",
    "M",
    "MB",
    "ND",
    "MOSAIC"
],
  "ImagingFrequency": 123.235,
  "InPlanePhaseEncodingDirectionDICOM": "COL",
  "InstitutionAddress": "Univeristy Ave. 197,Newark,North East,US,07102-1814",
  "InstitutionName": "RUBIC",
  "InstitutionalDepartmentName": "Department",
  "MRAcquisitionType": "2D",
  "MagneticFieldStrength": 3,
  "Manufacturer": "Siemens",
  "ManufacturersModelName": "TrioTim",
  "Modality": "MR",
  "MultibandAccelerationFactor": 8,
  "PartialFourier": 0.875,
  "PatientPosition": "HFS",
  "PercentPhaseFOV": 100,
  "PercentSampling": 100,
  "PhaseEncodingDirection": "j-",
  "PhaseEncodingSteps": 91,
  "PhaseResolution": 1,
  "PixelBandwidth": 1923,
  "ProcedureStepDescription": "Cole^Michael",
  "ProtocolName": "cmrr_mbep2d_bold_2mm_MB8_Task_8x",
  "PulseSequenceDetails": "%CustomerSeq%\\cmrr_mbep2d_bold",
  "ReceiveCoilName": "32Ch_Head",
  "ReconMatrixPE": 104,
  "RepetitionTime": 0.785,
  "SAR": 0.153358,
  "ScanOptions": "PFP\\FS",
  "ScanningSequence": "EP",
  "SequenceName": "epfid2d1_104",
  "SequenceVariant": "SK\\SS",
  "SeriesDescription": "cmrr_mbep2d_bold_2mm_MB8_Task_8x",
  "SeriesNumber": 13,
  "ShimSetting": [2127, -474, -7292, 383, -170, 197, 273, 118],
  "SliceThickness": 2,
  "SliceTiming": [0, 0.4375, 0.0875, 0.525, 0.175, 0.6125, 0.2625, 0.7, 0.35, 0, 0.4375, 0.0875, 0.525, 0.175, 0.6125, 0.2625, 0.7, 0.35, 0, 0.4375, 0.0875, 0.525, 0.175, 0.6125, 0.2625, 0.7, 0.35, 0, 0.4375, 0.0875, 0.525, 0.175, 0.6125, 0.2625, 0.7, 0.35, 0, 0.4375, 0.0875, 0.525, 0.175, 0.6125, 0.2625, 0.7, 0.35, 0, 0.4375, 0.0875, 0.525, 0.175, 0.6125, 0.2625, 0.7, 0.35, 0, 0.4375, 0.0875, 0.525, 0.175, 0.6125, 0.2625, 0.7, 0.35, 0, 0.4375, 0.0875, 0.525, 0.175, 0.6125, 0.2625, 0.7, 0.35],
  "SoftwareVersions": "syngo MR B19",
  "SpacingBetweenSlices": 2,
  "StationName": "MRC35450",
  "TaskName": "cpro",
  "TotalReadoutTime": 0.0710717,
  "TxRefAmp": 375.095,
  "dcmmeta_affine": [
    [-1.999566674232483, -8.393190142896856e-08, 0.04163039103150368, 103.91261291503906],
    [-0.0047859917394816875, 1.9867397546768188, -0.22987395524978638, -79.6429443359375],
    [0.04135436937212944, 0.2299237698316574, 1.986309289932251, -111.92595672607422],
    [0.0, 0.0, 0.0, 1.0]
],
  "dcmmeta_reorient_transform": [
    [0.0, -1.0, 0.0, 103.0],
    [1.0, 0.0, 0.0, 0.0],
    [0.0, 0.0, 1.0, 0.0],
    [0.0, 0.0, 0.0, 1.0]
],
  "dcmmeta_shape": [104, 104, 72, 581],
  "dcmmeta_slice_dim": 2,
  "dcmmeta_version": 0.6,
  "global": {
    "const": {
      "AcquisitionMatrix": [104, 0, 0, 104],
      "AngioFlag": "N",
      "BitsAllocated": 16,
      "BitsStored": 12,
      "Columns": 936,
      "EchoNumbers": 1,
      "EchoTime": 34.8,
      "EchoTrainLength": 1,
      "FlipAngle": 55.0,
      "HighBit": 11,
      "ImageOrientationPatient": [0.99978334032622, 0.00239299597315, 0.02067718492516, -4.1965952e-08, 0.99336990304176, -0.1149618881665],
      "ImagePositionPatient": [-935.7323059229, -953.46598876116, -9.7989333544987],
      "ImageType": [
        "ORIGINAL",
        "PRIMARY",
        "M",
        "MB",
        "ND",
        "MOSAIC"
],
      "ImagedNucleus": "1H",
      "ImagingFrequency": 123.234585,
      "InPlanePhaseEncodingDirection": "COL",
      "MRAcquisitionType": "2D",
      "MagneticFieldStrength": 3.0,
      "Manufacturer": "SIEMENS",
      "ManufacturerModelName": "TrioTim",
      "Modality": "MR",
      "NumberOfAverages": 1.0,
      "NumberOfPhaseEncodingSteps": 91,
      "PercentPhaseFieldOfView": 100.0,
      "PercentSampling": 100.0,
      "PerformedProcedureStepStartTime": "135809.109000",
      "PhotometricInterpretation": "MONOCHROME2",
      "PixelBandwidth": 1923.0,
      "PixelRepresentation": 0,
      "PixelSpacing": [2.0, 2.0],
      "ProtocolName": "cmrr_mbep2d_bold_2mm_MB8_Task_8x",
      "RepetitionTime": 785.0,
      "Rows": 936,
      "SAR": 0.15335848545227,
      "SamplesPerPixel": 1,
      "ScanOptions": [
        "PFP",
        "FS"
],
      "ScanningSequence": "EP",
      "SequenceName": "epfid2d1_104",
      "SequenceVariant": [
        "SK",
        "SS"
],
      "SeriesDescription": "cmrr_mbep2d_bold_2mm_MB8_Task_8x",
      "SeriesNumber": 13,
      "SeriesTime": "145415.921000",
      "SliceLocation": -99.842905670565,
      "SliceThickness": 2.0,
      "SmallestImagePixelValue": 0,
      "SoftwareVersions": "syngo MR B19",
      "SpacingBetweenSlices": 1.9999999581601,
      "SpecificCharacterSet": "ISO_IR 100",
      "StudyID": "1",
      "StudyTime": "135809.062000",
      "TransmitCoilName": "Body",
      "VariableFlipAngleFlag": "N",
      "WindowCenterWidthExplanation": "Algo1",
      "dBdt": 0.0},
    "slices": {}
  },
  "time": {
    "samples": {
      "AcquisitionNumber": [1, 2, 3, 4, 5, 6, 7, 8, 9, 10, 11, 12, 13, 14, 15, 16, 17, 18, 19, 20, 21, 22, 23, 24, 25, 26, 27, 28, 29, 30, 31, 32, 33, 34, 35, 36, 37, 38, 39, 40, 41, 42, 43, 44, 45, 46, 47, 48, 49, 50, 51, 52, 53, 54, 55, 56, 57, 58, 59, 60, 61, 62, 63, 64, 65, 66, 67, 68, 69, 70, 71, 72, 73, 74, 75, 76, 77, 78, 79, 80, 81, 82, 83, 84, 85, 86, 87, 88, 89, 90, 91, 92, 93, 94, 95, 96, 97, 98, 99, 100, 101, 102, 103, 104, 105, 106, 107, 108, 109, 110, 111, 112, 113, 114, 115, 116, 117, 118, 119, 120, 121, 122, 123, 124, 125, 126, 127, 128, 129, 130, 131, 132, 133, 134, 135, 136, 137, 138, 139, 140, 141, 142, 143, 144, 145, 146, 147, 148, 149, 150, 151, 152, 153, 154, 155, 156, 157, 158, 159, 160, 161, 162, 163, 164, 165, 166, 167, 168, 169, 170, 171, 172, 173, 174, 175, 176, 177, 178, 179, 180, 181, 182, 183, 184, 185, 186, 187, 188, 189, 190, 191, 192, 193, 194, 195, 196, 197, 198, 199, 200, 201, 202, 203, 204, 205, 206, 207, 208, 209, 210, 211, 212, 213, 214, 215, 216, 217, 218, 219, 220, 221, 222, 223, 224, 225, 226, 227, 228, 229, 230, 231, 232, 233, 234, 235, 236, 237, 238, 239, 240, 241, 242, 243, 244, 245, 246, 247, 248, 249, 250, 251, 252, 253, 254, 255, 256, 257, 258, 259, 260, 261, 262, 263, 264, 265, 266, 267, 268, 269, 270, 271, 272, 273, 274, 275, 276, 277, 278, 279, 280, 281, 282, 283, 284, 285, 286, 287, 288, 289, 290, 291, 292, 293, 294, 295, 296, 297, 298, 299, 300, 301, 302, 303, 304, 305, 306, 307, 308, 309, 310, 311, 312, 313, 314, 315, 316, 317, 318, 319, 320, 321, 322, 323, 324, 325, 326, 327, 328, 329, 330, 331, 332, 333, 334, 335, 336, 337, 338, 339, 340, 341, 342, 343, 344, 345, 346, 347, 348, 349, 350, 351, 352, 353, 354, 355, 356, 357, 358, 359, 360, 361, 362, 363, 364, 365, 366, 367, 368, 369, 370, 371, 372, 373, 374, 375, 376, 377, 378, 379, 380, 381, 382, 383, 384, 385, 386, 387, 388, 389, 390, 391, 392, 393, 394, 395, 396, 397, 398, 399, 400, 401, 402, 403, 404, 405, 406, 407, 408, 409, 410, 411, 412, 413, 414, 415, 416, 417, 418, 419, 420, 421, 422, 423, 424, 425, 426, 427, 428, 429, 430, 431, 432, 433, 434, 435, 436, 437, 438, 439, 440, 441, 442, 443, 444, 445, 446, 447, 448, 449, 450, 451, 452, 453, 454, 455, 456, 457, 458, 459, 460, 461, 462, 463, 464, 465, 466, 467, 468, 469, 470, 471, 472, 473, 474, 475, 476, 477, 478, 479, 480, 481, 482, 483, 484, 485, 486, 487, 488, 489, 490, 491, 492, 493, 494, 495, 496, 497, 498, 499, 500, 501, 502, 503, 504, 505, 506, 507, 508, 509, 510, 511, 512, 513, 514, 515, 516, 517, 518, 519, 520, 521, 522, 523, 524, 525, 526, 527, 528, 529, 530, 531, 532, 533, 534, 535, 536, 537, 538, 539, 540, 541, 542, 543, 544, 545, 546, 547, 548, 549, 550, 551, 552, 553, 554, 555, 556, 557, 558, 559, 560, 561, 562, 563, 564, 565, 566, 567, 568, 569, 570, 571, 572, 573, 574, 575, 576, 577, 578, 579, 580, 581],
      "AcquisitionTime": ["145345.147500", "145345.935000", "145346.725000", "145347.512500", "145348.300000", "145349.087500", "145349.877500", "145350.665000", "145351.452500", "145352.240000", "145353.030000", "145353.817500", "145354.605000", "145355.395000", "145356.182500", "145356.970000", "145357.757500", "145358.547500", "145359.335000", "145400.122500", "145400.910000", "145401.700000", "145402.487500", "145403.275000", "145404.062500", "145404.852500", "145405.640000", "145406.427500", "145407.215000", "145408.005000", "145408.792500", "145409.580000", "145410.367500", "145411.157500", "145411.945000", "145412.732500", "145413.522500", "145414.310000", "145415.097500", "145415.885000", "145416.675000", "145417.462500", "145418.250000", "145419.037500", "145419.827500", "145420.615000", "145421.402500", "145422.190000", "145422.980000", "145423.767500", "145424.555000", "145425.342500", "145426.132500", "145426.920000", "145427.707500", "145428.495000", "145429.285000", "145430.072500", "145430.860000", "145431.650000", "145432.437500", "145433.225000", "145434.012500", "145434.802500", "145435.590000", "145436.377500", "145437.165000", "145437.955000", "145438.742500", "145439.530000", "145440.317500", "145441.107500", "145441.895000", "145442.682500", "145443.470000", "145444.260000", "145445.047500", "145445.835000", "145446.622500", "145447.412500", "145448.200000", "145448.987500", "145449.777500", "145450.565000", "145451.352500", "145452.140000", "145452.930000", "145453.717500", "145454.505000", "145455.292500", "145456.082500", "145456.870000", "145457.657500", "145458.445000", "145459.235000", "145500.022500", "145500.810000", "145501.597500", "145502.387500", "145503.175000", "145503.962500", "145504.750000", "145505.540000", "145506.327500", "145507.115000", "145507.905000", "145508.692500", "145509.480000", "145510.267500", "145511.057500", "145511.845000", "145512.632500", "145513.420000", "145514.210000", "145514.997500", "145515.785000", "145516.572500", "145517.362500", "145518.150000", "145518.937500", "145519.725000", "145520.515000", "145521.302500", "145522.090000", "145522.880000", "145523.667500", "145524.455000", "145525.242500", "145526.032500", "145526.820000", "145527.607500", "145528.395000", "145529.185000", "145529.972500", "145530.760000", "145531.547500", "145532.337500", "145533.125000", "145533.912500", "145534.700000", "145535.490000", "145536.277500", "145537.065000", "145537.852500", "145538.642500", "145539.430000", "145540.217500", "145541.007500", "145541.795000", "145542.582500", "145543.370000", "145544.160000", "145544.947500", "145545.735000", "145546.522500", "145547.312500", "145548.100000", "145548.887500", "145549.675000", "145550.465000", "145551.252500", "145552.040000", "145552.827500", "145553.617500", "145554.405000", "145555.192500", "145555.980000", "145556.770000", "145557.557500", "145558.345000", "145559.135000", "145559.922500", "145600.710000", "145601.497500", "145602.287500", "145603.075000", "145603.862500", "145604.650000", "145605.440000", "145606.227500", "145607.015000", "145607.802500", "145608.592500", "145609.380000", "145610.167500", "145610.955000", "145611.745000", "145612.532500", "145613.320000", "145614.107500", "145614.897500", "145615.685000", "145616.472500", "145617.262500", "145618.050000", "145618.837500", "145619.625000", "145620.415000", "145621.202500", "145621.990000", "145622.777500", "145623.567500", "145624.355000", "145625.142500", "145625.930000", "145626.720000", "145627.507500", "145628.295000", "145629.082500", "145629.872500", "145630.660000", "145631.447500", "145632.235000", "145633.025000", "145633.812500", "145634.600000", "145635.390000", "145636.177500", "145636.965000", "145637.752500", "145638.542500", "145639.330000", "145640.117500", "145640.905000", "145641.695000", "145642.482500", "145643.270000", "145644.057500", "145644.847500", "145645.635000", "145646.422500", "145647.210000", "145648.000000", "145648.787500", "145649.575000", "145650.362500", "145651.152500", "145651.940000", "145652.727500", "145653.517500", "145654.305000", "145655.092500", "145655.880000", "145656.670000", "145657.457500", "145658.245000", "145659.032500", "145659.822500", "145700.610000", "145701.397500", "145702.185000", "145702.975000", "145703.762500", "145704.550000", "145705.337500", "145706.127500", "145706.915000", "145707.702500", "145708.490000", "145709.280000", "145710.067500", "145710.855000", "145711.645000", "145712.432500", "145713.220000", "145714.007500", "145714.797500", "145715.585000", "145716.372500", "145717.160000", "145717.950000", "145718.737500", "145719.525000", "145720.312500", "145721.102500", "145721.890000", "145722.677500", "145723.465000", "145724.255000", "145725.042500", "145725.830000", "145726.617500", "145727.407500", "145728.195000", "145728.982500", "145729.772500", "145730.560000", "145731.347500", "145732.135000", "145732.925000", "145733.712500", "145734.500000", "145735.287500", "145736.077500", "145736.865000", "145737.652500", "145738.440000", "145739.230000", "145740.017500", "145740.805000", "145741.592500", "145742.382500", "145743.170000", "145743.957500", "145744.745000", "145745.535000", "145746.322500", "145747.110000", "145747.900000", "145748.687500", "145749.475000", "145750.262500", "145751.052500", "145751.840000", "145752.627500", "145753.415000", "145754.205000", "145754.992500", "145755.780000", "145756.567500", "145757.357500", "145758.145000", "145758.932500", "145759.720000", "145800.510000", "145801.297500", "145802.085000", "145802.872500", "145803.662500", "145804.450000", "145805.237500", "145806.027500", "145806.815000", "145807.602500", "145808.390000", "145809.180000", "145809.967500", "145810.755000", "145811.542500", "145812.332500", "145813.120000", "145813.907500", "145814.695000", "145815.485000", "145816.272500", "145817.060000", "145817.847500", "145818.637500", "145819.425000", "145820.212500", "145821.000000", "145821.790000", "145822.577500", "145823.365000", "145824.155000", "145824.942500", "145825.730000", "145826.517500", "145827.307500", "145828.095000", "145828.882500", "145829.670000", "145830.460000", "145831.247500", "145832.035000", "145832.822500", "145833.612500", "145834.400000", "145835.187500", "145835.975000", "145836.765000", "145837.552500", "145838.340000", "145839.130000", "145839.917500", "145840.705000", "145841.492500", "145842.282500", "145843.070000", "145843.857500", "145844.645000", "145845.435000", "145846.222500", "145847.010000", "145847.797500", "145848.587500", "145849.375000", "145850.162500", "145850.950000", "145851.740000", "145852.527500", "145853.315000", "145854.102500", "145854.892500", "145855.680000", "145856.467500", "145857.257500", "145858.045000", "145858.832500", "145859.620000", "145900.410000", "145901.197500", "145901.985000", "145902.772500", "145903.562500", "145904.350000", "145905.137500", "145905.925000", "145906.715000", "145907.502500", "145908.290000", "145909.077500", "145909.867500", "145910.655000", "145911.442500", "145912.230000", "145913.020000", "145913.807500", "145914.595000", "145915.385000", "145916.172500", "145916.960000", "145917.747500", "145918.537500", "145919.325000", "145920.112500", "145920.900000", "145921.690000", "145922.477500", "145923.265000", "145924.052500", "145924.842500", "145925.630000", "145926.417500", "145927.205000", "145927.995000", "145928.782500", "145929.570000", "145930.357500", "145931.147500", "145931.935000", "145932.722500", "145933.512500", "145934.300000", "145935.087500", "145935.875000", "145936.665000", "145937.452500", "145938.240000", "145939.027500", "145939.817500", "145940.605000", "145941.392500", "145942.180000", "145942.970000", "145943.757500", "145944.545000", "145945.332500", "145946.122500", "145946.910000", "145947.697500", "145948.485000", "145949.275000", "145950.062500", "145950.850000", "145951.640000", "145952.427500", "145953.215000", "145954.002500", "145954.792500", "145955.580000", "145956.367500", "145957.155000", "145957.945000", "145958.732500", "145959.520000", "150000.307500", "150001.097500", "150001.885000", "150002.672500", "150003.460000", "150004.250000", "150005.037500", "150005.825000", "150006.612500", "150007.402500", "150008.190000", "150008.977500", "150009.767500", "150010.555000", "150011.342500", "150012.130000", "150012.920000", "150013.707500", "150014.495000", "150015.282500", "150016.072500", "150016.860000", "150017.647500", "150018.435000", "150019.225000", "150020.012500", "150020.800000", "150021.587500", "150022.377500", "150023.165000", "150023.952500", "150024.740000", "150025.530000", "150026.317500", "150027.105000", "150027.895000", "150028.682500", "150029.470000", "150030.257500", "150031.047500", "150031.835000", "150032.622500", "150033.410000", "150034.200000", "150034.987500", "150035.775000", "150036.562500", "150037.352500", "150038.140000", "150038.927500", "150039.715000", "150040.505000", "150041.292500", "150042.080000", "150042.867500", "150043.657500", "150044.445000", "150045.232500", "150046.022500", "150046.810000", "150047.597500", "150048.385000", "150049.175000", "150049.962500", "150050.750000", "150051.537500", "150052.327500", "150053.115000", "150053.902500", "150054.690000", "150055.480000", "150056.267500", "150057.055000", "150057.842500", "150058.632500", "150059.420000", "150100.207500", "150100.995000", "150101.785000", "150102.572500", "150103.360000", "150104.150000", "150104.937500", "150105.725000", "150106.512500", "150107.302500", "150108.090000", "150108.877500", "150109.665000", "150110.455000", "150111.242500", "150112.030000", "150112.817500", "150113.607500", "150114.395000", "150115.182500", "150115.970000", "150116.760000", "150117.547500", "150118.335000", "150119.122500", "150119.912500", "150120.700000", "150121.487500", "150122.277500"],
      "ContentTime": ["145415.921000", "145415.921000", "145415.921000", "145415.921000", "145415.937000", "145415.937000", "145415.953000", "145415.953000", "145415.953000", "145415.953000", "145415.953000", "145415.953000", "145415.953000", "145415.968000", "145415.968000", "145415.968000", "145415.968000", "145415.968000", "145415.968000", "145415.968000", "145415.984000", "145415.984000", "145415.984000", "145415.984000", "145415.984000", "145415.984000", "145415.984000", "145415.984000", "145416.000000", "145416.000000", "145416.000000", "145416.000000", "145416.000000", "145416.000000", "145416.015000", "145416.015000", "145416.015000", "145416.015000", "145435.890000", "145435.890000", "145435.890000", "145435.890000", "145435.906000", "145435.906000", "145435.906000", "145435.906000", "145435.906000", "145435.906000", "145435.906000", "145435.921000", "145435.921000", "145435.921000", "145435.921000", "145435.921000", "145435.937000", "145435.937000", "145435.937000", "145435.937000", "145435.937000", "145435.953000", "145435.953000", "145435.968000", "145435.968000", "145455.890000", "145455.890000", "145455.890000", "145455.890000", "145455.890000", "145455.906000", "145455.906000", "145455.906000", "145455.906000", "145455.906000", "145455.906000", "145455.906000", "145455.921000", "145455.921000", "145455.921000", "145455.921000", "145455.921000", "145455.921000", "145455.921000", "145455.921000", "145455.937000", "145455.937000", "145455.937000", "145455.937000", "145455.937000", "145455.937000", "145515.890000", "145515.890000", "145515.890000", "145515.890000", "145515.890000", "145515.906000", "145515.906000", "145515.906000", "145515.906000", "145515.906000", "145515.906000", "145515.906000", "145515.921000", "145515.921000", "145515.921000", "145515.921000", "145515.921000", "145515.921000", "145515.921000", "145515.921000", "145515.937000", "145515.937000", "145515.937000", "145515.937000", "145515.937000", "145535.890000", "145535.890000", "145535.890000", "145535.890000", "145535.906000", "145535.906000", "145535.906000", "145535.906000", "145535.906000", "145535.921000", "145535.921000", "145535.921000", "145535.921000", "145535.937000", "145535.937000", "145535.937000", "145535.937000", "145535.937000", "145535.968000", "145535.968000", "145535.968000", "145535.968000", "145535.968000", "145535.968000", "145535.968000", "145535.968000", "145555.890000", "145555.890000", "145555.890000", "145555.890000", "145555.890000", "145555.906000", "145555.906000", "145555.906000", "145555.906000", "145555.906000", "145555.906000", "145555.906000", "145555.921000", "145555.921000", "145555.921000", "145555.921000", "145555.921000", "145555.921000", "145555.921000", "145555.921000", "145555.937000", "145555.937000", "145555.937000", "145555.937000", "145555.937000", "145615.890000", "145615.890000", "145615.890000", "145615.890000", "145615.906000", "145615.906000", "145615.906000", "145615.906000", "145615.906000", "145615.906000", "145615.906000", "145615.906000", "145615.921000", "145615.921000", "145615.921000", "145615.921000", "145615.921000", "145615.921000", "145615.921000", "145615.921000", "145615.937000", "145615.937000", "145615.937000", "145615.937000", "145615.937000", "145615.953000", "145635.890000", "145635.890000", "145635.890000", "145635.890000", "145635.906000", "145635.906000", "145635.906000", "145635.906000", "145635.906000", "145635.906000", "145635.906000", "145635.906000", "145635.921000", "145635.921000", "145635.921000", "145635.921000", "145635.921000", "145635.921000", "145635.921000", "145635.921000", "145635.937000", "145635.937000", "145635.937000", "145635.937000", "145635.937000", "145655.890000", "145655.890000", "145655.890000", "145655.890000", "145655.906000", "145655.906000", "145655.906000", "145655.906000", "145655.906000", "145655.906000", "145655.906000", "145655.906000", "145655.921000", "145655.921000", "145655.921000", "145655.921000", "145655.921000", "145655.921000", "145655.937000", "145655.937000", "145655.937000", "145655.937000", "145655.937000", "145655.937000", "145655.937000", "145655.953000", "145715.890000", "145715.890000", "145715.890000", "145715.890000", "145715.890000", "145715.906000", "145715.906000", "145715.906000", "145715.906000", "145715.906000", "145715.906000", "145715.906000", "145715.921000", "145715.921000", "145715.921000", "145715.921000", "145715.921000", "145715.921000", "145715.921000", "145715.921000", "145715.937000", "145715.937000", "145715.937000", "145715.937000", "145715.937000", "145735.890000", "145735.890000", "145735.890000", "145735.890000", "145735.906000", "145735.906000", "145735.906000", "145735.906000", "145735.906000", "145735.906000", "145735.906000", "145735.921000", "145735.921000", "145735.921000", "145735.921000", "145735.921000", "145735.921000", "145735.921000", "145735.937000", "145735.937000", "145735.937000", "145735.953000", "145735.953000", "145735.953000", "145735.953000", "145735.953000", "145755.890000", "145755.890000", "145755.890000", "145755.890000", "145755.906000", "145755.906000", "145755.906000", "145755.906000", "145755.906000", "145755.906000", "145755.906000", "145755.906000", "145755.921000", "145755.921000", "145755.921000", "145755.921000", "145755.921000", "145755.921000", "145755.921000", "145755.937000", "145755.937000", "145755.937000", "145755.937000", "145755.937000", "145755.937000", "145815.890000", "145815.890000", "145815.890000", "145815.890000", "145815.906000", "145815.906000", "145815.906000", "145815.906000", "145815.906000", "145815.906000", "145815.921000", "145815.921000", "145815.921000", "145815.921000", "145815.921000", "145815.921000", "145815.921000", "145815.937000", "145815.937000", "145815.937000", "145815.937000", "145815.937000", "145815.937000", "145815.937000", "145815.953000", "145815.953000", "145835.890000", "145835.890000", "145835.890000", "145835.890000", "145835.890000", "145835.906000", "145835.906000", "145835.906000", "145835.906000", "145835.906000", "145835.906000", "145835.906000", "145835.921000", "145835.937000", "145835.937000", "145835.937000", "145835.953000", "145835.953000", "145835.953000", "145835.953000", "145835.953000", "145835.953000", "145835.953000", "145835.953000", "145835.968000", "145855.890000", "145855.890000", "145855.890000", "145855.890000", "145855.890000", "145855.906000", "145855.906000", "145855.906000", "145855.906000", "145855.906000", "145855.906000", "145855.906000", "145855.921000", "145855.921000", "145855.921000", "145855.921000", "145855.921000", "145855.921000", "145855.921000", "145855.937000", "145855.937000", "145855.937000", "145855.937000", "145855.937000", "145855.937000", "145855.937000", "145915.890000", "145915.890000", "145915.890000", "145915.890000", "145915.906000", "145915.906000", "145915.906000", "145915.906000", "145915.906000", "145915.906000", "145915.906000", "145915.906000", "145915.921000", "145915.921000", "145915.921000", "145915.921000", "145915.921000", "145915.921000", "145915.937000", "145915.937000", "145915.937000", "145915.953000", "145915.953000", "145915.953000", "145915.953000", "145935.890000", "145935.890000", "145935.890000", "145935.890000", "145935.906000", "145935.906000", "145935.906000", "145935.906000", "145935.906000", "145935.906000", "145935.906000", "145935.906000", "145935.921000", "145935.921000", "145935.921000", "145935.921000", "145935.921000", "145935.921000", "145935.921000", "145935.937000", "145935.937000", "145935.937000", "145935.937000", "145935.937000", "145935.937000", "145935.953000", "145955.890000", "145955.890000", "145955.890000", "145955.890000", "145955.906000", "145955.906000", "145955.906000", "145955.906000", "145955.906000", "145955.906000", "145955.906000", "145955.906000", "145955.921000", "145955.921000", "145955.921000", "145955.921000", "145955.921000", "145955.921000", "145955.921000", "145955.937000", "145955.937000", "145955.937000", "145955.937000", "145955.937000", "145955.937000", "150015.890000", "150015.890000", "150015.890000", "150015.890000", "150015.890000", "150015.906000", "150015.906000", "150015.906000", "150015.906000", "150015.906000", "150015.906000", "150015.906000", "150015.921000", "150015.921000", "150015.921000", "150015.921000", "150015.921000", "150015.937000", "150015.937000", "150015.937000", "150015.937000", "150015.937000", "150015.937000", "150015.937000", "150015.937000", "150015.953000", "150035.890000", "150035.890000", "150035.890000", "150035.890000", "150035.890000", "150035.906000", "150035.906000", "150035.906000", "150035.906000", "150035.906000", "150035.906000", "150035.906000", "150035.921000", "150035.921000", "150035.921000", "150035.921000", "150035.921000", "150035.921000", "150035.921000", "150035.937000", "150035.937000", "150035.937000", "150035.937000", "150035.937000", "150035.937000", "150055.890000", "150055.890000", "150055.890000", "150055.890000", "150055.890000", "150055.906000", "150055.906000", "150055.906000", "150055.906000", "150055.906000", "150055.906000", "150055.906000", "150055.921000", "150055.921000", "150055.921000", "150055.921000", "150055.921000", "150055.921000", "150055.937000", "150055.937000", "150055.937000", "150055.937000", "150055.937000", "150055.937000", "150055.937000", "150055.953000", "150115.890000", "150115.890000", "150115.890000", "150115.890000", "150115.906000", "150115.906000", "150115.906000", "150115.906000", "150115.906000", "150115.906000", "150115.906000", "150115.906000", "150115.921000", "150115.921000", "150115.921000", "150115.921000", "150115.921000", "150115.937000", "150115.937000", "150115.937000", "150115.937000", "150115.953000", "150115.953000", "150115.953000", "150115.953000", "150121.937000", "150121.937000", "150121.953000", "150121.953000", "150121.953000", "150121.953000", "150121.953000", "150121.953000"],
