{
  "AcquisitionMatrixPE": 104,
  "AcquisitionNumber": 1,
  "AcquisitionTime": "15:09:40.722500",
  "BandwidthPerPixelPhaseEncode": 13.935,
  "BaseResolution": 104,
  "CoilString": "C:HEA;HEP",
  "ConversionSoftware": "dcm2niix",
  "ConversionSoftwareVersion": "v1.0.20210317",
  "DerivedVendorReportedEchoSpacing": 0.000690017,
  "DeviceSerialNumber": "35450",
  "DwellTime": 2.5e-06,
  "EchoTime": 0.0348,
  "EffectiveEchoSpacing": 0.000690017,
  "FlipAngle": 55,
  "ImageComments": "Unaliased MB8/PE3 (remote)",
  "ImageOrientationPatientDICOM": [0.999783, 0.002393, 0.0206772, -4.1966e-08, 0.99337, -0.114962],
  "ImageType": [
    "ORIGINAL",
    "PRIMARY",
    "M",
    "MB",
    "ND",
    "MOSAIC"
],
  "ImagingFrequency": 123.235,
  "InPlanePhaseEncodingDirectionDICOM": "COL",
  "InstitutionAddress": "Univeristy Ave. 197,Newark,North East,US,07102-1814",
  "InstitutionName": "RUBIC",
  "InstitutionalDepartmentName": "Department",
  "MRAcquisitionType": "2D",
  "MagneticFieldStrength": 3,
  "Manufacturer": "Siemens",
  "ManufacturersModelName": "TrioTim",
  "Modality": "MR",
  "MultibandAccelerationFactor": 8,
  "PartialFourier": 0.875,
  "PatientPosition": "HFS",
  "PercentPhaseFOV": 100,
  "PercentSampling": 100,
  "PhaseEncodingDirection": "j-",
  "PhaseEncodingSteps": 91,
  "PhaseResolution": 1,
  "PixelBandwidth": 1923,
  "ProcedureStepDescription": "Cole^Michael",
  "ProtocolName": "cmrr_mbep2d_bold_2mm_MB8_Task_8x",
  "PulseSequenceDetails": "%CustomerSeq%\\cmrr_mbep2d_bold",
  "ReceiveCoilName": "32Ch_Head",
  "ReconMatrixPE": 104,
  "RepetitionTime": 0.785,
  "SAR": 0.146493,
  "ScanOptions": "PFP\\FS",
  "ScanningSequence": "EP",
  "SequenceName": "epfid2d1_104",
  "SequenceVariant": "SK\\SS",
  "SeriesDescription": "cmrr_mbep2d_bold_2mm_MB8_Task_8x",
  "SeriesNumber": 17,
  "ShimSetting": [2127, -474, -7292, 383, -170, 197, 273, 118],
  "SliceThickness": 2,
  "SliceTiming": [0, 0.4375, 0.0875, 0.525, 0.175, 0.6125, 0.2625, 0.7, 0.35, 0, 0.4375, 0.0875, 0.525, 0.175, 0.6125, 0.2625, 0.7, 0.35, 0, 0.4375, 0.0875, 0.525, 0.175, 0.6125, 0.2625, 0.7, 0.35, 0, 0.4375, 0.0875, 0.525, 0.175, 0.6125, 0.2625, 0.7, 0.35, 0, 0.4375, 0.0875, 0.525, 0.175, 0.6125, 0.2625, 0.7, 0.35, 0, 0.4375, 0.0875, 0.525, 0.175, 0.6125, 0.2625, 0.7, 0.35, 0, 0.4375, 0.0875, 0.525, 0.175, 0.6125, 0.2625, 0.7, 0.35, 0, 0.4375, 0.0875, 0.525, 0.175, 0.6125, 0.2625, 0.7, 0.35],
  "SoftwareVersions": "syngo MR B19",
  "SpacingBetweenSlices": 2,
  "StationName": "MRC35450",
  "TaskName": "cpro",
  "TotalReadoutTime": 0.0710717,
  "TxRefAmp": 375.095,
  "dcmmeta_affine": [
    [-1.999566674232483, -8.393190142896856e-08, 0.04163039103150368, 103.91261291503906],
    [-0.0047859917394816875, 1.9867397546768188, -0.22987395524978638, -79.6429443359375],
    [0.04135436937212944, 0.2299237698316574, 1.986309289932251, -111.92595672607422],
    [0.0, 0.0, 0.0, 1.0]
],
  "dcmmeta_reorient_transform": [
    [0.0, -1.0, 0.0, 103.0],
    [1.0, 0.0, 0.0, 0.0],
    [0.0, 0.0, 1.0, 0.0],
    [0.0, 0.0, 0.0, 1.0]
],
  "dcmmeta_shape": [104, 104, 72, 581],
  "dcmmeta_slice_dim": 2,
  "dcmmeta_version": 0.6,
  "global": {
    "const": {
      "AcquisitionMatrix": [104, 0, 0, 104],
      "AngioFlag": "N",
      "BitsAllocated": 16,
      "BitsStored": 12,
      "Columns": 936,
      "EchoNumbers": 1,
      "EchoTime": 34.8,
      "EchoTrainLength": 1,
      "FlipAngle": 55.0,
      "HighBit": 11,
      "ImageOrientationPatient": [0.99978334032622, 0.00239299597315, 0.02067718492516, -4.1965952e-08, 0.99336990304176, -0.1149618881665],
      "ImagePositionPatient": [-935.7323059229, -953.46598876116, -9.7989333544987],
      "ImageType": [
        "ORIGINAL",
        "PRIMARY",
        "M",
        "MB",
        "ND",
        "MOSAIC"
],
      "ImagedNucleus": "1H",
      "ImagingFrequency": 123.234585,
      "InPlanePhaseEncodingDirection": "COL",
      "MRAcquisitionType": "2D",
      "MagneticFieldStrength": 3.0,
      "Manufacturer": "SIEMENS",
      "ManufacturerModelName": "TrioTim",
      "Modality": "MR",
      "NumberOfAverages": 1.0,
      "NumberOfPhaseEncodingSteps": 91,
      "PercentPhaseFieldOfView": 100.0,
      "PercentSampling": 100.0,
      "PerformedProcedureStepStartTime": "135809.109000",
      "PhotometricInterpretation": "MONOCHROME2",
      "PixelBandwidth": 1923.0,
      "PixelRepresentation": 0,
      "PixelSpacing": [2.0, 2.0],
      "ProtocolName": "cmrr_mbep2d_bold_2mm_MB8_Task_8x",
      "RepetitionTime": 785.0,
      "Rows": 936,
      "SAR": 0.14649333055632,
      "SamplesPerPixel": 1,
      "ScanOptions": [
        "PFP",
        "FS"
],
      "ScanningSequence": "EP",
      "SequenceName": "epfid2d1_104",
      "SequenceVariant": [
        "SK",
        "SS"
],
      "SeriesDescription": "cmrr_mbep2d_bold_2mm_MB8_Task_8x",
      "SeriesNumber": 17,
      "SeriesTime": "151009.875000",
      "SliceLocation": -99.842905670565,
      "SliceThickness": 2.0,
      "SmallestImagePixelValue": 0,
      "SoftwareVersions": "syngo MR B19",
      "SpacingBetweenSlices": 1.9999999581601,
      "SpecificCharacterSet": "ISO_IR 100",
      "StudyID": "1",
      "StudyTime": "135809.062000",
      "TransmitCoilName": "Body",
      "VariableFlipAngleFlag": "N",
      "WindowCenterWidthExplanation": "Algo1",
      "dBdt": 0.0},
    "slices": {}
  },
  "time": {
    "samples": {
      "AcquisitionNumber": [1, 2, 3, 4, 5, 6, 7, 8, 9, 10, 11, 12, 13, 14, 15, 16, 17, 18, 19, 20, 21, 22, 23, 24, 25, 26, 27, 28, 29, 30, 31, 32, 33, 34, 35, 36, 37, 38, 39, 40, 41, 42, 43, 44, 45, 46, 47, 48, 49, 50, 51, 52, 53, 54, 55, 56, 57, 58, 59, 60, 61, 62, 63, 64, 65, 66, 67, 68, 69, 70, 71, 72, 73, 74, 75, 76, 77, 78, 79, 80, 81, 82, 83, 84, 85, 86, 87, 88, 89, 90, 91, 92, 93, 94, 95, 96, 97, 98, 99, 100, 101, 102, 103, 104, 105, 106, 107, 108, 109, 110, 111, 112, 113, 114, 115, 116, 117, 118, 119, 120, 121, 122, 123, 124, 125, 126, 127, 128, 129, 130, 131, 132, 133, 134, 135, 136, 137, 138, 139, 140, 141, 142, 143, 144, 145, 146, 147, 148, 149, 150, 151, 152, 153, 154, 155, 156, 157, 158, 159, 160, 161, 162, 163, 164, 165, 166, 167, 168, 169, 170, 171, 172, 173, 174, 175, 176, 177, 178, 179, 180, 181, 182, 183, 184, 185, 186, 187, 188, 189, 190, 191, 192, 193, 194, 195, 196, 197, 198, 199, 200, 201, 202, 203, 204, 205, 206, 207, 208, 209, 210, 211, 212, 213, 214, 215, 216, 217, 218, 219, 220, 221, 222, 223, 224, 225, 226, 227, 228, 229, 230, 231, 232, 233, 234, 235, 236, 237, 238, 239, 240, 241, 242, 243, 244, 245, 246, 247, 248, 249, 250, 251, 252, 253, 254, 255, 256, 257, 258, 259, 260, 261, 262, 263, 264, 265, 266, 267, 268, 269, 270, 271, 272, 273, 274, 275, 276, 277, 278, 279, 280, 281, 282, 283, 284, 285, 286, 287, 288, 289, 290, 291, 292, 293, 294, 295, 296, 297, 298, 299, 300, 301, 302, 303, 304, 305, 306, 307, 308, 309, 310, 311, 312, 313, 314, 315, 316, 317, 318, 319, 320, 321, 322, 323, 324, 325, 326, 327, 328, 329, 330, 331, 332, 333, 334, 335, 336, 337, 338, 339, 340, 341, 342, 343, 344, 345, 346, 347, 348, 349, 350, 351, 352, 353, 354, 355, 356, 357, 358, 359, 360, 361, 362, 363, 364, 365, 366, 367, 368, 369, 370, 371, 372, 373, 374, 375, 376, 377, 378, 379, 380, 381, 382, 383, 384, 385, 386, 387, 388, 389, 390, 391, 392, 393, 394, 395, 396, 397, 398, 399, 400, 401, 402, 403, 404, 405, 406, 407, 408, 409, 410, 411, 412, 413, 414, 415, 416, 417, 418, 419, 420, 421, 422, 423, 424, 425, 426, 427, 428, 429, 430, 431, 432, 433, 434, 435, 436, 437, 438, 439, 440, 441, 442, 443, 444, 445, 446, 447, 448, 449, 450, 451, 452, 453, 454, 455, 456, 457, 458, 459, 460, 461, 462, 463, 464, 465, 466, 467, 468, 469, 470, 471, 472, 473, 474, 475, 476, 477, 478, 479, 480, 481, 482, 483, 484, 485, 486, 487, 488, 489, 490, 491, 492, 493, 494, 495, 496, 497, 498, 499, 500, 501, 502, 503, 504, 505, 506, 507, 508, 509, 510, 511, 512, 513, 514, 515, 516, 517, 518, 519, 520, 521, 522, 523, 524, 525, 526, 527, 528, 529, 530, 531, 532, 533, 534, 535, 536, 537, 538, 539, 540, 541, 542, 543, 544, 545, 546, 547, 548, 549, 550, 551, 552, 553, 554, 555, 556, 557, 558, 559, 560, 561, 562, 563, 564, 565, 566, 567, 568, 569, 570, 571, 572, 573, 574, 575, 576, 577, 578, 579, 580, 581],
      "AcquisitionTime": ["150940.722500", "150941.510000", "150942.300000", "150943.087500", "150943.875000", "150944.662500", "150945.452500", "150946.240000", "150947.027500", "150947.817500", "150948.605000", "150949.392500", "150950.180000", "150950.970000", "150951.757500", "150952.545000", "150953.332500", "150954.122500", "150954.910000", "150955.697500", "150956.485000", "150957.275000", "150958.062500", "150958.850000", "150959.637500", "151000.427500", "151001.215000", "151002.002500", "151002.790000", "151003.580000", "151004.367500", "151005.155000", "151005.945000", "151006.732500", "151007.520000", "151008.307500", "151009.097500", "151009.885000", "151010.672500", "151011.460000", "151012.250000", "151013.037500", "151013.825000", "151014.612500", "151015.402500", "151016.190000", "151016.977500", "151017.765000", "151018.555000", "151019.342500", "151020.130000", "151020.917500", "151021.707500", "151022.495000", "151023.282500", "151024.072500", "151024.860000", "151025.647500", "151026.435000", "151027.225000", "151028.012500", "151028.800000", "151029.587500", "151030.377500", "151031.165000", "151031.952500", "151032.740000", "151033.530000", "151034.317500", "151035.105000", "151035.892500", "151036.682500", "151037.470000", "151038.257500", "151039.045000", "151039.835000", "151040.622500", "151041.410000", "151042.200000", "151042.987500", "151043.775000", "151044.562500", "151045.352500", "151046.140000", "151046.927500", "151047.715000", "151048.505000", "151049.292500", "151050.080000", "151050.867500", "151051.657500", "151052.445000", "151053.232500", "151054.020000", "151054.810000", "151055.597500", "151056.385000", "151057.172500", "151057.962500", "151058.750000", "151059.537500", "151100.327500", "151101.115000", "151101.902500", "151102.690000", "151103.480000", "151104.267500", "151105.055000", "151105.842500", "151106.632500", "151107.420000", "151108.207500", "151108.995000", "151109.785000", "151110.572500", "151111.360000", "151112.147500", "151112.937500", "151113.725000", "151114.512500", "151115.300000", "151116.090000", "151116.877500", "151117.665000", "151118.455000", "151119.242500", "151120.030000", "151120.817500", "151121.607500", "151122.395000", "151123.182500", "151123.970000", "151124.760000", "151125.547500", "151126.335000", "151127.122500", "151127.912500", "151128.700000", "151129.487500", "151130.275000", "151131.065000", "151131.852500", "151132.640000", "151133.427500", "151134.217500", "151135.005000", "151135.792500", "151136.582500", "151137.370000", "151138.157500", "151138.945000", "151139.735000", "151140.522500", "151141.310000", "151142.097500", "151142.887500", "151143.675000", "151144.462500", "151145.250000", "151146.040000", "151146.827500", "151147.615000", "151148.402500", "151149.192500", "151149.980000", "151150.767500", "151151.555000", "151152.345000", "151153.132500", "151153.920000", "151154.710000", "151155.497500", "151156.285000", "151157.072500", "151157.862500", "151158.650000", "151159.437500", "151200.225000", "151201.015000", "151201.802500", "151202.590000", "151203.377500", "151204.167500", "151204.955000", "151205.742500", "151206.530000", "151207.320000", "151208.107500", "151208.895000", "151209.685000", "151210.472500", "151211.260000", "151212.047500", "151212.837500", "151213.625000", "151214.412500", "151215.200000", "151215.990000", "151216.777500", "151217.565000", "151218.352500", "151219.142500", "151219.930000", "151220.717500", "151221.505000", "151222.295000", "151223.082500", "151223.870000", "151224.657500", "151225.447500", "151226.235000", "151227.022500", "151227.812500", "151228.600000", "151229.387500", "151230.175000", "151230.965000", "151231.752500", "151232.540000", "151233.327500", "151234.117500", "151234.905000", "151235.692500", "151236.480000", "151237.270000", "151238.057500", "151238.845000", "151239.632500", "151240.422500", "151241.210000", "151241.997500", "151242.785000", "151243.575000", "151244.362500", "151245.150000", "151245.940000", "151246.727500", "151247.515000", "151248.302500", "151249.092500", "151249.880000", "151250.667500", "151251.455000", "151252.245000", "151253.032500", "151253.820000", "151254.607500", "151255.397500", "151256.185000", "151256.972500", "151257.760000", "151258.550000", "151259.337500", "151300.125000", "151300.912500", "151301.702500", "151302.490000", "151303.277500", "151304.067500", "151304.855000", "151305.642500", "151306.430000", "151307.220000", "151308.007500", "151308.795000", "151309.582500", "151310.372500", "151311.160000", "151311.947500", "151312.735000", "151313.525000", "151314.312500", "151315.100000", "151315.887500", "151316.677500", "151317.465000", "151318.252500", "151319.040000", "151319.830000", "151320.617500", "151321.405000", "151322.195000", "151322.982500", "151323.770000", "151324.557500", "151325.347500", "151326.135000", "151326.922500", "151327.710000", "151328.500000", "151329.287500", "151330.075000", "151330.862500", "151331.652500", "151332.440000", "151333.227500", "151334.015000", "151334.805000", "151335.592500", "151336.380000", "151337.167500", "151337.957500", "151338.745000", "151339.532500", "151340.322500", "151341.110000", "151341.897500", "151342.685000", "151343.475000", "151344.262500", "151345.050000", "151345.837500", "151346.627500", "151347.415000", "151348.202500", "151348.990000", "151349.780000", "151350.567500", "151351.355000", "151352.142500", "151352.932500", "151353.720000", "151354.507500", "151355.295000", "151356.085000", "151356.872500", "151357.660000", "151358.450000", "151359.237500", "151400.025000", "151400.812500", "151401.602500", "151402.390000", "151403.177500", "151403.965000", "151404.755000", "151405.542500", "151406.330000", "151407.117500", "151407.907500", "151408.695000", "151409.482500", "151410.270000", "151411.060000", "151411.847500", "151412.635000", "151413.422500", "151414.212500", "151415.000000", "151415.787500", "151416.577500", "151417.365000", "151418.152500", "151418.940000", "151419.730000", "151420.517500", "151421.305000", "151422.092500", "151422.882500", "151423.670000", "151424.457500", "151425.245000", "151426.035000", "151426.822500", "151427.610000", "151428.397500", "151429.187500", "151429.975000", "151430.762500", "151431.550000", "151432.340000", "151433.127500", "151433.915000", "151434.705000", "151435.492500", "151436.280000", "151437.067500", "151437.857500", "151438.645000", "151439.432500", "151440.220000", "151441.010000", "151441.797500", "151442.585000", "151443.372500", "151444.162500", "151444.950000", "151445.737500", "151446.525000", "151447.315000", "151448.102500", "151448.890000", "151449.677500", "151450.467500", "151451.255000", "151452.042500", "151452.832500", "151453.620000", "151454.407500", "151455.195000", "151455.985000", "151456.772500", "151457.560000", "151458.347500", "151459.137500", "151459.925000", "151500.712500", "151501.500000", "151502.290000", "151503.077500", "151503.865000", "151504.652500", "151505.442500", "151506.230000", "151507.017500", "151507.805000", "151508.595000", "151509.382500", "151510.170000", "151510.960000", "151511.747500", "151512.535000", "151513.322500", "151514.112500", "151514.900000", "151515.687500", "151516.475000", "151517.265000", "151518.052500", "151518.840000", "151519.627500", "151520.417500", "151521.205000", "151521.992500", "151522.780000", "151523.570000", "151524.357500", "151525.145000", "151525.935000", "151526.722500", "151527.510000", "151528.297500", "151529.087500", "151529.875000", "151530.662500", "151531.450000", "151532.240000", "151533.027500", "151533.815000", "151534.602500", "151535.392500", "151536.180000", "151536.967500", "151537.755000", "151538.545000", "151539.332500", "151540.120000", "151540.907500", "151541.697500", "151542.485000", "151543.272500", "151544.062500", "151544.850000", "151545.637500", "151546.425000", "151547.215000", "151548.002500", "151548.790000", "151549.577500", "151550.367500", "151551.155000", "151551.942500", "151552.730000", "151553.520000", "151554.307500", "151555.095000", "151555.882500", "151556.672500", "151557.460000", "151558.247500", "151559.035000", "151559.825000", "151600.612500", "151601.400000", "151602.190000", "151602.977500", "151603.765000", "151604.552500", "151605.342500", "151606.130000", "151606.917500", "151607.705000", "151608.495000", "151609.282500", "151610.070000", "151610.857500", "151611.647500", "151612.435000", "151613.222500", "151614.010000", "151614.800000", "151615.587500", "151616.375000", "151617.162500", "151617.952500", "151618.740000", "151619.527500", "151620.317500", "151621.105000", "151621.892500", "151622.680000", "151623.470000", "151624.257500", "151625.045000", "151625.832500", "151626.622500", "151627.410000", "151628.197500", "151628.985000", "151629.775000", "151630.562500", "151631.350000", "151632.137500", "151632.927500", "151633.715000", "151634.502500", "151635.290000", "151636.080000", "151636.867500", "151637.655000", "151638.445000", "151639.232500", "151640.020000", "151640.807500", "151641.597500", "151642.385000", "151643.172500", "151643.960000", "151644.750000", "151645.537500", "151646.325000", "151647.112500", "151647.902500", "151648.690000", "151649.477500", "151650.265000", "151651.055000", "151651.842500", "151652.630000", "151653.417500", "151654.207500", "151654.995000", "151655.782500", "151656.572500", "151657.360000", "151658.147500", "151658.935000", "151659.725000", "151700.512500", "151701.300000", "151702.087500", "151702.877500", "151703.665000", "151704.452500", "151705.240000", "151706.030000", "151706.817500", "151707.605000", "151708.392500", "151709.182500", "151709.970000", "151710.757500", "151711.545000", "151712.335000", "151713.122500", "151713.910000", "151714.700000", "151715.487500", "151716.275000", "151717.062500", "151717.852500"],
      "ContentTime": ["151009.875000", "151009.875000", "151009.875000", "151009.890000", "151009.890000", "151009.890000", "151009.890000", "151009.890000", "151009.906000", "151009.906000", "151009.906000", "151009.906000", "151009.906000", "151009.906000", "151009.906000", "151009.906000", "151009.921000", "151009.921000", "151009.921000", "151009.921000", "151009.937000", "151009.937000", "151009.937000", "151009.937000", "151009.937000", "151009.937000", "151009.937000", "151009.953000", "151009.953000", "151009.953000", "151009.953000", "151009.953000", "151009.953000", "151009.953000", "151009.953000", "151029.859000", "151029.859000", "151029.859000", "151029.859000", "151029.859000", "151029.875000", "151029.875000", "151029.875000", "151029.875000", "151029.875000", "151029.875000", "151029.890000", "151029.890000", "151029.890000", "151029.890000", "151029.890000", "151029.906000", "151029.906000", "151029.906000", "151029.906000", "151029.906000", "151029.906000", "151029.906000", "151029.921000", "151029.921000", "151049.859000", "151049.859000", "151049.859000", "151049.859000", "151049.859000", "151049.875000", "151049.875000", "151049.875000", "151049.875000", "151049.875000", "151049.875000", "151049.875000", "151049.890000", "151049.890000", "151049.890000", "151049.890000", "151049.890000", "151049.890000", "151049.890000", "151049.906000", "151049.906000", "151049.906000", "151049.906000", "151049.906000", "151049.906000", "151049.921000", "151109.859000", "151109.859000", "151109.859000", "151109.859000", "151109.875000", "151109.875000", "151109.875000", "151109.875000", "151109.875000", "151109.875000", "151109.875000", "151109.875000", "151109.890000", "151109.890000", "151109.890000", "151109.890000", "151109.890000", "151109.890000", "151109.906000", "151109.906000", "151109.906000", "151109.906000", "151109.906000", "151109.906000", "151109.921000", "151129.859000", "151129.859000", "151129.859000", "151129.859000", "151129.875000", "151129.875000", "151129.875000", "151129.875000", "151129.875000", "151129.875000", "151129.890000", "151129.890000", "151129.890000", "151129.890000", "151129.890000", "151129.890000", "151129.890000", "151129.906000", "151129.906000", "151129.906000", "151129.906000", "151129.906000", "151129.906000", "151129.906000", "151129.906000", "151129.921000", "151149.859000", "151149.859000", "151149.859000", "151149.859000", "151149.875000", "151149.875000", "151149.875000", "151149.875000", "151149.875000", "151149.875000", "151149.875000", "151149.890000", "151149.890000", "151149.890000", "151149.906000", "151149.906000", "151149.906000", "151149.921000", "151149.921000", "151149.921000", "151149.921000", "151149.921000", "151149.921000", "151149.937000", "151149.937000", "151209.859000", "151209.859000", "151209.859000", "151209.859000", "151209.859000", "151209.875000", "151209.875000", "151209.875000", "151209.875000", "151209.875000", "151209.875000", "151209.875000", "151209.890000", "151209.890000", "151209.890000", "151209.890000", "151209.890000", "151209.890000", "151209.890000", "151209.906000", "151209.906000", "151209.906000", "151209.906000", "151209.906000", "151209.906000", "151209.906000", "151229.859000", "151229.859000", "151229.859000", "151229.859000", "151229.875000", "151229.875000", "151229.875000", "151229.875000", "151229.875000", "151229.875000", "151229.875000", "151229.875000", "151229.890000", "151229.890000", "151229.890000", "151229.890000", "151229.890000", "151229.890000", "151229.906000", "151229.906000", "151229.906000", "151229.906000", "151229.906000", "151229.921000", "151229.921000", "151249.859000", "151249.859000", "151249.859000", "151249.875000", "151249.875000", "151249.875000", "151249.875000", "151249.875000", "151249.890000", "151249.890000", "151249.890000", "151249.890000", "151249.890000", "151249.890000", "151249.906000", "151249.906000", "151249.906000", "151249.906000", "151249.906000", "151249.906000", "151249.921000", "151249.921000", "151249.921000", "151249.921000", "151249.921000", "151249.921000", "151309.859000", "151309.859000", "151309.859000", "151309.859000", "151309.875000", "151309.875000", "151309.875000", "151309.875000", "151309.875000", "151309.890000", "151309.890000", "151309.890000", "151309.890000", "151309.890000", "151309.890000", "151309.890000", "151309.906000", "151309.906000", "151309.906000", "151309.906000", "151309.906000", "151309.921000", "151309.921000", "151309.921000", "151309.921000", "151329.859000", "151329.859000", "151329.859000", "151329.859000", "151329.875000", "151329.875000", "151329.875000", "151329.875000", "151329.875000", "151329.875000", "151329.875000", "151329.875000", "151329.890000", "151329.890000", "151329.890000", "151329.890000", "151329.890000", "151329.890000", "151329.890000", "151329.906000", "151329.906000", "151329.906000", "151329.906000", "151329.906000", "151329.906000", "151329.921000", "151349.859000", "151349.859000", "151349.859000", "151349.859000", "151349.875000", "151349.875000", "151349.875000", "151349.875000", "151349.875000", "151349.875000", "151349.875000", "151349.875000", "151349.890000", "151349.890000", "151349.890000", "151349.890000", "151349.890000", "151349.890000", "151349.890000", "151349.906000", "151349.906000", "151349.906000", "151349.906000", "151349.906000", "151349.906000", "151409.859000", "151409.859000", "151409.859000", "151409.859000", "151409.875000", "151409.875000", "151409.875000", "151409.875000", "151409.875000", "151409.875000", "151409.875000", "151409.890000", "151409.890000", "151409.890000", "151409.890000", "151409.890000", "151409.890000", "151409.890000", "151409.890000", "151409.906000", "151409.906000", "151409.906000", "151409.906000", "151409.906000", "151409.906000", "151409.906000", "151429.859000", "151429.859000", "151429.859000", "151429.859000", "151429.875000", "151429.875000", "151429.875000", "151429.875000", "151429.875000", "151429.875000", "151429.875000", "151429.890000", "151429.890000", "151429.890000", "151429.890000", "151429.890000", "151429.890000", "151429.890000", "151429.890000", "151429.906000", "151429.906000", "151429.906000", "151429.906000", "151429.906000", "151429.906000", "151449.859000", "151449.859000", "151449.859000", "151449.859000", "151449.859000", "151449.875000", "151449.875000", "151449.875000", "151449.875000", "151449.875000", "151449.875000", "151449.875000", "151449.890000", "151449.890000", "151449.890000", "151449.890000", "151449.890000", "151449.890000", "151449.890000", "151449.906000", "151449.906000", "151449.906000", "151449.906000", "151449.906000", "151449.906000", "151449.906000", "151509.859000", "151509.859000", "151509.859000", "151509.859000", "151509.875000", "151509.875000", "151509.875000", "151509.875000", "151509.890000", "151509.890000", "151509.890000", "151509.890000", "151509.890000", "151509.890000", "151509.890000", "151509.890000", "151509.906000", "151509.906000", "151509.906000", "151509.906000", "151509.906000", "151509.906000", "151509.906000", "151509.921000", "151509.921000", "151529.859000", "151529.859000", "151529.859000", "151529.859000", "151529.875000", "151529.875000", "151529.875000", "151529.875000", "151529.875000", "151529.875000", "151529.875000", "151529.875000", "151529.890000", "151529.890000", "151529.890000", "151529.890000", "151529.890000", "151529.890000", "151529.890000", "151529.906000", "151529.906000", "151529.906000", "151529.906000", "151529.906000", "151529.906000", "151529.906000", "151549.859000", "151549.859000", "151549.859000", "151549.859000", "151549.875000", "151549.875000", "151549.875000", "151549.875000", "151549.875000", "151549.875000", "151549.875000", "151549.875000", "151549.890000", "151549.890000", "151549.890000", "151549.890000", "151549.890000", "151549.890000", "151549.906000", "151549.906000", "151549.906000", "151549.906000", "151549.906000", "151549.906000", "151549.906000", "151609.859000", "151609.859000", "151609.859000", "151609.859000", "151609.859000", "151609.875000", "151609.875000", "151609.875000", "151609.875000", "151609.875000", "151609.875000", "151609.875000", "151609.890000", "151609.890000", "151609.890000", "151609.890000", "151609.890000", "151609.890000", "151609.890000", "151609.906000", "151609.906000", "151609.906000", "151609.906000", "151609.906000", "151609.906000", "151609.906000", "151629.859000", "151629.859000", "151629.859000", "151629.859000", "151629.875000", "151629.875000", "151629.875000", "151629.875000", "151629.875000", "151629.875000", "151629.875000", "151629.875000", "151629.890000", "151629.890000", "151629.890000", "151629.890000", "151629.890000", "151629.890000", "151629.890000", "151629.906000", "151629.906000", "151629.906000", "151629.906000", "151629.906000", "151629.906000", "151649.859000", "151649.859000", "151649.859000", "151649.859000", "151649.875000", "151649.875000", "151649.875000", "151649.875000", "151649.875000", "151649.890000", "151649.890000", "151649.890000", "151649.890000", "151649.890000", "151649.890000", "151649.890000", "151649.890000", "151649.906000", "151649.906000", "151649.906000", "151649.906000", "151649.906000", "151649.906000", "151649.906000", "151649.921000", "151649.921000", "151709.859000", "151709.859000", "151709.859000", "151709.859000", "151709.875000", "151709.875000", "151709.875000", "151709.875000", "151709.875000", "151709.875000", "151709.875000", "151709.875000", "151709.890000", "151709.890000", "151709.890000", "151709.890000", "151709.890000", "151709.890000", "151709.906000", "151709.906000", "151709.906000", "151709.906000", "151709.906000", "151709.921000", "151709.921000", "151718.140000", "151718.140000", "151718.140000", "151718.140000", "151718.140000", "151718.140000", "151718.140000", "151718.140000", "151718.156000", "151718.156000", "151718.156000"],
