{
  "AcquisitionMatrixPE": 104,
  "AcquisitionNumber": 1,
  "AcquisitionTime": "15:45:44.707500",
  "BandwidthPerPixelPhaseEncode": 13.935,
  "BaseResolution": 104,
  "CoilString": "C:HEA;HEP",
  "ConversionSoftware": "dcm2niix",
  "ConversionSoftwareVersion": "v1.0.20210317",
  "DerivedVendorReportedEchoSpacing": 0.000690017,
  "DeviceSerialNumber": "35450",
  "DwellTime": 2.5e-06,
  "EchoTime": 0.0348,
  "EffectiveEchoSpacing": 0.000690017,
  "FlipAngle": 55,
  "ImageComments": "Unaliased MB8/PE3 (remote)",
  "ImageOrientationPatientDICOM": [0.999129, 0.00443524, -0.0414816, 5.60459e-08, 0.994332, 0.106316],
  "ImageType": [
    "ORIGINAL",
    "PRIMARY",
    "M",
    "MB",
    "ND",
    "MOSAIC"
],
  "ImagingFrequency": 123.235,
  "InPlanePhaseEncodingDirectionDICOM": "COL",
  "InstitutionAddress": "Univeristy Ave. 197,Newark,North East,US,07102-1814",
  "InstitutionName": "RUBIC",
  "InstitutionalDepartmentName": "Department",
  "MRAcquisitionType": "2D",
  "MagneticFieldStrength": 3,
  "Manufacturer": "Siemens",
  "ManufacturersModelName": "TrioTim",
  "Modality": "MR",
  "MultibandAccelerationFactor": 8,
  "PartialFourier": 0.875,
  "PatientPosition": "HFS",
  "PercentPhaseFOV": 100,
  "PercentSampling": 100,
  "PhaseEncodingDirection": "j-",
  "PhaseEncodingSteps": 91,
  "PhaseResolution": 1,
  "PixelBandwidth": 1923,
  "ProcedureStepDescription": "Cole^Michael",
  "ProtocolName": "cmrr_mbep2d_bold_2mm_MB8_Task_8x",
  "PulseSequenceDetails": "%CustomerSeq%\\cmrr_mbep2d_bold",
  "ReceiveCoilName": "32Ch_Head",
  "ReconMatrixPE": 104,
  "RepetitionTime": 0.785,
  "SAR": 0.104975,
  "ScanOptions": "PFP\\FS",
  "ScanningSequence": "EP",
  "SequenceName": "epfid2d1_104",
  "SequenceVariant": "SK\\SS",
  "SeriesDescription": "cmrr_mbep2d_bold_2mm_MB8_Task_8x",
  "SeriesNumber": 21,
  "ShimSetting": [2099, -444, -7363, 987, -49, -290, -653, -20],
  "SliceThickness": 2,
  "SliceTiming": [0, 0.4375, 0.0875, 0.525, 0.175, 0.6125, 0.2625, 0.7, 0.35, 0, 0.4375, 0.0875, 0.525, 0.175, 0.6125, 0.2625, 0.7, 0.35, 0, 0.4375, 0.0875, 0.525, 0.175, 0.6125, 0.2625, 0.7, 0.35, 0, 0.4375, 0.0875, 0.525, 0.175, 0.6125, 0.2625, 0.7, 0.35, 0, 0.4375, 0.0875, 0.525, 0.175, 0.6125, 0.2625, 0.7, 0.35, 0, 0.4375, 0.0875, 0.525, 0.175, 0.6125, 0.2625, 0.7, 0.35, 0, 0.4375, 0.0875, 0.525, 0.175, 0.6125, 0.2625, 0.7, 0.35, 0, 0.4375, 0.0875, 0.525, 0.175, 0.6125, 0.2625, 0.7, 0.35],
  "SoftwareVersions": "syngo MR B19",
  "SpacingBetweenSlices": 2,
  "StationName": "MRC35450",
  "TaskName": "cpro",
  "TotalReadoutTime": 0.0710717,
  "TxRefAmp": 316.385,
  "dcmmeta_affine": [
    [-1.9982588291168213, 1.1209179717752704e-07, -0.08343607187271118, 106.0776596069336],
    [-0.008870475925505161, 1.9886647462844849, 0.21244683861732483, -88.75502014160156],
    [-0.08296319842338562, -0.212631955742836, 1.9869334697723389, -66.69784545898438],
    [0.0, 0.0, 0.0, 1.0]
],
  "dcmmeta_reorient_transform": [
    [0.0, -1.0, 0.0, 103.0],
    [1.0, 0.0, 0.0, 0.0],
    [0.0, 0.0, 1.0, 0.0],
    [0.0, 0.0, 0.0, 1.0]
],
  "dcmmeta_shape": [104, 104, 72, 581],
  "dcmmeta_slice_dim": 2,
  "dcmmeta_version": 0.6,
  "global": {
    "const": {
      "AcquisitionMatrix": [104, 0, 0, 104],
      "AngioFlag": "N",
      "BitsAllocated": 16,
      "BitsStored": 12,
      "Columns": 936,
      "EchoNumbers": 1,
      "EchoTime": 34.8,
      "EchoTrainLength": 1,
      "FlipAngle": 55.0,
      "HighBit": 11,
      "ImageOrientationPatient": [0.99912942383643, 0.00443523791953, -0.0414815994012, 5.6045897e-08, 0.99433239571134, 0.10631597640499],
      "ImagePositionPatient": [-937.35339771583, -947.05212298316, -142.54113990044],
      "ImageType": [
        "ORIGINAL",
        "PRIMARY",
        "M",
        "MB",
        "ND",
        "MOSAIC"
],
      "ImagedNucleus": "1H",
      "ImagingFrequency": 123.234551,
      "InPlanePhaseEncodingDirection": "COL",
      "MRAcquisitionType": "2D",
      "MagneticFieldStrength": 3.0,
      "Manufacturer": "SIEMENS",
      "ManufacturerModelName": "TrioTim",
      "Modality": "MR",
      "NumberOfAverages": 1.0,
      "NumberOfPhaseEncodingSteps": 91,
      "PercentPhaseFieldOfView": 100.0,
      "PercentSampling": 100.0,
      "PerformedProcedureStepStartTime": "142154.062000",
      "PhotometricInterpretation": "MONOCHROME2",
      "PixelBandwidth": 1923.0,
      "PixelRepresentation": 0,
      "PixelSpacing": [2.0, 2.0],
      "ProtocolName": "cmrr_mbep2d_bold_2mm_MB8_Task_8x",
      "RepetitionTime": 785.0,
      "Rows": 936,
      "SAR": 0.10497467825185,
      "SamplesPerPixel": 1,
      "ScanOptions": [
        "PFP",
        "FS"
],
      "ScanningSequence": "EP",
      "SequenceName": "epfid2d1_104",
      "SequenceVariant": [
        "SK",
        "SS"
],
      "SeriesDescription": "cmrr_mbep2d_bold_2mm_MB8_Task_8x",
      "SeriesNumber": 21,
      "SeriesTime": "154617.078000",
      "SliceLocation": -80.115307248667,
      "SliceThickness": 2.0,
      "SmallestImagePixelValue": 0,
      "SoftwareVersions": "syngo MR B19",
      "SpacingBetweenSlices": 1.9999999719936,
      "SpecificCharacterSet": "ISO_IR 100",
      "StudyID": "1",
      "StudyTime": "142154.031000",
      "TransmitCoilName": "Body",
      "VariableFlipAngleFlag": "N",
      "WindowCenterWidthExplanation": "Algo1",
      "dBdt": 0.0},
    "slices": {}
  },
  "time": {
    "samples": {
      "AcquisitionNumber": [1, 2, 3, 4, 5, 6, 7, 8, 9, 10, 11, 12, 13, 14, 15, 16, 17, 18, 19, 20, 21, 22, 23, 24, 25, 26, 27, 28, 29, 30, 31, 32, 33, 34, 35, 36, 37, 38, 39, 40, 41, 42, 43, 44, 45, 46, 47, 48, 49, 50, 51, 52, 53, 54, 55, 56, 57, 58, 59, 60, 61, 62, 63, 64, 65, 66, 67, 68, 69, 70, 71, 72, 73, 74, 75, 76, 77, 78, 79, 80, 81, 82, 83, 84, 85, 86, 87, 88, 89, 90, 91, 92, 93, 94, 95, 96, 97, 98, 99, 100, 101, 102, 103, 104, 105, 106, 107, 108, 109, 110, 111, 112, 113, 114, 115, 116, 117, 118, 119, 120, 121, 122, 123, 124, 125, 126, 127, 128, 129, 130, 131, 132, 133, 134, 135, 136, 137, 138, 139, 140, 141, 142, 143, 144, 145, 146, 147, 148, 149, 150, 151, 152, 153, 154, 155, 156, 157, 158, 159, 160, 161, 162, 163, 164, 165, 166, 167, 168, 169, 170, 171, 172, 173, 174, 175, 176, 177, 178, 179, 180, 181, 182, 183, 184, 185, 186, 187, 188, 189, 190, 191, 192, 193, 194, 195, 196, 197, 198, 199, 200, 201, 202, 203, 204, 205, 206, 207, 208, 209, 210, 211, 212, 213, 214, 215, 216, 217, 218, 219, 220, 221, 222, 223, 224, 225, 226, 227, 228, 229, 230, 231, 232, 233, 234, 235, 236, 237, 238, 239, 240, 241, 242, 243, 244, 245, 246, 247, 248, 249, 250, 251, 252, 253, 254, 255, 256, 257, 258, 259, 260, 261, 262, 263, 264, 265, 266, 267, 268, 269, 270, 271, 272, 273, 274, 275, 276, 277, 278, 279, 280, 281, 282, 283, 284, 285, 286, 287, 288, 289, 290, 291, 292, 293, 294, 295, 296, 297, 298, 299, 300, 301, 302, 303, 304, 305, 306, 307, 308, 309, 310, 311, 312, 313, 314, 315, 316, 317, 318, 319, 320, 321, 322, 323, 324, 325, 326, 327, 328, 329, 330, 331, 332, 333, 334, 335, 336, 337, 338, 339, 340, 341, 342, 343, 344, 345, 346, 347, 348, 349, 350, 351, 352, 353, 354, 355, 356, 357, 358, 359, 360, 361, 362, 363, 364, 365, 366, 367, 368, 369, 370, 371, 372, 373, 374, 375, 376, 377, 378, 379, 380, 381, 382, 383, 384, 385, 386, 387, 388, 389, 390, 391, 392, 393, 394, 395, 396, 397, 398, 399, 400, 401, 402, 403, 404, 405, 406, 407, 408, 409, 410, 411, 412, 413, 414, 415, 416, 417, 418, 419, 420, 421, 422, 423, 424, 425, 426, 427, 428, 429, 430, 431, 432, 433, 434, 435, 436, 437, 438, 439, 440, 441, 442, 443, 444, 445, 446, 447, 448, 449, 450, 451, 452, 453, 454, 455, 456, 457, 458, 459, 460, 461, 462, 463, 464, 465, 466, 467, 468, 469, 470, 471, 472, 473, 474, 475, 476, 477, 478, 479, 480, 481, 482, 483, 484, 485, 486, 487, 488, 489, 490, 491, 492, 493, 494, 495, 496, 497, 498, 499, 500, 501, 502, 503, 504, 505, 506, 507, 508, 509, 510, 511, 512, 513, 514, 515, 516, 517, 518, 519, 520, 521, 522, 523, 524, 525, 526, 527, 528, 529, 530, 531, 532, 533, 534, 535, 536, 537, 538, 539, 540, 541, 542, 543, 544, 545, 546, 547, 548, 549, 550, 551, 552, 553, 554, 555, 556, 557, 558, 559, 560, 561, 562, 563, 564, 565, 566, 567, 568, 569, 570, 571, 572, 573, 574, 575, 576, 577, 578, 579, 580, 581],
      "AcquisitionTime": ["154544.707500", "154545.495000", "154546.282500", "154547.072500", "154547.860000", "154548.647500", "154549.435000", "154550.225000", "154551.012500", "154551.800000", "154552.590000", "154553.377500", "154554.165000", "154554.952500", "154555.742500", "154556.530000", "154557.317500", "154558.105000", "154558.895000", "154559.682500", "154600.470000", "154601.257500", "154602.047500", "154602.835000", "154603.622500", "154604.410000", "154605.200000", "154605.987500", "154606.775000", "154607.562500", "154608.352500", "154609.140000", "154609.927500", "154610.717500", "154611.505000", "154612.292500", "154613.080000", "154613.870000", "154614.657500", "154615.445000", "154616.232500", "154617.022500", "154617.810000", "154618.597500", "154619.385000", "154620.175000", "154620.962500", "154621.750000", "154622.537500", "154623.327500", "154624.115000", "154624.902500", "154625.690000", "154626.480000", "154627.267500", "154628.055000", "154628.845000", "154629.632500", "154630.420000", "154631.207500", "154631.997500", "154632.785000", "154633.572500", "154634.360000", "154635.150000", "154635.937500", "154636.725000", "154637.512500", "154638.302500", "154639.090000", "154639.877500", "154640.665000", "154641.455000", "154642.242500", "154643.030000", "154643.820000", "154644.607500", "154645.395000", "154646.182500", "154646.972500", "154647.760000", "154648.547500", "154649.335000", "154650.125000", "154650.912500", "154651.700000", "154652.487500", "154653.277500", "154654.065000", "154654.852500", "154655.640000", "154656.430000", "154657.217500", "154658.005000", "154658.792500", "154659.582500", "154700.370000", "154701.157500", "154701.947500", "154702.735000", "154703.522500", "154704.310000", "154705.100000", "154705.887500", "154706.675000", "154707.462500", "154708.252500", "154709.040000", "154709.827500", "154710.615000", "154711.405000", "154712.192500", "154712.980000", "154713.767500", "154714.557500", "154715.345000", "154716.132500", "154716.920000", "154717.710000", "154718.497500", "154719.285000", "154720.075000", "154720.862500", "154721.650000", "154722.437500", "154723.227500", "154724.015000", "154724.802500", "154725.590000", "154726.380000", "154727.167500", "154727.955000", "154728.742500", "154729.532500", "154730.320000", "154731.107500", "154731.895000", "154732.685000", "154733.472500", "154734.260000", "154735.047500", "154735.837500", "154736.625000", "154737.412500", "154738.202500", "154738.990000", "154739.777500", "154740.565000", "154741.355000", "154742.142500", "154742.930000", "154743.717500", "154744.507500", "154745.295000", "154746.082500", "154746.870000", "154747.660000", "154748.447500", "154749.235000", "154750.022500", "154750.812500", "154751.600000", "154752.387500", "154753.175000", "154753.965000", "154754.752500", "154755.540000", "154756.330000", "154757.117500", "154757.905000", "154758.692500", "154759.482500", "154800.270000", "154801.057500", "154801.845000", "154802.635000", "154803.422500", "154804.210000", "154804.997500", "154805.787500", "154806.575000", "154807.362500", "154808.150000", "154808.940000", "154809.727500", "154810.515000", "154811.302500", "154812.092500", "154812.880000", "154813.667500", "154814.457500", "154815.245000", "154816.032500", "154816.820000", "154817.610000", "154818.397500", "154819.185000", "154819.972500", "154820.762500", "154821.550000", "154822.337500", "154823.125000", "154823.915000", "154824.702500", "154825.490000", "154826.277500", "154827.067500", "154827.855000", "154828.642500", "154829.430000", "154830.220000", "154831.007500", "154831.795000", "154832.585000", "154833.372500", "154834.160000", "154834.947500", "154835.737500", "154836.525000", "154837.312500", "154838.100000", "154838.890000", "154839.677500", "154840.465000", "154841.252500", "154842.042500", "154842.830000", "154843.617500", "154844.405000", "154845.195000", "154845.982500", "154846.770000", "154847.557500", "154848.347500", "154849.135000", "154849.922500", "154850.712500", "154851.500000", "154852.287500", "154853.075000", "154853.865000", "154854.652500", "154855.440000", "154856.227500", "154857.017500", "154857.805000", "154858.592500", "154859.380000", "154900.170000", "154900.957500", "154901.745000", "154902.532500", "154903.322500", "154904.110000", "154904.897500", "154905.685000", "154906.475000", "154907.262500", "154908.050000", "154908.840000", "154909.627500", "154910.415000", "154911.202500", "154911.992500", "154912.780000", "154913.567500", "154914.355000", "154915.145000", "154915.932500", "154916.720000", "154917.507500", "154918.297500", "154919.085000", "154919.872500", "154920.660000", "154921.450000", "154922.237500", "154923.025000", "154923.812500", "154924.602500", "154925.390000", "154926.177500", "154926.967500", "154927.755000", "154928.542500", "154929.330000", "154930.120000", "154930.907500", "154931.695000", "154932.482500", "154933.272500", "154934.060000", "154934.847500", "154935.635000", "154936.425000", "154937.212500", "154938.000000", "154938.787500", "154939.577500", "154940.365000", "154941.152500", "154941.940000", "154942.730000", "154943.517500", "154944.305000", "154945.095000", "154945.882500", "154946.670000", "154947.457500", "154948.247500", "154949.035000", "154949.822500", "154950.610000", "154951.400000", "154952.187500", "154952.975000", "154953.762500", "154954.552500", "154955.340000", "154956.127500", "154956.915000", "154957.705000", "154958.492500", "154959.280000", "155000.070000", "155000.857500", "155001.645000", "155002.432500", "155003.222500", "155004.010000", "155004.797500", "155005.585000", "155006.375000", "155007.162500", "155007.950000", "155008.737500", "155009.527500", "155010.315000", "155011.102500", "155011.890000", "155012.680000", "155013.467500", "155014.255000", "155015.042500", "155015.832500", "155016.620000", "155017.407500", "155018.197500", "155018.985000", "155019.772500", "155020.560000", "155021.350000", "155022.137500", "155022.925000", "155023.712500", "155024.502500", "155025.290000", "155026.077500", "155026.865000", "155027.655000", "155028.442500", "155029.230000", "155030.017500", "155030.807500", "155031.595000", "155032.382500", "155033.170000", "155033.960000", "155034.747500", "155035.535000", "155036.325000", "155037.112500", "155037.900000", "155038.687500", "155039.477500", "155040.265000", "155041.052500", "155041.840000", "155042.630000", "155043.417500", "155044.205000", "155044.992500", "155045.782500", "155046.570000", "155047.357500", "155048.145000", "155048.935000", "155049.722500", "155050.510000", "155051.297500", "155052.087500", "155052.875000", "155053.662500", "155054.452500", "155055.240000", "155056.027500", "155056.815000", "155057.605000", "155058.392500", "155059.180000", "155059.967500", "155100.757500", "155101.545000", "155102.332500", "155103.120000", "155103.910000", "155104.697500", "155105.485000", "155106.272500", "155107.062500", "155107.850000", "155108.637500", "155109.425000", "155110.215000", "155111.002500", "155111.790000", "155112.580000", "155113.367500", "155114.155000", "155114.942500", "155115.732500", "155116.520000", "155117.307500", "155118.095000", "155118.885000", "155119.672500", "155120.460000", "155121.247500", "155122.037500", "155122.825000", "155123.612500", "155124.400000", "155125.190000", "155125.977500", "155126.765000", "155127.552500", "155128.342500", "155129.130000", "155129.917500", "155130.707500", "155131.495000", "155132.282500", "155133.070000", "155133.860000", "155134.647500", "155135.435000", "155136.222500", "155137.012500", "155137.800000", "155138.587500", "155139.375000", "155140.165000", "155140.952500", "155141.740000", "155142.527500", "155143.317500", "155144.105000", "155144.892500", "155145.680000", "155146.470000", "155147.257500", "155148.045000", "155148.835000", "155149.622500", "155150.410000", "155151.197500", "155151.987500", "155152.775000", "155153.562500", "155154.350000", "155155.140000", "155155.927500", "155156.715000", "155157.502500", "155158.292500", "155159.080000", "155159.867500", "155200.655000", "155201.445000", "155202.232500", "155203.020000", "155203.807500", "155204.597500", "155205.385000", "155206.172500", "155206.962500", "155207.750000", "155208.537500", "155209.325000", "155210.115000", "155210.902500", "155211.690000", "155212.477500", "155213.267500", "155214.055000", "155214.842500", "155215.630000", "155216.420000", "155217.207500", "155217.995000", "155218.782500", "155219.572500", "155220.360000", "155221.147500", "155221.935000", "155222.725000", "155223.512500", "155224.300000", "155225.090000", "155225.877500", "155226.665000", "155227.452500", "155228.242500", "155229.030000", "155229.817500", "155230.605000", "155231.395000", "155232.182500", "155232.970000", "155233.757500", "155234.547500", "155235.335000", "155236.122500", "155236.910000", "155237.700000", "155238.487500", "155239.275000", "155240.062500", "155240.852500", "155241.640000", "155242.427500", "155243.217500", "155244.005000", "155244.792500", "155245.580000", "155246.370000", "155247.157500", "155247.945000", "155248.732500", "155249.522500", "155250.310000", "155251.097500", "155251.885000", "155252.675000", "155253.462500", "155254.250000", "155255.037500", "155255.827500", "155256.615000", "155257.402500", "155258.190000", "155258.980000", "155259.767500", "155300.555000", "155301.345000", "155302.132500", "155302.920000", "155303.707500", "155304.497500", "155305.285000", "155306.072500", "155306.860000", "155307.650000", "155308.437500", "155309.225000", "155310.012500", "155310.802500", "155311.590000", "155312.377500", "155313.165000", "155313.955000", "155314.742500", "155315.530000", "155316.320000", "155317.107500", "155317.895000", "155318.682500", "155319.472500", "155320.260000", "155321.047500", "155321.835000"],
      "ContentTime": ["154617.078000", "154617.078000", "154617.078000", "154617.078000", "154617.093000", "154617.093000", "154617.093000", "154617.093000", "154617.093000", "154617.093000", "154617.093000", "154617.109000", "154617.109000", "154617.109000", "154617.109000", "154617.109000", "154617.125000", "154617.125000", "154617.125000", "154617.125000", "154617.125000", "154617.140000", "154617.140000", "154617.140000", "154617.140000", "154617.140000", "154617.140000", "154617.140000", "154617.140000", "154617.156000", "154617.156000", "154617.156000", "154617.156000", "154617.156000", "154617.156000", "154617.156000", "154617.156000", "154617.171000", "154617.171000", "154637.046000", "154637.046000", "154637.046000", "154637.046000", "154637.062000", "154637.062000", "154637.062000", "154637.062000", "154637.062000", "154637.062000", "154637.062000", "154637.078000", "154637.078000", "154637.078000", "154637.078000", "154637.078000", "154637.078000", "154637.078000", "154637.078000", "154637.093000", "154637.093000", "154637.093000", "154637.093000", "154637.093000", "154637.093000", "154657.046000", "154657.046000", "154657.046000", "154657.046000", "154657.062000", "154657.062000", "154657.062000", "154657.062000", "154657.062000", "154657.062000", "154657.062000", "154657.078000", "154657.078000", "154657.078000", "154657.078000", "154657.078000", "154657.078000", "154657.078000", "154657.078000", "154657.093000", "154657.093000", "154657.093000", "154657.093000", "154657.093000", "154657.093000", "154657.093000", "154717.046000", "154717.046000", "154717.046000", "154717.046000", "154717.062000", "154717.062000", "154717.062000", "154717.062000", "154717.062000", "154717.062000", "154717.062000", "154717.078000", "154717.078000", "154717.078000", "154717.078000", "154717.078000", "154717.078000", "154717.078000", "154717.078000", "154717.093000", "154717.093000", "154717.093000", "154717.093000", "154717.093000", "154717.093000", "154737.046000", "154737.046000", "154737.046000", "154737.046000", "154737.062000", "154737.062000", "154737.062000", "154737.062000", "154737.062000", "154737.078000", "154737.078000", "154737.078000", "154737.078000", "154737.078000", "154737.078000", "154737.078000", "154737.093000", "154737.093000", "154737.093000", "154737.093000", "154737.093000", "154737.093000", "154737.093000", "154737.109000", "154737.109000", "154737.109000", "154757.046000", "154757.046000", "154757.046000", "154757.046000", "154757.062000", "154757.062000", "154757.062000", "154757.062000", "154757.062000", "154757.062000", "154757.062000", "154757.078000", "154757.078000", "154757.078000", "154757.078000", "154757.078000", "154757.078000", "154757.078000", "154757.078000", "154757.093000", "154757.093000", "154757.093000", "154757.093000", "154757.093000", "154757.093000", "154817.046000", "154817.046000", "154817.046000", "154817.046000", "154817.062000", "154817.062000", "154817.062000", "154817.062000", "154817.062000", "154817.062000", "154817.062000", "154817.078000", "154817.078000", "154817.078000", "154817.078000", "154817.078000", "154817.078000", "154817.078000", "154817.078000", "154817.093000", "154817.093000", "154817.093000", "154817.093000", "154817.093000", "154817.093000", "154837.046000", "154837.046000", "154837.046000", "154837.046000", "154837.062000", "154837.062000", "154837.062000", "154837.062000", "154837.062000", "154837.062000", "154837.062000", "154837.078000", "154837.078000", "154837.078000", "154837.078000", "154837.078000", "154837.078000", "154837.078000", "154837.078000", "154837.093000", "154837.093000", "154837.093000", "154837.093000", "154837.093000", "154837.093000", "154837.093000", "154857.046000", "154857.046000", "154857.046000", "154857.062000", "154857.062000", "154857.062000", "154857.062000", "154857.078000", "154857.078000", "154857.078000", "154857.078000", "154857.093000", "154857.093000", "154857.093000", "154857.093000", "154857.093000", "154857.093000", "154857.093000", "154857.109000", "154857.109000", "154857.109000", "154857.109000", "154857.109000", "154857.125000", "154857.125000", "154917.046000", "154917.046000", "154917.046000", "154917.062000", "154917.062000", "154917.062000", "154917.062000", "154917.062000", "154917.062000", "154917.062000", "154917.062000", "154917.078000", "154917.078000", "154917.078000", "154917.078000", "154917.078000", "154917.078000", "154917.078000", "154917.093000", "154917.093000", "154917.093000", "154917.093000", "154917.093000", "154917.093000", "154917.093000", "154917.093000", "154937.046000", "154937.046000", "154937.046000", "154937.046000", "154937.062000", "154937.062000", "154937.062000", "154937.062000", "154937.062000", "154937.062000", "154937.062000", "154937.078000", "154937.078000", "154937.078000", "154937.078000", "154937.078000", "154937.078000", "154937.078000", "154937.078000", "154937.093000", "154937.093000", "154937.093000", "154937.093000", "154937.093000", "154937.093000", "154957.046000", "154957.046000", "154957.046000", "154957.046000", "154957.062000", "154957.062000", "154957.062000", "154957.062000", "154957.062000", "154957.062000", "154957.062000", "154957.078000", "154957.078000", "154957.078000", "154957.078000", "154957.078000", "154957.078000", "154957.093000", "154957.093000", "154957.093000", "154957.093000", "154957.093000", "154957.093000", "154957.093000", "154957.109000", "154957.109000", "155017.046000", "155017.046000", "155017.046000", "155017.046000", "155017.062000", "155017.062000", "155017.062000", "155017.062000", "155017.062000", "155017.062000", "155017.062000", "155017.078000", "155017.078000", "155017.078000", "155017.078000", "155017.078000", "155017.078000", "155017.078000", "155017.078000", "155017.093000", "155017.093000", "155017.093000", "155017.093000", "155017.093000", "155017.093000", "155037.046000", "155037.046000", "155037.046000", "155037.046000", "155037.062000", "155037.062000", "155037.062000", "155037.062000", "155037.062000", "155037.062000", "155037.062000", "155037.078000", "155037.078000", "155037.078000", "155037.078000", "155037.078000", "155037.078000", "155037.078000", "155037.078000", "155037.093000", "155037.093000", "155037.093000", "155037.093000", "155037.093000", "155037.093000", "155037.093000", "155057.046000", "155057.046000", "155057.046000", "155057.062000", "155057.062000", "155057.062000", "155057.062000", "155057.062000", "155057.078000", "155057.078000", "155057.078000", "155057.078000", "155057.078000", "155057.078000", "155057.078000", "155057.078000", "155057.093000", "155057.093000", "155057.093000", "155057.093000", "155057.093000", "155057.109000", "155057.109000", "155057.109000", "155057.109000", "155117.046000", "155117.046000", "155117.046000", "155117.046000", "155117.062000", "155117.062000", "155117.062000", "155117.062000", "155117.062000", "155117.062000", "155117.062000", "155117.078000", "155117.078000", "155117.078000", "155117.078000", "155117.078000", "155117.078000", "155117.078000", "155117.078000", "155117.093000", "155117.093000", "155117.093000", "155117.093000", "155117.093000", "155117.093000", "155117.109000", "155137.046000", "155137.046000", "155137.046000", "155137.046000", "155137.062000", "155137.062000", "155137.062000", "155137.062000", "155137.062000", "155137.062000", "155137.062000", "155137.078000", "155137.078000", "155137.078000", "155137.078000", "155137.078000", "155137.078000", "155137.078000", "155137.078000", "155137.093000", "155137.093000", "155137.093000", "155137.093000", "155137.093000", "155137.093000", "155157.046000", "155157.046000", "155157.046000", "155157.046000", "155157.062000", "155157.062000", "155157.062000", "155157.062000", "155157.062000", "155157.062000", "155157.062000", "155157.078000", "155157.078000", "155157.078000", "155157.078000", "155157.078000", "155157.078000", "155157.078000", "155157.078000", "155157.093000", "155157.093000", "155157.093000", "155157.093000", "155157.093000", "155157.093000", "155157.093000", "155217.046000", "155217.046000", "155217.046000", "155217.046000", "155217.062000", "155217.062000", "155217.062000", "155217.062000", "155217.062000", "155217.062000", "155217.062000", "155217.078000", "155217.078000", "155217.078000", "155217.078000", "155217.078000", "155217.078000", "155217.078000", "155217.078000", "155217.093000", "155217.093000", "155217.093000", "155217.093000", "155217.093000", "155217.093000", "155237.046000", "155237.046000", "155237.046000", "155237.062000", "155237.062000", "155237.062000", "155237.062000", "155237.062000", "155237.078000", "155237.078000", "155237.078000", "155237.078000", "155237.078000", "155237.078000", "155237.093000", "155237.093000", "155237.093000", "155237.093000", "155237.093000", "155237.093000", "155237.093000", "155237.109000", "155237.109000", "155237.109000", "155237.109000", "155237.109000", "155257.046000", "155257.046000", "155257.046000", "155257.046000", "155257.062000", "155257.062000", "155257.062000", "155257.062000", "155257.062000", "155257.062000", "155257.062000", "155257.078000", "155257.078000", "155257.078000", "155257.078000", "155257.078000", "155257.078000", "155257.078000", "155257.078000", "155257.093000", "155257.093000", "155257.093000", "155257.093000", "155257.093000", "155257.093000", "155317.046000", "155317.046000", "155317.046000", "155317.046000", "155317.062000", "155317.062000", "155317.062000", "155317.062000", "155317.062000", "155317.062000", "155317.062000", "155317.078000", "155317.078000", "155317.078000", "155317.078000", "155317.078000", "155317.078000", "155317.078000", "155317.093000", "155317.093000", "155317.093000", "155317.093000", "155317.093000", "155317.093000", "155317.093000", "155317.093000", "155322.515000", "155322.515000", "155322.531000", "155322.531000", "155322.531000", "155322.531000", "155322.531000"],
