{
  "AcquisitionMatrixPE": 104,
  "AcquisitionNumber": 1,
  "AcquisitionTime": "16:39:59.755000",
  "BandwidthPerPixelPhaseEncode": 13.935,
  "BaseResolution": 104,
  "CoilString": "C:HEA;HEP",
  "ConversionSoftware": "dcm2niix",
  "ConversionSoftwareVersion": "v1.0.20210317",
  "DerivedVendorReportedEchoSpacing": 0.000690017,
  "DeviceSerialNumber": "35450",
  "DwellTime": 2.5e-06,
  "EchoTime": 0.0348,
  "EffectiveEchoSpacing": 0.000690017,
  "FlipAngle": 55,
  "ImageComments": "Unaliased MB8/PE3 (remote)",
  "ImageOrientationPatientDICOM": [0.999879, 0.00265218, 0.0153534, -6.90248e-09, 0.985406, -0.17022],
  "ImageType": [
    "ORIGINAL",
    "PRIMARY",
    "M",
    "MB",
    "ND",
    "MOSAIC"
],
  "ImagingFrequency": 123.234,
  "InPlanePhaseEncodingDirectionDICOM": "COL",
  "InstitutionAddress": "Univeristy Ave. 197,Newark,North East,US,07102-1814",
  "InstitutionName": "RUBIC",
  "InstitutionalDepartmentName": "Department",
  "MRAcquisitionType": "2D",
  "MagneticFieldStrength": 3,
  "Manufacturer": "Siemens",
  "ManufacturersModelName": "TrioTim",
  "Modality": "MR",
  "MultibandAccelerationFactor": 8,
  "PartialFourier": 0.875,
  "PatientPosition": "HFS",
  "PercentPhaseFOV": 100,
  "PercentSampling": 100,
  "PhaseEncodingDirection": "j-",
  "PhaseEncodingSteps": 91,
  "PhaseResolution": 1,
  "PixelBandwidth": 1923,
  "ProcedureStepDescription": "Cole^Michael",
  "ProtocolName": "cmrr_mbep2d_bold_2mm_MB8_Task_8x",
  "PulseSequenceDetails": "%CustomerSeq%\\cmrr_mbep2d_bold",
  "ReceiveCoilName": "32Ch_Head",
  "ReconMatrixPE": 104,
  "RepetitionTime": 0.785,
  "SAR": 0.11964,
  "ScanOptions": "PFP\\FS",
  "ScanningSequence": "EP",
  "SequenceName": "epfid2d1_104",
  "SequenceVariant": "SK\\SS",
  "SeriesDescription": "cmrr_mbep2d_bold_2mm_MB8_Task_8x",
  "SeriesNumber": 21,
  "ShimSetting": [2151, -408, -7173, 469, -37, 201, 321, 109],
  "SliceThickness": 2,
  "SliceTiming": [0, 0.4375, 0.0875, 0.525, 0.175, 0.615, 0.2625, 0.7025, 0.35, 0, 0.4375, 0.0875, 0.525, 0.175, 0.615, 0.2625, 0.7025, 0.35, 0, 0.4375, 0.0875, 0.525, 0.175, 0.615, 0.2625, 0.7025, 0.35, 0, 0.4375, 0.0875, 0.525, 0.175, 0.615, 0.2625, 0.7025, 0.35, 0, 0.4375, 0.0875, 0.525, 0.175, 0.615, 0.2625, 0.7025, 0.35, 0, 0.4375, 0.0875, 0.525, 0.175, 0.615, 0.2625, 0.7025, 0.35, 0, 0.4375, 0.0875, 0.525, 0.175, 0.615, 0.2625, 0.7025, 0.35, 0, 0.4375, 0.0875, 0.525, 0.175, 0.615, 0.2625, 0.7025, 0.35],
  "SoftwareVersions": "syngo MR B19",
  "SpacingBetweenSlices": 2,
  "StationName": "MRC35450",
  "TaskName": "cpro",
  "TotalReadoutTime": 0.0710717,
  "TxRefAmp": 317.941,
  "dcmmeta_affine": [
    [-1.999757170677185, -1.3804969611896922e-08, 0.031161658465862274, 101.60340881347656],
    [-0.005304355174303055, 1.9708120822906494, -0.3403989374637604, -70.68885803222656],
    [0.03070688433945179, 0.3404402434825897, 1.970572829246521, -109.22383880615234],
    [0.0, 0.0, 0.0, 1.0]
],
  "dcmmeta_reorient_transform": [
    [0.0, -1.0, 0.0, 103.0],
    [1.0, 0.0, 0.0, 0.0],
    [0.0, 0.0, 1.0, 0.0],
    [0.0, 0.0, 0.0, 1.0]
],
  "dcmmeta_shape": [104, 104, 72, 581],
  "dcmmeta_slice_dim": 2,
  "dcmmeta_version": 0.6,
  "global": {
    "const": {
      "AcquisitionMatrix": [104, 0, 0, 104],
      "AngioFlag": "N",
      "BitsAllocated": 16,
      "BitsStored": 12,
      "Columns": 936,
      "EchoNumbers": 1,
      "EchoTime": 34.8,
      "EchoTrainLength": 1,
      "FlipAngle": 55.0,
      "HighBit": 11,
      "ImageOrientationPatient": [0.99987861151022, 0.00265217758516, 0.01535344255999, -6.902485e-09, 0.98540606237706, -0.1702201287467],
      "ImagePositionPatient": [-933.50240484431, -954.36924836818, 54.690592721454],
      "ImageType": [
        "ORIGINAL",
        "PRIMARY",
        "M",
        "MB",
        "ND",
        "MOSAIC"
],
      "ImagedNucleus": "1H",
      "ImagingFrequency": 123.234425,
      "InPlanePhaseEncodingDirection": "COL",
      "MRAcquisitionType": "2D",
      "MagneticFieldStrength": 3.0,
      "Manufacturer": "SIEMENS",
      "ManufacturerModelName": "TrioTim",
      "Modality": "MR",
      "NumberOfAverages": 1.0,
      "NumberOfPhaseEncodingSteps": 91,
      "PercentPhaseFieldOfView": 100.0,
      "PercentSampling": 100.0,
      "PerformedProcedureStepStartTime": "150051.781000",
      "PhotometricInterpretation": "MONOCHROME2",
      "PixelBandwidth": 1923.0,
      "PixelRepresentation": 0,
      "PixelSpacing": [2.0, 2.0],
      "ProtocolName": "cmrr_mbep2d_bold_2mm_MB8_Task_8x",
      "RepetitionTime": 785.0,
      "Rows": 936,
      "SAR": 0.11963951386141,
      "SamplesPerPixel": 1,
      "ScanOptions": [
        "PFP",
        "FS"
],
      "ScanningSequence": "EP",
      "SequenceName": "epfid2d1_104",
      "SequenceVariant": [
        "SK",
        "SS"
],
      "SeriesDescription": "cmrr_mbep2d_bold_2mm_MB8_Task_8x",
      "SeriesNumber": 21,
      "SeriesTime": "164019.718000",
      "SliceLocation": -94.002494917273,
      "SliceThickness": 2.0,
      "SmallestImagePixelValue": 0,
      "SoftwareVersions": "syngo MR B19",
      "SpacingBetweenSlices": 1.9999999945614,
      "SpecificCharacterSet": "ISO_IR 100",
      "StudyID": "1",
      "StudyTime": "150051.750000",
      "TransmitCoilName": "Body",
      "VariableFlipAngleFlag": "N",
      "WindowCenterWidthExplanation": "Algo1",
      "dBdt": 0.0},
    "slices": {}
  },
  "time": {
    "samples": {
      "AcquisitionNumber": [1, 2, 3, 4, 5, 6, 7, 8, 9, 10, 11, 12, 13, 14, 15, 16, 17, 18, 19, 20, 21, 22, 23, 24, 25, 26, 27, 28, 29, 30, 31, 32, 33, 34, 35, 36, 37, 38, 39, 40, 41, 42, 43, 44, 45, 46, 47, 48, 49, 50, 51, 52, 53, 54, 55, 56, 57, 58, 59, 60, 61, 62, 63, 64, 65, 66, 67, 68, 69, 70, 71, 72, 73, 74, 75, 76, 77, 78, 79, 80, 81, 82, 83, 84, 85, 86, 87, 88, 89, 90, 91, 92, 93, 94, 95, 96, 97, 98, 99, 100, 101, 102, 103, 104, 105, 106, 107, 108, 109, 110, 111, 112, 113, 114, 115, 116, 117, 118, 119, 120, 121, 122, 123, 124, 125, 126, 127, 128, 129, 130, 131, 132, 133, 134, 135, 136, 137, 138, 139, 140, 141, 142, 143, 144, 145, 146, 147, 148, 149, 150, 151, 152, 153, 154, 155, 156, 157, 158, 159, 160, 161, 162, 163, 164, 165, 166, 167, 168, 169, 170, 171, 172, 173, 174, 175, 176, 177, 178, 179, 180, 181, 182, 183, 184, 185, 186, 187, 188, 189, 190, 191, 192, 193, 194, 195, 196, 197, 198, 199, 200, 201, 202, 203, 204, 205, 206, 207, 208, 209, 210, 211, 212, 213, 214, 215, 216, 217, 218, 219, 220, 221, 222, 223, 224, 225, 226, 227, 228, 229, 230, 231, 232, 233, 234, 235, 236, 237, 238, 239, 240, 241, 242, 243, 244, 245, 246, 247, 248, 249, 250, 251, 252, 253, 254, 255, 256, 257, 258, 259, 260, 261, 262, 263, 264, 265, 266, 267, 268, 269, 270, 271, 272, 273, 274, 275, 276, 277, 278, 279, 280, 281, 282, 283, 284, 285, 286, 287, 288, 289, 290, 291, 292, 293, 294, 295, 296, 297, 298, 299, 300, 301, 302, 303, 304, 305, 306, 307, 308, 309, 310, 311, 312, 313, 314, 315, 316, 317, 318, 319, 320, 321, 322, 323, 324, 325, 326, 327, 328, 329, 330, 331, 332, 333, 334, 335, 336, 337, 338, 339, 340, 341, 342, 343, 344, 345, 346, 347, 348, 349, 350, 351, 352, 353, 354, 355, 356, 357, 358, 359, 360, 361, 362, 363, 364, 365, 366, 367, 368, 369, 370, 371, 372, 373, 374, 375, 376, 377, 378, 379, 380, 381, 382, 383, 384, 385, 386, 387, 388, 389, 390, 391, 392, 393, 394, 395, 396, 397, 398, 399, 400, 401, 402, 403, 404, 405, 406, 407, 408, 409, 410, 411, 412, 413, 414, 415, 416, 417, 418, 419, 420, 421, 422, 423, 424, 425, 426, 427, 428, 429, 430, 431, 432, 433, 434, 435, 436, 437, 438, 439, 440, 441, 442, 443, 444, 445, 446, 447, 448, 449, 450, 451, 452, 453, 454, 455, 456, 457, 458, 459, 460, 461, 462, 463, 464, 465, 466, 467, 468, 469, 470, 471, 472, 473, 474, 475, 476, 477, 478, 479, 480, 481, 482, 483, 484, 485, 486, 487, 488, 489, 490, 491, 492, 493, 494, 495, 496, 497, 498, 499, 500, 501, 502, 503, 504, 505, 506, 507, 508, 509, 510, 511, 512, 513, 514, 515, 516, 517, 518, 519, 520, 521, 522, 523, 524, 525, 526, 527, 528, 529, 530, 531, 532, 533, 534, 535, 536, 537, 538, 539, 540, 541, 542, 543, 544, 545, 546, 547, 548, 549, 550, 551, 552, 553, 554, 555, 556, 557, 558, 559, 560, 561, 562, 563, 564, 565, 566, 567, 568, 569, 570, 571, 572, 573, 574, 575, 576, 577, 578, 579, 580, 581],
      "AcquisitionTime": ["163959.755000", "164000.545000", "164001.332500", "164002.120000", "164002.907500", "164003.697500", "164004.485000", "164005.272500", "164006.062500", "164006.850000", "164007.637500", "164008.425000", "164009.215000", "164010.002500", "164010.790000", "164011.577500", "164012.367500", "164013.155000", "164013.942500", "164014.730000", "164015.520000", "164016.307500", "164017.095000", "164017.882500", "164018.672500", "164019.460000", "164020.247500", "164021.035000", "164021.825000", "164022.612500", "164023.400000", "164024.190000", "164024.977500", "164025.765000", "164026.552500", "164027.342500", "164028.130000", "164028.917500", "164029.705000", "164030.495000", "164031.282500", "164032.070000", "164032.857500", "164033.647500", "164034.435000", "164035.222500", "164036.010000", "164036.800000", "164037.587500", "164038.375000", "164039.162500", "164039.952500", "164040.740000", "164041.527500", "164042.317500", "164043.105000", "164043.892500", "164044.680000", "164045.470000", "164046.257500", "164047.045000", "164047.832500", "164048.622500", "164049.410000", "164050.197500", "164050.985000", "164051.775000", "164052.562500", "164053.350000", "164054.137500", "164054.927500", "164055.715000", "164056.502500", "164057.290000", "164058.080000", "164058.867500", "164059.655000", "164100.445000", "164101.232500", "164102.020000", "164102.807500", "164103.597500", "164104.385000", "164105.172500", "164105.960000", "164106.750000", "164107.537500", "164108.325000", "164109.112500", "164109.902500", "164110.690000", "164111.477500", "164112.265000", "164113.055000", "164113.842500", "164114.630000", "164115.417500", "164116.207500", "164116.995000", "164117.782500", "164118.572500", "164119.360000", "164120.147500", "164120.935000", "164121.725000", "164122.512500", "164123.300000", "164124.087500", "164124.877500", "164125.665000", "164126.452500", "164127.240000", "164128.030000", "164128.817500", "164129.605000", "164130.392500", "164131.182500", "164131.970000", "164132.757500", "164133.545000", "164134.335000", "164135.122500", "164135.910000", "164136.700000", "164137.487500", "164138.275000", "164139.062500", "164139.852500", "164140.640000", "164141.427500", "164142.215000", "164143.005000", "164143.792500", "164144.580000", "164145.367500", "164146.157500", "164146.945000", "164147.732500", "164148.520000", "164149.310000", "164150.097500", "164150.885000", "164151.672500", "164152.462500", "164153.250000", "164154.037500", "164154.827500", "164155.615000", "164156.402500", "164157.190000", "164157.980000", "164158.767500", "164159.555000", "164200.342500", "164201.132500", "164201.920000", "164202.707500", "164203.495000", "164204.285000", "164205.072500", "164205.860000", "164206.647500", "164207.437500", "164208.225000", "164209.012500", "164209.800000", "164210.590000", "164211.377500", "164212.165000", "164212.955000", "164213.742500", "164214.530000", "164215.317500", "164216.107500", "164216.895000", "164217.682500", "164218.470000", "164219.260000", "164220.047500", "164220.835000", "164221.622500", "164222.412500", "164223.200000", "164223.987500", "164224.775000", "164225.565000", "164226.352500", "164227.140000", "164227.927500", "164228.717500", "164229.505000", "164230.292500", "164231.082500", "164231.870000", "164232.657500", "164233.445000", "164234.235000", "164235.022500", "164235.810000", "164236.597500", "164237.387500", "164238.175000", "164238.962500", "164239.750000", "164240.540000", "164241.327500", "164242.115000", "164242.902500", "164243.692500", "164244.480000", "164245.267500", "164246.057500", "164246.845000", "164247.632500", "164248.420000", "164249.210000", "164249.997500", "164250.785000", "164251.572500", "164252.362500", "164253.150000", "164253.937500", "164254.725000", "164255.515000", "164256.302500", "164257.090000", "164257.877500", "164258.667500", "164259.455000", "164300.242500", "164301.030000", "164301.820000", "164302.607500", "164303.395000", "164304.185000", "164304.972500", "164305.760000", "164306.547500", "164307.337500", "164308.125000", "164308.912500", "164309.700000", "164310.490000", "164311.277500", "164312.065000", "164312.852500", "164313.642500", "164314.430000", "164315.217500", "164316.005000", "164316.795000", "164317.582500", "164318.370000", "164319.157500", "164319.947500", "164320.735000", "164321.522500", "164322.312500", "164323.100000", "164323.887500", "164324.675000", "164325.465000", "164326.252500", "164327.040000", "164327.827500", "164328.617500", "164329.405000", "164330.192500", "164330.980000", "164331.770000", "164332.557500", "164333.345000", "164334.132500", "164334.922500", "164335.710000", "164336.497500", "164337.285000", "164338.075000", "164338.862500", "164339.650000", "164340.440000", "164341.227500", "164342.015000", "164342.802500", "164343.592500", "164344.380000", "164345.167500", "164345.955000", "164346.745000", "164347.532500", "164348.320000", "164349.107500", "164349.897500", "164350.685000", "164351.472500", "164352.260000", "164353.050000", "164353.837500", "164354.625000", "164355.412500", "164356.202500", "164356.990000", "164357.777500", "164358.567500", "164359.355000", "164400.142500", "164400.930000", "164401.720000", "164402.507500", "164403.295000", "164404.082500", "164404.872500", "164405.660000", "164406.447500", "164407.235000", "164408.025000", "164408.812500", "164409.600000", "164410.387500", "164411.177500", "164411.965000", "164412.752500", "164413.540000", "164414.330000", "164415.117500", "164415.905000", "164416.695000", "164417.482500", "164418.270000", "164419.057500", "164419.847500", "164420.635000", "164421.422500", "164422.210000", "164423.000000", "164423.787500", "164424.575000", "164425.362500", "164426.152500", "164426.940000", "164427.727500", "164428.515000", "164429.305000", "164430.092500", "164430.880000", "164431.667500", "164432.457500", "164433.245000", "164434.032500", "164434.822500", "164435.610000", "164436.397500", "164437.185000", "164437.975000", "164438.762500", "164439.550000", "164440.337500", "164441.127500", "164441.915000", "164442.702500", "164443.490000", "164444.280000", "164445.067500", "164445.855000", "164446.642500", "164447.432500", "164448.220000", "164449.007500", "164449.795000", "164450.585000", "164451.372500", "164452.160000", "164452.950000", "164453.737500", "164454.525000", "164455.312500", "164456.102500", "164456.890000", "164457.677500", "164458.465000", "164459.255000", "164500.042500", "164500.830000", "164501.617500", "164502.407500", "164503.195000", "164503.982500", "164504.770000", "164505.560000", "164506.347500", "164507.135000", "164507.922500", "164508.712500", "164509.500000", "164510.287500", "164511.077500", "164511.865000", "164512.652500", "164513.440000", "164514.230000", "164515.017500", "164515.805000", "164516.592500", "164517.382500", "164518.170000", "164518.957500", "164519.745000", "164520.535000", "164521.322500", "164522.110000", "164522.897500", "164523.687500", "164524.475000", "164525.262500", "164526.050000", "164526.840000", "164527.627500", "164528.415000", "164529.205000", "164529.992500", "164530.780000", "164531.567500", "164532.357500", "164533.145000", "164533.932500", "164534.720000", "164535.510000", "164536.297500", "164537.085000", "164537.872500", "164538.662500", "164539.450000", "164540.237500", "164541.025000", "164541.815000", "164542.602500", "164543.390000", "164544.177500", "164544.967500", "164545.755000", "164546.542500", "164547.332500", "164548.120000", "164548.907500", "164549.695000", "164550.485000", "164551.272500", "164552.060000", "164552.847500", "164553.637500", "164554.425000", "164555.212500", "164556.000000", "164556.790000", "164557.577500", "164558.365000", "164559.152500", "164559.942500", "164600.730000", "164601.517500", "164602.307500", "164603.095000", "164603.882500", "164604.670000", "164605.460000", "164606.247500", "164607.035000", "164607.822500", "164608.612500", "164609.400000", "164610.187500", "164610.975000", "164611.765000", "164612.552500", "164613.340000", "164614.127500", "164614.917500", "164615.705000", "164616.492500", "164617.280000", "164618.070000", "164618.857500", "164619.645000", "164620.435000", "164621.222500", "164622.010000", "164622.797500", "164623.587500", "164624.375000", "164625.162500", "164625.950000", "164626.740000", "164627.527500", "164628.315000", "164629.102500", "164629.892500", "164630.680000", "164631.467500", "164632.255000", "164633.045000", "164633.832500", "164634.620000", "164635.407500", "164636.197500", "164636.985000", "164637.772500", "164638.562500", "164639.350000", "164640.137500", "164640.925000", "164641.715000", "164642.502500", "164643.290000", "164644.077500", "164644.867500", "164645.655000", "164646.442500", "164647.230000", "164648.020000", "164648.807500", "164649.595000", "164650.382500", "164651.172500", "164651.960000", "164652.747500", "164653.535000", "164654.325000", "164655.112500", "164655.900000", "164656.690000", "164657.477500", "164658.265000", "164659.052500", "164659.842500", "164700.630000", "164701.417500", "164702.205000", "164702.995000", "164703.782500", "164704.570000", "164705.357500", "164706.147500", "164706.935000", "164707.722500", "164708.510000", "164709.300000", "164710.087500", "164710.875000", "164711.662500", "164712.452500", "164713.240000", "164714.027500", "164714.817500", "164715.605000", "164716.392500", "164717.180000", "164717.970000", "164718.757500", "164719.545000", "164720.332500", "164721.122500", "164721.910000", "164722.697500", "164723.485000", "164724.275000", "164725.062500", "164725.850000", "164726.637500", "164727.427500", "164728.215000", "164729.002500", "164729.790000", "164730.580000", "164731.367500", "164732.155000", "164732.945000", "164733.732500", "164734.520000", "164735.307500", "164736.097500", "164736.885000"],
      "ContentTime": ["164019.718000", "164019.718000", "164019.734000", "164019.734000", "164019.734000", "164019.734000", "164019.734000", "164019.734000", "164019.734000", "164019.750000", "164019.750000", "164019.750000", "164019.750000", "164019.750000", "164019.750000", "164019.750000", "164019.765000", "164019.765000", "164019.765000", "164019.765000", "164019.765000", "164019.781000", "164039.687000", "164039.703000", "164039.703000", "164039.703000", "164039.703000", "164039.703000", "164039.703000", "164039.703000", "164039.718000", "164039.718000", "164039.718000", "164039.718000", "164039.718000", "164039.718000", "164039.718000", "164039.734000", "164039.734000", "164039.734000", "164039.734000", "164039.734000", "164039.734000", "164039.750000", "164039.750000", "164039.750000", "164039.750000", "164059.687000", "164059.703000", "164059.703000", "164059.703000", "164059.703000", "164059.703000", "164059.703000", "164059.718000", "164059.718000", "164059.718000", "164059.718000", "164059.718000", "164059.718000", "164059.718000", "164059.734000", "164059.734000", "164059.734000", "164059.734000", "164059.734000", "164059.734000", "164059.734000", "164059.750000", "164059.750000", "164059.750000", "164059.750000", "164059.750000", "164119.687000", "164119.703000", "164119.703000", "164119.703000", "164119.703000", "164119.703000", "164119.703000", "164119.703000", "164119.718000", "164119.718000", "164119.718000", "164119.718000", "164119.718000", "164119.718000", "164119.734000", "164119.734000", "164119.734000", "164119.734000", "164119.734000", "164119.734000", "164119.734000", "164119.734000", "164119.750000", "164119.750000", "164119.750000", "164139.687000", "164139.703000", "164139.703000", "164139.703000", "164139.703000", "164139.703000", "164139.703000", "164139.718000", "164139.718000", "164139.718000", "164139.718000", "164139.718000", "164139.718000", "164139.718000", "164139.734000", "164139.734000", "164139.734000", "164139.734000", "164139.734000", "164139.750000", "164139.750000", "164139.750000", "164139.750000", "164139.750000", "164139.765000", "164139.765000", "164159.687000", "164159.703000", "164159.703000", "164159.703000", "164159.703000", "164159.703000", "164159.703000", "164159.718000", "164159.718000", "164159.718000", "164159.718000", "164159.718000", "164159.718000", "164159.718000", "164159.734000", "164159.734000", "164159.734000", "164159.734000", "164159.734000", "164159.734000", "164159.734000", "164159.750000", "164159.750000", "164159.750000", "164159.750000", "164219.687000", "164219.703000", "164219.703000", "164219.703000", "164219.703000", "164219.718000", "164219.718000", "164219.718000", "164219.718000", "164219.718000", "164219.718000", "164219.718000", "164219.734000", "164219.734000", "164219.734000", "164219.734000", "164219.734000", "164219.734000", "164219.734000", "164219.750000", "164219.750000", "164219.750000", "164219.750000", "164219.750000", "164219.750000", "164219.750000", "164239.687000", "164239.703000", "164239.703000", "164239.703000", "164239.703000", "164239.703000", "164239.703000", "164239.718000", "164239.718000", "164239.718000", "164239.718000", "164239.718000", "164239.718000", "164239.718000", "164239.734000", "164239.734000", "164239.734000", "164239.734000", "164239.734000", "164239.734000", "164239.750000", "164239.750000", "164239.750000", "164239.750000", "164239.750000", "164259.687000", "164259.703000", "164259.703000", "164259.703000", "164259.703000", "164259.703000", "164259.703000", "164259.718000", "164259.718000", "164259.718000", "164259.718000", "164259.718000", "164259.718000", "164259.718000", "164259.734000", "164259.734000", "164259.734000", "164259.734000", "164259.734000", "164259.734000", "164259.734000", "164259.750000", "164259.750000", "164259.750000", "164259.750000", "164259.750000", "164319.687000", "164319.703000", "164319.703000", "164319.703000", "164319.703000", "164319.703000", "164319.703000", "164319.718000", "164319.718000", "164319.718000", "164319.718000", "164319.718000", "164319.718000", "164319.718000", "164319.734000", "164319.734000", "164319.734000", "164319.734000", "164319.734000", "164319.734000", "164319.734000", "164319.750000", "164319.750000", "164319.750000", "164319.750000", "164339.687000", "164339.718000", "164339.718000", "164339.718000", "164339.734000", "164339.734000", "164339.734000", "164339.734000", "164339.734000", "164339.734000", "164339.734000", "164339.750000", "164339.750000", "164339.750000", "164339.750000", "164339.750000", "164339.750000", "164339.750000", "164339.765000", "164339.765000", "164339.765000", "164339.765000", "164339.765000", "164339.765000", "164339.765000", "164339.781000", "164359.687000", "164359.703000", "164359.703000", "164359.703000", "164359.703000", "164359.703000", "164359.703000", "164359.718000", "164359.718000", "164359.718000", "164359.718000", "164359.718000", "164359.718000", "164359.718000", "164359.734000", "164359.734000", "164359.734000", "164359.734000", "164359.734000", "164359.734000", "164359.750000", "164359.750000", "164359.750000", "164359.750000", "164359.750000", "164419.687000", "164419.703000", "164419.703000", "164419.703000", "164419.703000", "164419.703000", "164419.703000", "164419.718000", "164419.718000", "164419.718000", "164419.718000", "164419.718000", "164419.718000", "164419.734000", "164419.734000", "164419.734000", "164419.734000", "164419.734000", "164419.750000", "164419.750000", "164419.750000", "164419.750000", "164419.750000", "164419.750000", "164419.750000", "164439.687000", "164439.703000", "164439.703000", "164439.703000", "164439.703000", "164439.703000", "164439.703000", "164439.718000", "164439.718000", "164439.718000", "164439.718000", "164439.734000", "164439.734000", "164439.734000", "164439.734000", "164439.734000", "164439.734000", "164439.750000", "164439.750000", "164439.750000", "164439.750000", "164439.750000", "164439.750000", "164439.750000", "164439.765000", "164439.765000", "164459.687000", "164459.703000", "164459.703000", "164459.703000", "164459.703000", "164459.703000", "164459.703000", "164459.718000", "164459.718000", "164459.718000", "164459.718000", "164459.718000", "164459.718000", "164459.718000", "164459.734000", "164459.734000", "164459.734000", "164459.734000", "164459.734000", "164459.734000", "164459.750000", "164459.750000", "164459.750000", "164459.750000", "164459.750000", "164519.687000", "164519.703000", "164519.703000", "164519.703000", "164519.703000", "164519.703000", "164519.703000", "164519.718000", "164519.718000", "164519.718000", "164519.718000", "164519.718000", "164519.734000", "164519.734000", "164519.734000", "164519.734000", "164519.734000", "164519.734000", "164519.734000", "164519.750000", "164519.750000", "164519.750000", "164519.750000", "164519.750000", "164519.765000", "164519.765000", "164539.687000", "164539.703000", "164539.703000", "164539.703000", "164539.703000", "164539.703000", "164539.703000", "164539.718000", "164539.718000", "164539.718000", "164539.718000", "164539.718000", "164539.718000", "164539.718000", "164539.734000", "164539.734000", "164539.734000", "164539.734000", "164539.734000", "164539.734000", "164539.734000", "164539.750000", "164539.750000", "164539.750000", "164539.750000", "164559.687000", "164559.703000", "164559.703000", "164559.703000", "164559.703000", "164559.703000", "164559.703000", "164559.718000", "164559.718000", "164559.718000", "164559.718000", "164559.718000", "164559.718000", "164559.718000", "164559.734000", "164559.734000", "164559.734000", "164559.734000", "164559.734000", "164559.734000", "164559.750000", "164559.750000", "164559.750000", "164559.750000", "164559.750000", "164559.765000", "164619.687000", "164619.703000", "164619.703000", "164619.703000", "164619.703000", "164619.703000", "164619.703000", "164619.703000", "164619.718000", "164619.718000", "164619.718000", "164619.718000", "164619.718000", "164619.718000", "164619.718000", "164619.734000", "164619.734000", "164619.734000", "164619.734000", "164619.734000", "164619.734000", "164619.750000", "164619.750000", "164619.750000", "164619.750000", "164639.687000", "164639.703000", "164639.703000", "164639.703000", "164639.703000", "164639.703000", "164639.703000", "164639.718000", "164639.718000", "164639.718000", "164639.718000", "164639.718000", "164639.718000", "164639.718000", "164639.734000", "164639.734000", "164639.734000", "164639.734000", "164639.734000", "164639.734000", "164639.734000", "164639.750000", "164639.750000", "164639.750000", "164639.750000", "164639.750000", "164659.687000", "164659.703000", "164659.703000", "164659.703000", "164659.703000", "164659.703000", "164659.703000", "164659.718000", "164659.718000", "164659.718000", "164659.718000", "164659.718000", "164659.718000", "164659.718000", "164659.734000", "164659.734000", "164659.734000", "164659.734000", "164659.734000", "164659.734000", "164659.734000", "164659.750000", "164659.750000", "164659.750000", "164659.750000", "164719.687000", "164719.703000", "164719.703000", "164719.703000", "164719.703000", "164719.703000", "164719.703000", "164719.703000", "164719.718000", "164719.718000", "164719.718000", "164719.718000", "164719.718000", "164719.718000", "164719.718000", "164719.734000", "164719.734000", "164719.734000", "164719.734000", "164719.734000", "164719.734000", "164719.750000", "164719.750000", "164719.750000", "164719.750000", "164719.750000", "164738.437000", "164738.437000", "164738.437000", "164738.437000", "164738.437000", "164738.437000", "164738.453000", "164738.453000", "164738.453000", "164738.453000", "164738.453000", "164738.453000", "164738.468000", "164738.468000", "164738.468000", "164738.468000", "164738.468000", "164738.468000", "164738.468000", "164738.484000", "164738.484000", "164738.484000", "164738.484000", "164738.484000"],
      "DataSetTrailingPadding": [
        "\u0000\u0000\u0000\u0000\u0000\u0000\u0000\u0000\u0000\u0000\u0000\u0000\u0000\u0000\u0000\u0000\u0000\u0000\u0000\u0000\u0000\u0000\u0000\u0000\u0000\u0000\u0000\u0000\u0000\u0000\u0000\u0000\u0000\u0000\u0000\u0000\u0000\u0000\u0000\u0000\u0000\u0000\u0000\u0000\u0000\u0000\u0000\u0000\u0000\u0000\u0000\u0000\u0000\u0000\u0000\u0000\u0000\u0000\u0000\u0000\u0000\u0000\u0000\u0000\u0000\u0000\u0000\u0000\u0000\u0000\u0000\u0000\u0000\u0000\u0000\u0000\u0000\u0000\u0000\u0000\u0000\u0000\u0000\u0000\u0000\u0000\u0000\u0000\u0000\u0000\u0000\u0000\u0000\u0000\u0000\u0000\u0000\u0000\u0000\u0000\u0000\u0000\u0000\u0000\u0000\u0000\u0000\u0000\u0000\u0000\u0000\u0000\u0000\u0000\u0000\u0000\u0000\u0000\u0000\u0000",
        "\u0000\u0000\u0000\u0000\u0000\u0000\u0000\u0000\u0000\u0000\u0000\u0000\u0000\u0000\u0000\u0000\u0000\u0000\u0000\u0000\u0000\u0000\u0000\u0000\u0000\u0000\u0000\u0000\u0000\u0000\u0000\u0000\u0000\u0000\u0000\u0000\u0000\u0000\u0000\u0000\u0000\u0000\u0000\u0000\u0000\u0000\u0000\u0000\u0000\u0000\u0000\u0000\u0000\u0000\u0000\u0000\u0000\u0000\u0000\u0000\u0000\u0000\u0000\u0000\u0000\u0000\u0000\u0000\u0000\u0000\u0000\u0000\u0000\u0000\u0000\u0000\u0000\u0000\u0000\u0000\u0000\u0000\u0000\u0000\u0000\u0000\u0000\u0000\u0000\u0000\u0000\u0000\u0000\u0000\u0000\u0000\u0000\u0000\u0000\u0000\u0000\u0000\u0000\u0000\u0000\u0000\u0000\u0000\u0000\u0000\u0000\u0000\u0000\u0000\u0000\u0000\u0000\u0000",
