{
  "AcquisitionMatrixPE": 104,
  "AcquisitionNumber": 1,
  "AcquisitionTime": "16:23:22.737500",
  "BandwidthPerPixelPhaseEncode": 13.935,
  "BaseResolution": 104,
  "CoilString": "C:HEA;HEP",
  "ConversionSoftware": "dcm2niix",
  "ConversionSoftwareVersion": "v1.0.20210317",
  "DerivedVendorReportedEchoSpacing": 0.000690017,
  "DeviceSerialNumber": "35450",
  "DwellTime": 2.5e-06,
  "EchoTime": 0.0348,
  "EffectiveEchoSpacing": 0.000690017,
  "FlipAngle": 55,
  "ImageComments": "Unaliased MB8/PE3 (remote)",
  "ImageOrientationPatientDICOM": [0.999879, 0.00265218, 0.0153534, -6.90248e-09, 0.985406, -0.17022],
  "ImageType": [
    "ORIGINAL",
    "PRIMARY",
    "M",
    "MB",
    "ND",
    "MOSAIC"
],
  "ImagingFrequency": 123.234,
  "InPlanePhaseEncodingDirectionDICOM": "COL",
  "InstitutionAddress": "Univeristy Ave. 197,Newark,North East,US,07102-1814",
  "InstitutionName": "RUBIC",
  "InstitutionalDepartmentName": "Department",
  "MRAcquisitionType": "2D",
  "MagneticFieldStrength": 3,
  "Manufacturer": "Siemens",
  "ManufacturersModelName": "TrioTim",
  "Modality": "MR",
  "MultibandAccelerationFactor": 8,
  "PartialFourier": 0.875,
  "PatientPosition": "HFS",
  "PercentPhaseFOV": 100,
  "PercentSampling": 100,
  "PhaseEncodingDirection": "j-",
  "PhaseEncodingSteps": 91,
  "PhaseResolution": 1,
  "PixelBandwidth": 1923,
  "ProcedureStepDescription": "Cole^Michael",
  "ProtocolName": "cmrr_mbep2d_bold_2mm_MB8_Task_8x",
  "PulseSequenceDetails": "%CustomerSeq%\\cmrr_mbep2d_bold",
  "ReceiveCoilName": "32Ch_Head",
  "ReconMatrixPE": 104,
  "RepetitionTime": 0.785,
  "SAR": 0.11964,
  "ScanOptions": "PFP\\FS",
  "ScanningSequence": "EP",
  "SequenceName": "epfid2d1_104",
  "SequenceVariant": "SK\\SS",
  "SeriesDescription": "cmrr_mbep2d_bold_2mm_MB8_Task_8x",
  "SeriesNumber": 17,
  "ShimSetting": [2151, -408, -7173, 469, -37, 201, 321, 109],
  "SliceThickness": 2,
  "SliceTiming": [0, 0.4375, 0.0875, 0.525, 0.175, 0.6125, 0.2625, 0.7, 0.35, 0, 0.4375, 0.0875, 0.525, 0.175, 0.6125, 0.2625, 0.7, 0.35, 0, 0.4375, 0.0875, 0.525, 0.175, 0.6125, 0.2625, 0.7, 0.35, 0, 0.4375, 0.0875, 0.525, 0.175, 0.6125, 0.2625, 0.7, 0.35, 0, 0.4375, 0.0875, 0.525, 0.175, 0.6125, 0.2625, 0.7, 0.35, 0, 0.4375, 0.0875, 0.525, 0.175, 0.6125, 0.2625, 0.7, 0.35, 0, 0.4375, 0.0875, 0.525, 0.175, 0.6125, 0.2625, 0.7, 0.35, 0, 0.4375, 0.0875, 0.525, 0.175, 0.6125, 0.2625, 0.7, 0.35],
  "SoftwareVersions": "syngo MR B19",
  "SpacingBetweenSlices": 2,
  "StationName": "MRC35450",
  "TaskName": "cpro",
  "TotalReadoutTime": 0.0710717,
  "TxRefAmp": 317.941,
  "dcmmeta_affine": [
    [-1.999757170677185, -1.3804969611896922e-08, 0.031161658465862274, 101.60340881347656],
    [-0.005304355174303055, 1.9708120822906494, -0.3403989374637604, -70.68885803222656],
    [0.03070688433945179, 0.3404402434825897, 1.970572829246521, -109.22383880615234],
    [0.0, 0.0, 0.0, 1.0]
],
  "dcmmeta_reorient_transform": [
    [0.0, -1.0, 0.0, 103.0],
    [1.0, 0.0, 0.0, 0.0],
    [0.0, 0.0, 1.0, 0.0],
    [0.0, 0.0, 0.0, 1.0]
],
  "dcmmeta_shape": [104, 104, 72, 581],
  "dcmmeta_slice_dim": 2,
  "dcmmeta_version": 0.6,
  "global": {
    "const": {
      "AcquisitionMatrix": [104, 0, 0, 104],
      "AngioFlag": "N",
      "BitsAllocated": 16,
      "BitsStored": 12,
      "Columns": 936,
      "EchoNumbers": 1,
      "EchoTime": 34.8,
      "EchoTrainLength": 1,
      "FlipAngle": 55.0,
      "HighBit": 11,
      "ImageOrientationPatient": [0.99987861151022, 0.00265217758516, 0.01535344255999, -6.902485e-09, 0.98540606237706, -0.1702201287467],
      "ImagePositionPatient": [-933.50240484431, -954.36924836818, 54.690592721454],
      "ImageType": [
        "ORIGINAL",
        "PRIMARY",
        "M",
        "MB",
        "ND",
        "MOSAIC"
],
      "ImagedNucleus": "1H",
      "ImagingFrequency": 123.234425,
      "InPlanePhaseEncodingDirection": "COL",
      "MRAcquisitionType": "2D",
      "MagneticFieldStrength": 3.0,
      "Manufacturer": "SIEMENS",
      "ManufacturerModelName": "TrioTim",
      "Modality": "MR",
      "NumberOfAverages": 1.0,
      "NumberOfPhaseEncodingSteps": 91,
      "PercentPhaseFieldOfView": 100.0,
      "PercentSampling": 100.0,
      "PerformedProcedureStepStartTime": "150051.781000",
      "PhotometricInterpretation": "MONOCHROME2",
      "PixelBandwidth": 1923.0,
      "PixelRepresentation": 0,
      "PixelSpacing": [2.0, 2.0],
      "ProtocolName": "cmrr_mbep2d_bold_2mm_MB8_Task_8x",
      "RepetitionTime": 785.0,
      "Rows": 936,
      "SAR": 0.11963951386141,
      "SamplesPerPixel": 1,
      "ScanOptions": [
        "PFP",
        "FS"
],
      "ScanningSequence": "EP",
      "SequenceName": "epfid2d1_104",
      "SequenceVariant": [
        "SK",
        "SS"
],
      "SeriesDescription": "cmrr_mbep2d_bold_2mm_MB8_Task_8x",
      "SeriesNumber": 17,
      "SeriesTime": "162348.812000",
      "SliceLocation": -94.002494917273,
      "SliceThickness": 2.0,
      "SmallestImagePixelValue": 0,
      "SoftwareVersions": "syngo MR B19",
      "SpacingBetweenSlices": 1.9999999945614,
      "SpecificCharacterSet": "ISO_IR 100",
      "StudyID": "1",
      "StudyTime": "150051.750000",
      "TransmitCoilName": "Body",
      "VariableFlipAngleFlag": "N",
      "WindowCenterWidthExplanation": "Algo1",
      "dBdt": 0.0},
    "slices": {}
  },
  "time": {
    "samples": {
      "AcquisitionNumber": [1, 2, 3, 4, 5, 6, 7, 8, 9, 10, 11, 12, 13, 14, 15, 16, 17, 18, 19, 20, 21, 22, 23, 24, 25, 26, 27, 28, 29, 30, 31, 32, 33, 34, 35, 36, 37, 38, 39, 40, 41, 42, 43, 44, 45, 46, 47, 48, 49, 50, 51, 52, 53, 54, 55, 56, 57, 58, 59, 60, 61, 62, 63, 64, 65, 66, 67, 68, 69, 70, 71, 72, 73, 74, 75, 76, 77, 78, 79, 80, 81, 82, 83, 84, 85, 86, 87, 88, 89, 90, 91, 92, 93, 94, 95, 96, 97, 98, 99, 100, 101, 102, 103, 104, 105, 106, 107, 108, 109, 110, 111, 112, 113, 114, 115, 116, 117, 118, 119, 120, 121, 122, 123, 124, 125, 126, 127, 128, 129, 130, 131, 132, 133, 134, 135, 136, 137, 138, 139, 140, 141, 142, 143, 144, 145, 146, 147, 148, 149, 150, 151, 152, 153, 154, 155, 156, 157, 158, 159, 160, 161, 162, 163, 164, 165, 166, 167, 168, 169, 170, 171, 172, 173, 174, 175, 176, 177, 178, 179, 180, 181, 182, 183, 184, 185, 186, 187, 188, 189, 190, 191, 192, 193, 194, 195, 196, 197, 198, 199, 200, 201, 202, 203, 204, 205, 206, 207, 208, 209, 210, 211, 212, 213, 214, 215, 216, 217, 218, 219, 220, 221, 222, 223, 224, 225, 226, 227, 228, 229, 230, 231, 232, 233, 234, 235, 236, 237, 238, 239, 240, 241, 242, 243, 244, 245, 246, 247, 248, 249, 250, 251, 252, 253, 254, 255, 256, 257, 258, 259, 260, 261, 262, 263, 264, 265, 266, 267, 268, 269, 270, 271, 272, 273, 274, 275, 276, 277, 278, 279, 280, 281, 282, 283, 284, 285, 286, 287, 288, 289, 290, 291, 292, 293, 294, 295, 296, 297, 298, 299, 300, 301, 302, 303, 304, 305, 306, 307, 308, 309, 310, 311, 312, 313, 314, 315, 316, 317, 318, 319, 320, 321, 322, 323, 324, 325, 326, 327, 328, 329, 330, 331, 332, 333, 334, 335, 336, 337, 338, 339, 340, 341, 342, 343, 344, 345, 346, 347, 348, 349, 350, 351, 352, 353, 354, 355, 356, 357, 358, 359, 360, 361, 362, 363, 364, 365, 366, 367, 368, 369, 370, 371, 372, 373, 374, 375, 376, 377, 378, 379, 380, 381, 382, 383, 384, 385, 386, 387, 388, 389, 390, 391, 392, 393, 394, 395, 396, 397, 398, 399, 400, 401, 402, 403, 404, 405, 406, 407, 408, 409, 410, 411, 412, 413, 414, 415, 416, 417, 418, 419, 420, 421, 422, 423, 424, 425, 426, 427, 428, 429, 430, 431, 432, 433, 434, 435, 436, 437, 438, 439, 440, 441, 442, 443, 444, 445, 446, 447, 448, 449, 450, 451, 452, 453, 454, 455, 456, 457, 458, 459, 460, 461, 462, 463, 464, 465, 466, 467, 468, 469, 470, 471, 472, 473, 474, 475, 476, 477, 478, 479, 480, 481, 482, 483, 484, 485, 486, 487, 488, 489, 490, 491, 492, 493, 494, 495, 496, 497, 498, 499, 500, 501, 502, 503, 504, 505, 506, 507, 508, 509, 510, 511, 512, 513, 514, 515, 516, 517, 518, 519, 520, 521, 522, 523, 524, 525, 526, 527, 528, 529, 530, 531, 532, 533, 534, 535, 536, 537, 538, 539, 540, 541, 542, 543, 544, 545, 546, 547, 548, 549, 550, 551, 552, 553, 554, 555, 556, 557, 558, 559, 560, 561, 562, 563, 564, 565, 566, 567, 568, 569, 570, 571, 572, 573, 574, 575, 576, 577, 578, 579, 580, 581],
      "AcquisitionTime": ["162322.737500", "162323.525000", "162324.312500", "162325.100000", "162325.890000", "162326.677500", "162327.465000", "162328.252500", "162329.042500", "162329.830000", "162330.617500", "162331.405000", "162332.195000", "162332.982500", "162333.770000", "162334.560000", "162335.347500", "162336.135000", "162336.922500", "162337.712500", "162338.500000", "162339.287500", "162340.075000", "162340.865000", "162341.652500", "162342.440000", "162343.227500", "162344.017500", "162344.805000", "162345.592500", "162346.380000", "162347.170000", "162347.957500", "162348.745000", "162349.532500", "162350.322500", "162351.110000", "162351.897500", "162352.687500", "162353.475000", "162354.262500", "162355.050000", "162355.840000", "162356.627500", "162357.415000", "162358.202500", "162358.992500", "162359.780000", "162400.567500", "162401.355000", "162402.145000", "162402.932500", "162403.720000", "162404.507500", "162405.297500", "162406.085000", "162406.872500", "162407.660000", "162408.450000", "162409.237500", "162410.025000", "162410.815000", "162411.602500", "162412.390000", "162413.177500", "162413.967500", "162414.755000", "162415.542500", "162416.330000", "162417.120000", "162417.907500", "162418.695000", "162419.482500", "162420.272500", "162421.060000", "162421.847500", "162422.635000", "162423.425000", "162424.212500", "162425.000000", "162425.787500", "162426.577500", "162427.365000", "162428.152500", "162428.942500", "162429.730000", "162430.517500", "162431.305000", "162432.095000", "162432.882500", "162433.670000", "162434.457500", "162435.247500", "162436.035000", "162436.822500", "162437.610000", "162438.400000", "162439.187500", "162439.975000", "162440.762500", "162441.552500", "162442.340000", "162443.127500", "162443.915000", "162444.705000", "162445.492500", "162446.280000", "162447.070000", "162447.857500", "162448.645000", "162449.432500", "162450.222500", "162451.010000", "162451.797500", "162452.585000", "162453.375000", "162454.162500", "162454.950000", "162455.737500", "162456.527500", "162457.315000", "162458.102500", "162458.890000", "162459.680000", "162500.467500", "162501.255000", "162502.042500", "162502.832500", "162503.620000", "162504.407500", "162505.197500", "162505.985000", "162506.772500", "162507.560000", "162508.350000", "162509.137500", "162509.925000", "162510.712500", "162511.502500", "162512.290000", "162513.077500", "162513.865000", "162514.655000", "162515.442500", "162516.230000", "162517.017500", "162517.807500", "162518.595000", "162519.382500", "162520.170000", "162520.960000", "162521.747500", "162522.535000", "162523.325000", "162524.112500", "162524.900000", "162525.687500", "162526.477500", "162527.265000", "162528.052500", "162528.840000", "162529.630000", "162530.417500", "162531.205000", "162531.992500", "162532.782500", "162533.570000", "162534.357500", "162535.145000", "162535.935000", "162536.722500", "162537.510000", "162538.297500", "162539.087500", "162539.875000", "162540.662500", "162541.452500", "162542.240000", "162543.027500", "162543.815000", "162544.605000", "162545.392500", "162546.180000", "162546.967500", "162547.757500", "162548.545000", "162549.332500", "162550.120000", "162550.910000", "162551.697500", "162552.485000", "162553.272500", "162554.062500", "162554.850000", "162555.637500", "162556.425000", "162557.215000", "162558.002500", "162558.790000", "162559.580000", "162600.367500", "162601.155000", "162601.942500", "162602.732500", "162603.520000", "162604.307500", "162605.095000", "162605.885000", "162606.672500", "162607.460000", "162608.247500", "162609.037500", "162609.825000", "162610.612500", "162611.400000", "162612.190000", "162612.977500", "162613.765000", "162614.555000", "162615.342500", "162616.130000", "162616.917500", "162617.707500", "162618.495000", "162619.282500", "162620.070000", "162620.860000", "162621.647500", "162622.435000", "162623.222500", "162624.012500", "162624.800000", "162625.587500", "162626.375000", "162627.165000", "162627.952500", "162628.740000", "162629.527500", "162630.317500", "162631.105000", "162631.892500", "162632.682500", "162633.470000", "162634.257500", "162635.045000", "162635.835000", "162636.622500", "162637.410000", "162638.197500", "162638.987500", "162639.775000", "162640.562500", "162641.350000", "162642.140000", "162642.927500", "162643.715000", "162644.502500", "162645.292500", "162646.080000", "162646.867500", "162647.655000", "162648.445000", "162649.232500", "162650.020000", "162650.810000", "162651.597500", "162652.385000", "162653.172500", "162653.962500", "162654.750000", "162655.537500", "162656.325000", "162657.115000", "162657.902500", "162658.690000", "162659.477500", "162700.267500", "162701.055000", "162701.842500", "162702.630000", "162703.420000", "162704.207500", "162704.995000", "162705.782500", "162706.572500", "162707.360000", "162708.147500", "162708.937500", "162709.725000", "162710.512500", "162711.300000", "162712.090000", "162712.877500", "162713.665000", "162714.452500", "162715.242500", "162716.030000", "162716.817500", "162717.605000", "162718.395000", "162719.182500", "162719.970000", "162720.757500", "162721.547500", "162722.335000", "162723.122500", "162723.910000", "162724.700000", "162725.487500", "162726.275000", "162727.065000", "162727.852500", "162728.640000", "162729.427500", "162730.217500", "162731.005000", "162731.792500", "162732.580000", "162733.370000", "162734.157500", "162734.945000", "162735.732500", "162736.522500", "162737.310000", "162738.097500", "162738.885000", "162739.675000", "162740.462500", "162741.250000", "162742.037500", "162742.827500", "162743.615000", "162744.402500", "162745.192500", "162745.980000", "162746.767500", "162747.555000", "162748.345000", "162749.132500", "162749.920000", "162750.707500", "162751.497500", "162752.285000", "162753.072500", "162753.860000", "162754.650000", "162755.437500", "162756.225000", "162757.012500", "162757.802500", "162758.590000", "162759.377500", "162800.165000", "162800.955000", "162801.742500", "162802.530000", "162803.320000", "162804.107500", "162804.895000", "162805.682500", "162806.472500", "162807.260000", "162808.047500", "162808.835000", "162809.625000", "162810.412500", "162811.200000", "162811.987500", "162812.777500", "162813.565000", "162814.352500", "162815.140000", "162815.930000", "162816.717500", "162817.505000", "162818.292500", "162819.082500", "162819.870000", "162820.657500", "162821.447500", "162822.235000", "162823.022500", "162823.810000", "162824.600000", "162825.387500", "162826.175000", "162826.962500", "162827.752500", "162828.540000", "162829.327500", "162830.115000", "162830.905000", "162831.692500", "162832.480000", "162833.267500", "162834.057500", "162834.845000", "162835.632500", "162836.420000", "162837.210000", "162837.997500", "162838.785000", "162839.575000", "162840.362500", "162841.150000", "162841.937500", "162842.727500", "162843.515000", "162844.302500", "162845.090000", "162845.880000", "162846.667500", "162847.455000", "162848.242500", "162849.032500", "162849.820000", "162850.607500", "162851.395000", "162852.185000", "162852.972500", "162853.760000", "162854.547500", "162855.337500", "162856.125000", "162856.912500", "162857.702500", "162858.490000", "162859.277500", "162900.065000", "162900.855000", "162901.642500", "162902.430000", "162903.217500", "162904.007500", "162904.795000", "162905.582500", "162906.370000", "162907.160000", "162907.947500", "162908.735000", "162909.522500", "162910.312500", "162911.100000", "162911.887500", "162912.675000", "162913.465000", "162914.252500", "162915.040000", "162915.830000", "162916.617500", "162917.405000", "162918.192500", "162918.982500", "162919.770000", "162920.557500", "162921.345000", "162922.135000", "162922.922500", "162923.710000", "162924.497500", "162925.287500", "162926.075000", "162926.862500", "162927.650000", "162928.440000", "162929.227500", "162930.015000", "162930.805000", "162931.592500", "162932.380000", "162933.167500", "162933.957500", "162934.745000", "162935.532500", "162936.320000", "162937.110000", "162937.897500", "162938.685000", "162939.472500", "162940.262500", "162941.050000", "162941.837500", "162942.625000", "162943.415000", "162944.202500", "162944.990000", "162945.777500", "162946.567500", "162947.355000", "162948.142500", "162948.932500", "162949.720000", "162950.507500", "162951.295000", "162952.085000", "162952.872500", "162953.660000", "162954.447500", "162955.237500", "162956.025000", "162956.812500", "162957.600000", "162958.390000", "162959.177500", "162959.965000", "163000.752500", "163001.542500", "163002.330000", "163003.117500", "163003.905000", "163004.695000", "163005.482500", "163006.270000", "163007.060000", "163007.847500", "163008.635000", "163009.422500", "163010.212500", "163011.000000", "163011.787500", "163012.575000", "163013.365000", "163014.152500", "163014.940000", "163015.727500", "163016.517500", "163017.305000", "163018.092500", "163018.880000", "163019.670000", "163020.457500", "163021.245000", "163022.032500", "163022.822500", "163023.610000", "163024.397500", "163025.187500", "163025.975000", "163026.762500", "163027.550000", "163028.340000", "163029.127500", "163029.915000", "163030.702500", "163031.492500", "163032.280000", "163033.067500", "163033.855000", "163034.645000", "163035.432500", "163036.220000", "163037.007500", "163037.797500", "163038.585000", "163039.372500", "163040.160000", "163040.950000", "163041.737500", "163042.525000", "163043.315000", "163044.102500", "163044.890000", "163045.677500", "163046.467500", "163047.255000", "163048.042500", "163048.830000", "163049.620000", "163050.407500", "163051.195000", "163051.982500", "163052.772500", "163053.560000", "163054.347500", "163055.135000", "163055.925000", "163056.712500", "163057.500000", "163058.287500", "163059.077500", "163059.865000"],
      "ContentTime": ["162348.812000", "162348.812000", "162348.812000", "162348.812000", "162348.828000", "162348.828000", "162348.828000", "162348.828000", "162348.828000", "162348.828000", "162348.843000", "162348.843000", "162348.843000", "162348.843000", "162348.843000", "162348.843000", "162348.843000", "162348.859000", "162348.859000", "162348.859000", "162348.859000", "162348.859000", "162348.859000", "162348.859000", "162348.875000", "162348.875000", "162348.875000", "162348.875000", "162348.875000", "162348.875000", "162408.781000", "162408.796000", "162408.796000", "162408.796000", "162408.796000", "162408.796000", "162408.796000", "162408.812000", "162408.812000", "162408.812000", "162408.812000", "162408.812000", "162408.828000", "162408.828000", "162408.828000", "162408.828000", "162408.828000", "162408.828000", "162408.828000", "162408.843000", "162408.843000", "162408.843000", "162408.843000", "162408.843000", "162408.843000", "162408.843000", "162428.781000", "162428.796000", "162428.796000", "162428.796000", "162428.796000", "162428.796000", "162428.812000", "162428.812000", "162428.812000", "162428.812000", "162428.812000", "162428.812000", "162428.812000", "162428.828000", "162428.828000", "162428.828000", "162428.828000", "162428.828000", "162428.828000", "162428.843000", "162428.843000", "162428.843000", "162428.843000", "162428.843000", "162428.843000", "162448.781000", "162448.796000", "162448.796000", "162448.796000", "162448.796000", "162448.812000", "162448.812000", "162448.812000", "162448.812000", "162448.812000", "162448.812000", "162448.812000", "162448.828000", "162448.828000", "162448.828000", "162448.828000", "162448.828000", "162448.828000", "162448.828000", "162448.843000", "162448.843000", "162448.843000", "162448.843000", "162448.843000", "162448.843000", "162448.859000", "162508.781000", "162508.796000", "162508.796000", "162508.796000", "162508.796000", "162508.796000", "162508.812000", "162508.812000", "162508.812000", "162508.812000", "162508.812000", "162508.812000", "162508.828000", "162508.828000", "162508.828000", "162508.828000", "162508.828000", "162508.828000", "162508.843000", "162508.843000", "162508.843000", "162508.843000", "162508.843000", "162508.843000", "162508.859000", "162528.781000", "162528.796000", "162528.796000", "162528.796000", "162528.796000", "162528.796000", "162528.796000", "162528.812000", "162528.812000", "162528.812000", "162528.812000", "162528.812000", "162528.812000", "162528.812000", "162528.828000", "162528.828000", "162528.828000", "162528.828000", "162528.828000", "162528.828000", "162528.843000", "162528.843000", "162528.843000", "162528.843000", "162528.843000", "162528.859000", "162548.781000", "162548.796000", "162548.796000", "162548.796000", "162548.796000", "162548.796000", "162548.812000", "162548.812000", "162548.812000", "162548.812000", "162548.812000", "162548.812000", "162548.812000", "162548.828000", "162548.828000", "162548.828000", "162548.828000", "162548.828000", "162548.828000", "162548.843000", "162548.843000", "162548.843000", "162548.843000", "162548.843000", "162548.843000", "162608.781000", "162608.796000", "162608.796000", "162608.796000", "162608.812000", "162608.812000", "162608.812000", "162608.812000", "162608.828000", "162608.828000", "162608.828000", "162608.828000", "162608.843000", "162608.843000", "162608.843000", "162608.843000", "162608.843000", "162608.843000", "162608.843000", "162608.859000", "162608.859000", "162608.859000", "162608.859000", "162608.859000", "162608.859000", "162628.781000", "162628.796000", "162628.796000", "162628.796000", "162628.796000", "162628.796000", "162628.796000", "162628.812000", "162628.812000", "162628.812000", "162628.812000", "162628.812000", "162628.812000", "162628.812000", "162628.828000", "162628.828000", "162628.828000", "162628.828000", "162628.828000", "162628.828000", "162628.843000", "162628.843000", "162628.843000", "162628.843000", "162628.843000", "162628.843000", "162648.781000", "162648.796000", "162648.796000", "162648.796000", "162648.796000", "162648.796000", "162648.812000", "162648.812000", "162648.812000", "162648.812000", "162648.812000", "162648.812000", "162648.812000", "162648.828000", "162648.828000", "162648.828000", "162648.828000", "162648.828000", "162648.828000", "162648.843000", "162648.843000", "162648.843000", "162648.843000", "162648.843000", "162648.843000", "162708.781000", "162708.796000", "162708.796000", "162708.796000", "162708.796000", "162708.796000", "162708.796000", "162708.812000", "162708.812000", "162708.812000", "162708.812000", "162708.812000", "162708.812000", "162708.812000", "162708.828000", "162708.828000", "162708.828000", "162708.828000", "162708.828000", "162708.828000", "162708.843000", "162708.859000", "162708.859000", "162708.859000", "162708.859000", "162708.859000", "162728.781000", "162728.796000", "162728.796000", "162728.796000", "162728.796000", "162728.796000", "162728.796000", "162728.796000", "162728.812000", "162728.812000", "162728.812000", "162728.812000", "162728.812000", "162728.828000", "162728.828000", "162728.828000", "162728.828000", "162728.828000", "162728.828000", "162728.843000", "162728.843000", "162728.843000", "162728.843000", "162728.843000", "162728.859000", "162748.781000", "162748.796000", "162748.796000", "162748.796000", "162748.796000", "162748.796000", "162748.796000", "162748.812000", "162748.812000", "162748.812000", "162748.812000", "162748.812000", "162748.812000", "162748.812000", "162748.828000", "162748.828000", "162748.828000", "162748.828000", "162748.828000", "162748.828000", "162748.828000", "162748.843000", "162748.843000", "162748.843000", "162748.843000", "162748.859000", "162808.781000", "162808.796000", "162808.796000", "162808.796000", "162808.796000", "162808.796000", "162808.796000", "162808.812000", "162808.812000", "162808.812000", "162808.812000", "162808.812000", "162808.812000", "162808.828000", "162808.828000", "162808.828000", "162808.828000", "162808.828000", "162808.843000", "162808.843000", "162808.843000", "162808.843000", "162808.843000", "162808.843000", "162808.843000", "162828.781000", "162828.796000", "162828.796000", "162828.796000", "162828.796000", "162828.796000", "162828.796000", "162828.812000", "162828.812000", "162828.812000", "162828.812000", "162828.812000", "162828.812000", "162828.812000", "162828.828000", "162828.828000", "162828.828000", "162828.828000", "162828.828000", "162828.828000", "162828.828000", "162828.843000", "162828.843000", "162828.843000", "162828.843000", "162828.843000", "162848.781000", "162848.796000", "162848.796000", "162848.796000", "162848.796000", "162848.796000", "162848.796000", "162848.812000", "162848.812000", "162848.812000", "162848.812000", "162848.812000", "162848.812000", "162848.812000", "162848.828000", "162848.828000", "162848.828000", "162848.828000", "162848.828000", "162848.828000", "162848.828000", "162848.843000", "162848.843000", "162848.843000", "162848.843000", "162908.781000", "162908.796000", "162908.796000", "162908.796000", "162908.796000", "162908.796000", "162908.796000", "162908.812000", "162908.812000", "162908.812000", "162908.812000", "162908.812000", "162908.812000", "162908.812000", "162908.828000", "162908.828000", "162908.828000", "162908.828000", "162908.828000", "162908.828000", "162908.828000", "162908.843000", "162908.843000", "162908.843000", "162908.843000", "162908.843000", "162928.781000", "162928.796000", "162928.796000", "162928.796000", "162928.796000", "162928.796000", "162928.796000", "162928.812000", "162928.812000", "162928.812000", "162928.812000", "162928.812000", "162928.828000", "162928.828000", "162928.828000", "162928.828000", "162928.828000", "162928.828000", "162928.828000", "162928.843000", "162928.843000", "162928.843000", "162928.843000", "162928.843000", "162928.843000", "162948.781000", "162948.796000", "162948.796000", "162948.796000", "162948.796000", "162948.796000", "162948.796000", "162948.812000", "162948.812000", "162948.812000", "162948.812000", "162948.812000", "162948.812000", "162948.812000", "162948.828000", "162948.828000", "162948.828000", "162948.828000", "162948.828000", "162948.828000", "162948.828000", "162948.843000", "162948.843000", "162948.843000", "162948.843000", "162948.843000", "163008.781000", "163008.796000", "163008.796000", "163008.796000", "163008.796000", "163008.796000", "163008.796000", "163008.812000", "163008.812000", "163008.812000", "163008.812000", "163008.812000", "163008.812000", "163008.812000", "163008.828000", "163008.828000", "163008.828000", "163008.828000", "163008.828000", "163008.828000", "163008.828000", "163008.843000", "163008.843000", "163008.843000", "163008.843000", "163028.781000", "163028.796000", "163028.796000", "163028.796000", "163028.796000", "163028.796000", "163028.796000", "163028.812000", "163028.812000", "163028.812000", "163028.812000", "163028.812000", "163028.812000", "163028.812000", "163028.828000", "163028.828000", "163028.828000", "163028.828000", "163028.828000", "163028.828000", "163028.828000", "163028.843000", "163028.843000", "163028.843000", "163028.843000", "163028.843000", "163048.781000", "163048.796000", "163048.796000", "163048.796000", "163048.796000", "163048.796000", "163048.812000", "163048.812000", "163048.812000", "163048.812000", "163048.812000", "163048.812000", "163048.812000", "163048.828000", "163048.828000", "163048.828000", "163048.828000", "163048.828000", "163048.828000", "163048.828000", "163048.843000", "163048.843000", "163048.843000", "163048.843000", "163048.843000", "163100.875000", "163100.875000", "163100.875000", "163100.890000", "163100.890000", "163100.890000", "163100.890000", "163100.890000", "163100.890000", "163100.890000", "163100.906000", "163100.906000", "163100.906000", "163100.906000", "163100.906000", "163100.906000"],
      "DataSetTrailingPadding": [
        "\u0000\u0000\u0000\u0000\u0000\u0000\u0000\u0000\u0000\u0000\u0000\u0000\u0000\u0000\u0000\u0000\u0000\u0000\u0000\u0000\u0000\u0000\u0000\u0000\u0000\u0000\u0000\u0000\u0000\u0000\u0000\u0000\u0000\u0000\u0000\u0000\u0000\u0000\u0000\u0000\u0000\u0000\u0000\u0000\u0000\u0000\u0000\u0000\u0000\u0000\u0000\u0000\u0000\u0000\u0000\u0000\u0000\u0000\u0000\u0000\u0000\u0000\u0000\u0000\u0000\u0000\u0000\u0000\u0000\u0000\u0000\u0000\u0000\u0000\u0000\u0000\u0000\u0000\u0000\u0000\u0000\u0000\u0000\u0000\u0000\u0000\u0000\u0000\u0000\u0000\u0000\u0000\u0000\u0000\u0000\u0000\u0000\u0000\u0000\u0000\u0000\u0000\u0000\u0000\u0000\u0000\u0000\u0000\u0000\u0000\u0000\u0000\u0000\u0000\u0000\u0000\u0000\u0000\u0000\u0000\u0000\u0000",
        "\u0000\u0000\u0000\u0000\u0000\u0000\u0000\u0000\u0000\u0000\u0000\u0000\u0000\u0000\u0000\u0000\u0000\u0000\u0000\u0000\u0000\u0000\u0000\u0000\u0000\u0000\u0000\u0000\u0000\u0000\u0000\u0000\u0000\u0000\u0000\u0000\u0000\u0000\u0000\u0000\u0000\u0000\u0000\u0000\u0000\u0000\u0000\u0000\u0000\u0000\u0000\u0000\u0000\u0000\u0000\u0000\u0000\u0000\u0000\u0000\u0000\u0000\u0000\u0000\u0000\u0000\u0000\u0000\u0000\u0000\u0000\u0000\u0000\u0000\u0000\u0000\u0000\u0000\u0000\u0000\u0000\u0000\u0000\u0000\u0000\u0000\u0000\u0000\u0000\u0000\u0000\u0000\u0000\u0000\u0000\u0000\u0000\u0000\u0000\u0000\u0000\u0000\u0000\u0000\u0000\u0000\u0000\u0000\u0000\u0000\u0000\u0000\u0000\u0000\u0000\u0000\u0000\u0000",
