{
  "AcquisitionMatrixPE": 104,
  "AcquisitionNumber": 1,
  "AcquisitionTime": "16:07:18.135000",
  "BandwidthPerPixelPhaseEncode": 13.935,
  "BaseResolution": 104,
  "CoilString": "C:HEA;HEP",
  "ConversionSoftware": "dcm2niix",
  "ConversionSoftwareVersion": "v1.0.20210317",
  "DerivedVendorReportedEchoSpacing": 0.000690017,
  "DeviceSerialNumber": "35450",
  "DwellTime": 2.5e-06,
  "EchoTime": 0.0348,
  "EffectiveEchoSpacing": 0.000690017,
  "FlipAngle": 55,
  "ImageComments": "Unaliased MB8/PE3 (remote)",
  "ImageOrientationPatientDICOM": [0.999879, 0.00265218, 0.0153534, -6.90248e-09, 0.985406, -0.17022],
  "ImageType": [
    "ORIGINAL",
    "PRIMARY",
    "M",
    "MB",
    "ND",
    "MOSAIC"
],
  "ImagingFrequency": 123.234,
  "InPlanePhaseEncodingDirectionDICOM": "COL",
  "InstitutionAddress": "Univeristy Ave. 197,Newark,North East,US,07102-1814",
  "InstitutionName": "RUBIC",
  "InstitutionalDepartmentName": "Department",
  "MRAcquisitionType": "2D",
  "MagneticFieldStrength": 3,
  "Manufacturer": "Siemens",
  "ManufacturersModelName": "TrioTim",
  "Modality": "MR",
  "MultibandAccelerationFactor": 8,
  "PartialFourier": 0.875,
  "PatientPosition": "HFS",
  "PercentPhaseFOV": 100,
  "PercentSampling": 100,
  "PhaseEncodingDirection": "j-",
  "PhaseEncodingSteps": 91,
  "PhaseResolution": 1,
  "PixelBandwidth": 1923,
  "ProcedureStepDescription": "Cole^Michael",
  "ProtocolName": "cmrr_mbep2d_bold_2mm_MB8_Task_8x",
  "PulseSequenceDetails": "%CustomerSeq%\\cmrr_mbep2d_bold",
  "ReceiveCoilName": "32Ch_Head",
  "ReconMatrixPE": 104,
  "RepetitionTime": 0.785,
  "SAR": 0.138877,
  "ScanOptions": "PFP\\FS",
  "ScanningSequence": "EP",
  "SequenceName": "epfid2d1_104",
  "SequenceVariant": "SK\\SS",
  "SeriesDescription": "cmrr_mbep2d_bold_2mm_MB8_Task_8x",
  "SeriesNumber": 13,
  "ShimSetting": [2151, -408, -7173, 469, -37, 201, 321, 109],
  "SliceThickness": 2,
  "SliceTiming": [0, 0.4375, 0.0875, 0.525, 0.175, 0.6125, 0.2625, 0.7, 0.35, 0, 0.4375, 0.0875, 0.525, 0.175, 0.6125, 0.2625, 0.7, 0.35, 0, 0.4375, 0.0875, 0.525, 0.175, 0.6125, 0.2625, 0.7, 0.35, 0, 0.4375, 0.0875, 0.525, 0.175, 0.6125, 0.2625, 0.7, 0.35, 0, 0.4375, 0.0875, 0.525, 0.175, 0.6125, 0.2625, 0.7, 0.35, 0, 0.4375, 0.0875, 0.525, 0.175, 0.6125, 0.2625, 0.7, 0.35, 0, 0.4375, 0.0875, 0.525, 0.175, 0.6125, 0.2625, 0.7, 0.35, 0, 0.4375, 0.0875, 0.525, 0.175, 0.6125, 0.2625, 0.7, 0.35],
  "SoftwareVersions": "syngo MR B19",
  "SpacingBetweenSlices": 2,
  "StationName": "MRC35450",
  "TaskName": "cpro",
  "TotalReadoutTime": 0.0710717,
  "TxRefAmp": 317.941,
  "dcmmeta_affine": [
    [-1.999757170677185, -1.3804969611896922e-08, 0.031161658465862274, 101.60340881347656],
    [-0.005304355174303055, 1.9708120822906494, -0.3403989374637604, -70.68885803222656],
    [0.03070688433945179, 0.3404402434825897, 1.970572829246521, -109.22383880615234],
    [0.0, 0.0, 0.0, 1.0]
],
  "dcmmeta_reorient_transform": [
    [0.0, -1.0, 0.0, 103.0],
    [1.0, 0.0, 0.0, 0.0],
    [0.0, 0.0, 1.0, 0.0],
    [0.0, 0.0, 0.0, 1.0]
],
  "dcmmeta_shape": [104, 104, 72, 581],
  "dcmmeta_slice_dim": 2,
  "dcmmeta_version": 0.6,
  "global": {
    "const": {
      "AcquisitionMatrix": [104, 0, 0, 104],
      "AngioFlag": "N",
      "BitsAllocated": 16,
      "BitsStored": 12,
      "Columns": 936,
      "EchoNumbers": 1,
      "EchoTime": 34.8,
      "EchoTrainLength": 1,
      "FlipAngle": 55.0,
      "HighBit": 11,
      "ImageOrientationPatient": [0.99987861151022, 0.00265217758516, 0.01535344255999, -6.902485e-09, 0.98540606237706, -0.1702201287467],
      "ImagePositionPatient": [-933.50240484431, -954.36924836818, 54.690592721454],
      "ImageType": [
        "ORIGINAL",
        "PRIMARY",
        "M",
        "MB",
        "ND",
        "MOSAIC"
],
      "ImagedNucleus": "1H",
      "ImagingFrequency": 123.234425,
      "InPlanePhaseEncodingDirection": "COL",
      "MRAcquisitionType": "2D",
      "MagneticFieldStrength": 3.0,
      "Manufacturer": "SIEMENS",
      "ManufacturerModelName": "TrioTim",
      "Modality": "MR",
      "NumberOfAverages": 1.0,
      "NumberOfPhaseEncodingSteps": 91,
      "PercentPhaseFieldOfView": 100.0,
      "PercentSampling": 100.0,
      "PerformedProcedureStepStartTime": "150051.781000",
      "PhotometricInterpretation": "MONOCHROME2",
      "PixelBandwidth": 1923.0,
      "PixelRepresentation": 0,
      "PixelSpacing": [2.0, 2.0],
      "ProtocolName": "cmrr_mbep2d_bold_2mm_MB8_Task_8x",
      "RepetitionTime": 785.0,
      "Rows": 936,
      "SAR": 0.13887672342607,
      "SamplesPerPixel": 1,
      "ScanOptions": [
        "PFP",
        "FS"
],
      "ScanningSequence": "EP",
      "SequenceName": "epfid2d1_104",
      "SequenceVariant": [
        "SK",
        "SS"
],
      "SeriesDescription": "cmrr_mbep2d_bold_2mm_MB8_Task_8x",
      "SeriesNumber": 13,
      "SeriesTime": "160734.140000",
      "SliceLocation": -94.002494917273,
      "SliceThickness": 2.0,
      "SmallestImagePixelValue": 0,
      "SoftwareVersions": "syngo MR B19",
      "SpacingBetweenSlices": 1.9999999945614,
      "SpecificCharacterSet": "ISO_IR 100",
      "StudyID": "1",
      "StudyTime": "150051.750000",
      "TransmitCoilName": "Body",
      "VariableFlipAngleFlag": "N",
      "WindowCenterWidthExplanation": "Algo1",
      "dBdt": 0.0},
    "slices": {}
  },
  "time": {
    "samples": {
      "AcquisitionNumber": [1, 2, 3, 4, 5, 6, 7, 8, 9, 10, 11, 12, 13, 14, 15, 16, 17, 18, 19, 20, 21, 22, 23, 24, 25, 26, 27, 28, 29, 30, 31, 32, 33, 34, 35, 36, 37, 38, 39, 40, 41, 42, 43, 44, 45, 46, 47, 48, 49, 50, 51, 52, 53, 54, 55, 56, 57, 58, 59, 60, 61, 62, 63, 64, 65, 66, 67, 68, 69, 70, 71, 72, 73, 74, 75, 76, 77, 78, 79, 80, 81, 82, 83, 84, 85, 86, 87, 88, 89, 90, 91, 92, 93, 94, 95, 96, 97, 98, 99, 100, 101, 102, 103, 104, 105, 106, 107, 108, 109, 110, 111, 112, 113, 114, 115, 116, 117, 118, 119, 120, 121, 122, 123, 124, 125, 126, 127, 128, 129, 130, 131, 132, 133, 134, 135, 136, 137, 138, 139, 140, 141, 142, 143, 144, 145, 146, 147, 148, 149, 150, 151, 152, 153, 154, 155, 156, 157, 158, 159, 160, 161, 162, 163, 164, 165, 166, 167, 168, 169, 170, 171, 172, 173, 174, 175, 176, 177, 178, 179, 180, 181, 182, 183, 184, 185, 186, 187, 188, 189, 190, 191, 192, 193, 194, 195, 196, 197, 198, 199, 200, 201, 202, 203, 204, 205, 206, 207, 208, 209, 210, 211, 212, 213, 214, 215, 216, 217, 218, 219, 220, 221, 222, 223, 224, 225, 226, 227, 228, 229, 230, 231, 232, 233, 234, 235, 236, 237, 238, 239, 240, 241, 242, 243, 244, 245, 246, 247, 248, 249, 250, 251, 252, 253, 254, 255, 256, 257, 258, 259, 260, 261, 262, 263, 264, 265, 266, 267, 268, 269, 270, 271, 272, 273, 274, 275, 276, 277, 278, 279, 280, 281, 282, 283, 284, 285, 286, 287, 288, 289, 290, 291, 292, 293, 294, 295, 296, 297, 298, 299, 300, 301, 302, 303, 304, 305, 306, 307, 308, 309, 310, 311, 312, 313, 314, 315, 316, 317, 318, 319, 320, 321, 322, 323, 324, 325, 326, 327, 328, 329, 330, 331, 332, 333, 334, 335, 336, 337, 338, 339, 340, 341, 342, 343, 344, 345, 346, 347, 348, 349, 350, 351, 352, 353, 354, 355, 356, 357, 358, 359, 360, 361, 362, 363, 364, 365, 366, 367, 368, 369, 370, 371, 372, 373, 374, 375, 376, 377, 378, 379, 380, 381, 382, 383, 384, 385, 386, 387, 388, 389, 390, 391, 392, 393, 394, 395, 396, 397, 398, 399, 400, 401, 402, 403, 404, 405, 406, 407, 408, 409, 410, 411, 412, 413, 414, 415, 416, 417, 418, 419, 420, 421, 422, 423, 424, 425, 426, 427, 428, 429, 430, 431, 432, 433, 434, 435, 436, 437, 438, 439, 440, 441, 442, 443, 444, 445, 446, 447, 448, 449, 450, 451, 452, 453, 454, 455, 456, 457, 458, 459, 460, 461, 462, 463, 464, 465, 466, 467, 468, 469, 470, 471, 472, 473, 474, 475, 476, 477, 478, 479, 480, 481, 482, 483, 484, 485, 486, 487, 488, 489, 490, 491, 492, 493, 494, 495, 496, 497, 498, 499, 500, 501, 502, 503, 504, 505, 506, 507, 508, 509, 510, 511, 512, 513, 514, 515, 516, 517, 518, 519, 520, 521, 522, 523, 524, 525, 526, 527, 528, 529, 530, 531, 532, 533, 534, 535, 536, 537, 538, 539, 540, 541, 542, 543, 544, 545, 546, 547, 548, 549, 550, 551, 552, 553, 554, 555, 556, 557, 558, 559, 560, 561, 562, 563, 564, 565, 566, 567, 568, 569, 570, 571, 572, 573, 574, 575, 576, 577, 578, 579, 580, 581],
      "AcquisitionTime": ["160718.135000", "160718.922500", "160719.712500", "160720.500000", "160721.287500", "160722.075000", "160722.865000", "160723.652500", "160724.440000", "160725.227500", "160726.017500", "160726.805000", "160727.592500", "160728.380000", "160729.170000", "160729.957500", "160730.745000", "160731.532500", "160732.322500", "160733.110000", "160733.897500", "160734.687500", "160735.475000", "160736.262500", "160737.050000", "160737.840000", "160738.627500", "160739.415000", "160740.202500", "160740.992500", "160741.780000", "160742.567500", "160743.355000", "160744.145000", "160744.932500", "160745.720000", "160746.507500", "160747.297500", "160748.085000", "160748.872500", "160749.662500", "160750.450000", "160751.237500", "160752.025000", "160752.815000", "160753.602500", "160754.390000", "160755.177500", "160755.967500", "160756.755000", "160757.542500", "160758.330000", "160759.120000", "160759.907500", "160800.695000", "160801.482500", "160802.272500", "160803.060000", "160803.847500", "160804.635000", "160805.425000", "160806.212500", "160807.000000", "160807.790000", "160808.577500", "160809.365000", "160810.152500", "160810.942500", "160811.730000", "160812.517500", "160813.305000", "160814.095000", "160814.882500", "160815.670000", "160816.457500", "160817.247500", "160818.035000", "160818.822500", "160819.610000", "160820.400000", "160821.187500", "160821.975000", "160822.762500", "160823.552500", "160824.340000", "160825.127500", "160825.917500", "160826.705000", "160827.492500", "160828.280000", "160829.070000", "160829.857500", "160830.645000", "160831.432500", "160832.222500", "160833.010000", "160833.797500", "160834.585000", "160835.375000", "160836.162500", "160836.950000", "160837.737500", "160838.527500", "160839.315000", "160840.102500", "160840.890000", "160841.680000", "160842.467500", "160843.255000", "160844.045000", "160844.832500", "160845.620000", "160846.407500", "160847.197500", "160847.985000", "160848.772500", "160849.560000", "160850.350000", "160851.137500", "160851.925000", "160852.712500", "160853.502500", "160854.290000", "160855.077500", "160855.865000", "160856.655000", "160857.442500", "160858.230000", "160859.017500", "160859.807500", "160900.595000", "160901.382500", "160902.172500", "160902.960000", "160903.747500", "160904.535000", "160905.325000", "160906.112500", "160906.900000", "160907.687500", "160908.477500", "160909.265000", "160910.052500", "160910.840000", "160911.630000", "160912.417500", "160913.205000", "160913.992500", "160914.782500", "160915.570000", "160916.357500", "160917.145000", "160917.935000", "160918.722500", "160919.510000", "160920.300000", "160921.087500", "160921.875000", "160922.662500", "160923.452500", "160924.240000", "160925.027500", "160925.815000", "160926.605000", "160927.392500", "160928.180000", "160928.967500", "160929.757500", "160930.545000", "160931.332500", "160932.120000", "160932.910000", "160933.697500", "160934.485000", "160935.272500", "160936.062500", "160936.850000", "160937.637500", "160938.427500", "160939.215000", "160940.002500", "160940.790000", "160941.580000", "160942.367500", "160943.155000", "160943.942500", "160944.732500", "160945.520000", "160946.307500", "160947.095000", "160947.885000", "160948.672500", "160949.460000", "160950.247500", "160951.037500", "160951.825000", "160952.612500", "160953.400000", "160954.190000", "160954.977500", "160955.765000", "160956.555000", "160957.342500", "160958.130000", "160958.917500", "160959.707500", "161000.495000", "161001.282500", "161002.070000", "161002.860000", "161003.647500", "161004.435000", "161005.222500", "161006.012500", "161006.800000", "161007.587500", "161008.375000", "161009.165000", "161009.952500", "161010.740000", "161011.527500", "161012.317500", "161013.105000", "161013.892500", "161014.682500", "161015.470000", "161016.257500", "161017.045000", "161017.835000", "161018.622500", "161019.410000", "161020.197500", "161020.987500", "161021.775000", "161022.562500", "161023.350000", "161024.140000", "161024.927500", "161025.715000", "161026.502500", "161027.292500", "161028.080000", "161028.867500", "161029.655000", "161030.445000", "161031.232500", "161032.020000", "161032.810000", "161033.597500", "161034.385000", "161035.172500", "161035.962500", "161036.750000", "161037.537500", "161038.325000", "161039.115000", "161039.902500", "161040.690000", "161041.477500", "161042.267500", "161043.055000", "161043.842500", "161044.630000", "161045.420000", "161046.207500", "161046.995000", "161047.782500", "161048.572500", "161049.360000", "161050.147500", "161050.937500", "161051.725000", "161052.512500", "161053.300000", "161054.090000", "161054.877500", "161055.665000", "161056.452500", "161057.242500", "161058.030000", "161058.817500", "161059.605000", "161100.395000", "161101.182500", "161101.970000", "161102.757500", "161103.547500", "161104.335000", "161105.122500", "161105.912500", "161106.700000", "161107.487500", "161108.275000", "161109.065000", "161109.852500", "161110.640000", "161111.427500", "161112.217500", "161113.005000", "161113.792500", "161114.580000", "161115.370000", "161116.157500", "161116.945000", "161117.732500", "161118.522500", "161119.310000", "161120.097500", "161120.885000", "161121.675000", "161122.462500", "161123.250000", "161124.040000", "161124.827500", "161125.615000", "161126.402500", "161127.192500", "161127.980000", "161128.767500", "161129.555000", "161130.345000", "161131.132500", "161131.920000", "161132.707500", "161133.497500", "161134.285000", "161135.072500", "161135.860000", "161136.650000", "161137.437500", "161138.225000", "161139.012500", "161139.802500", "161140.590000", "161141.377500", "161142.167500", "161142.955000", "161143.742500", "161144.530000", "161145.320000", "161146.107500", "161146.895000", "161147.682500", "161148.472500", "161149.260000", "161150.047500", "161150.835000", "161151.625000", "161152.412500", "161153.200000", "161153.987500", "161154.777500", "161155.565000", "161156.352500", "161157.140000", "161157.930000", "161158.717500", "161159.505000", "161200.295000", "161201.082500", "161201.870000", "161202.657500", "161203.447500", "161204.235000", "161205.022500", "161205.810000", "161206.600000", "161207.387500", "161208.175000", "161208.962500", "161209.752500", "161210.540000", "161211.327500", "161212.115000", "161212.905000", "161213.692500", "161214.480000", "161215.267500", "161216.057500", "161216.845000", "161217.632500", "161218.422500", "161219.210000", "161219.997500", "161220.785000", "161221.575000", "161222.362500", "161223.150000", "161223.937500", "161224.727500", "161225.515000", "161226.302500", "161227.090000", "161227.880000", "161228.667500", "161229.455000", "161230.242500", "161231.032500", "161231.820000", "161232.607500", "161233.395000", "161234.185000", "161234.972500", "161235.760000", "161236.550000", "161237.337500", "161238.125000", "161238.912500", "161239.702500", "161240.490000", "161241.277500", "161242.065000", "161242.855000", "161243.642500", "161244.430000", "161245.217500", "161246.007500", "161246.795000", "161247.582500", "161248.370000", "161249.160000", "161249.947500", "161250.735000", "161251.522500", "161252.312500", "161253.100000", "161253.887500", "161254.677500", "161255.465000", "161256.252500", "161257.040000", "161257.830000", "161258.617500", "161259.405000", "161300.192500", "161300.982500", "161301.770000", "161302.557500", "161303.345000", "161304.135000", "161304.922500", "161305.710000", "161306.497500", "161307.287500", "161308.075000", "161308.862500", "161309.650000", "161310.440000", "161311.227500", "161312.015000", "161312.805000", "161313.592500", "161314.380000", "161315.167500", "161315.957500", "161316.745000", "161317.532500", "161318.320000", "161319.110000", "161319.897500", "161320.685000", "161321.472500", "161322.262500", "161323.050000", "161323.837500", "161324.625000", "161325.415000", "161326.202500", "161326.990000", "161327.777500", "161328.567500", "161329.355000", "161330.142500", "161330.932500", "161331.720000", "161332.507500", "161333.295000", "161334.085000", "161334.872500", "161335.660000", "161336.447500", "161337.237500", "161338.025000", "161338.812500", "161339.600000", "161340.390000", "161341.177500", "161341.965000", "161342.752500", "161343.542500", "161344.330000", "161345.117500", "161345.905000", "161346.695000", "161347.482500", "161348.270000", "161349.060000", "161349.847500", "161350.635000", "161351.422500", "161352.212500", "161353.000000", "161353.787500", "161354.575000", "161355.365000", "161356.152500", "161356.940000", "161357.727500", "161358.517500", "161359.305000", "161400.092500", "161400.880000", "161401.670000", "161402.457500", "161403.245000", "161404.032500", "161404.822500", "161405.610000", "161406.397500", "161407.187500", "161407.975000", "161408.762500", "161409.550000", "161410.340000", "161411.127500", "161411.915000", "161412.702500", "161413.492500", "161414.280000", "161415.067500", "161415.855000", "161416.645000", "161417.432500", "161418.220000", "161419.007500", "161419.797500", "161420.585000", "161421.372500", "161422.162500", "161422.950000", "161423.737500", "161424.525000", "161425.315000", "161426.102500", "161426.890000", "161427.677500", "161428.467500", "161429.255000", "161430.042500", "161430.830000", "161431.620000", "161432.407500", "161433.195000", "161433.982500", "161434.772500", "161435.560000", "161436.347500", "161437.135000", "161437.925000", "161438.712500", "161439.500000", "161440.290000", "161441.077500", "161441.865000", "161442.652500", "161443.442500", "161444.230000", "161445.017500", "161445.805000", "161446.595000", "161447.382500", "161448.170000", "161448.957500", "161449.747500", "161450.535000", "161451.322500", "161452.110000", "161452.900000", "161453.687500", "161454.475000", "161455.262500"],
      "ContentTime": ["160734.140000", "160734.140000", "160734.156000", "160734.156000", "160734.156000", "160734.156000", "160734.156000", "160734.156000", "160734.171000", "160734.171000", "160734.171000", "160734.171000", "160734.171000", "160734.171000", "160734.171000", "160734.187000", "160734.187000", "160734.187000", "160754.109000", "160754.125000", "160754.125000", "160754.125000", "160754.125000", "160754.125000", "160754.125000", "160754.140000", "160754.140000", "160754.140000", "160754.140000", "160754.140000", "160754.140000", "160754.156000", "160754.156000", "160754.156000", "160754.156000", "160754.156000", "160754.156000", "160754.156000", "160754.171000", "160754.171000", "160754.171000", "160754.171000", "160754.171000", "160754.187000", "160814.109000", "160814.125000", "160814.125000", "160814.125000", "160814.125000", "160814.125000", "160814.125000", "160814.140000", "160814.140000", "160814.140000", "160814.140000", "160814.140000", "160814.140000", "160814.156000", "160814.156000", "160814.156000", "160814.156000", "160814.156000", "160814.156000", "160814.171000", "160814.171000", "160814.171000", "160814.171000", "160814.171000", "160814.171000", "160834.109000", "160834.125000", "160834.125000", "160834.125000", "160834.125000", "160834.125000", "160834.125000", "160834.125000", "160834.140000", "160834.140000", "160834.140000", "160834.140000", "160834.140000", "160834.140000", "160834.156000", "160834.156000", "160834.156000", "160834.156000", "160834.156000", "160834.156000", "160834.156000", "160834.171000", "160834.171000", "160834.171000", "160834.171000", "160834.171000", "160854.109000", "160854.125000", "160854.125000", "160854.125000", "160854.125000", "160854.125000", "160854.125000", "160854.140000", "160854.140000", "160854.140000", "160854.140000", "160854.140000", "160854.140000", "160854.140000", "160854.156000", "160854.156000", "160854.156000", "160854.156000", "160854.156000", "160854.156000", "160854.171000", "160854.171000", "160854.187000", "160854.187000", "160854.187000", "160914.109000", "160914.125000", "160914.125000", "160914.125000", "160914.125000", "160914.125000", "160914.125000", "160914.140000", "160914.140000", "160914.140000", "160914.140000", "160914.140000", "160914.140000", "160914.140000", "160914.156000", "160914.156000", "160914.156000", "160914.156000", "160914.156000", "160914.171000", "160914.171000", "160914.171000", "160914.171000", "160914.171000", "160914.171000", "160914.171000", "160934.109000", "160934.125000", "160934.125000", "160934.125000", "160934.125000", "160934.125000", "160934.125000", "160934.140000", "160934.140000", "160934.140000", "160934.140000", "160934.140000", "160934.140000", "160934.140000", "160934.156000", "160934.156000", "160934.156000", "160934.156000", "160934.156000", "160934.156000", "160934.156000", "160934.171000", "160934.171000", "160934.171000", "160934.171000", "160954.109000", "160954.125000", "160954.125000", "160954.125000", "160954.125000", "160954.125000", "160954.125000", "160954.140000", "160954.140000", "160954.140000", "160954.140000", "160954.140000", "160954.140000", "160954.140000", "160954.156000", "160954.156000", "160954.156000", "160954.156000", "160954.156000", "160954.171000", "160954.171000", "160954.171000", "160954.171000", "160954.171000", "160954.171000", "160954.187000", "161014.109000", "161014.125000", "161014.125000", "161014.125000", "161014.125000", "161014.125000", "161014.125000", "161014.140000", "161014.140000", "161014.140000", "161014.140000", "161014.140000", "161014.140000", "161014.140000", "161014.156000", "161014.156000", "161014.156000", "161014.156000", "161014.156000", "161014.156000", "161014.156000", "161014.171000", "161014.171000", "161014.171000", "161014.171000", "161034.109000", "161034.125000", "161034.125000", "161034.125000", "161034.125000", "161034.125000", "161034.125000", "161034.140000", "161034.140000", "161034.140000", "161034.140000", "161034.140000", "161034.140000", "161034.156000", "161034.156000", "161034.156000", "161034.156000", "161034.156000", "161034.156000", "161034.156000", "161034.171000", "161034.171000", "161034.171000", "161034.171000", "161034.171000", "161034.171000", "161054.109000", "161054.125000", "161054.125000", "161054.125000", "161054.125000", "161054.125000", "161054.125000", "161054.140000", "161054.140000", "161054.140000", "161054.140000", "161054.140000", "161054.140000", "161054.156000", "161054.156000", "161054.156000", "161054.156000", "161054.156000", "161054.156000", "161054.156000", "161054.171000", "161054.171000", "161054.171000", "161054.171000", "161054.171000", "161114.109000", "161114.125000", "161114.125000", "161114.125000", "161114.125000", "161114.125000", "161114.125000", "161114.140000", "161114.140000", "161114.140000", "161114.140000", "161114.140000", "161114.140000", "161114.140000", "161114.156000", "161114.156000", "161114.156000", "161114.156000", "161114.156000", "161114.156000", "161114.156000", "161114.171000", "161114.171000", "161114.171000", "161114.171000", "161114.171000", "161134.109000", "161134.125000", "161134.125000", "161134.125000", "161134.125000", "161134.140000", "161134.140000", "161134.140000", "161134.140000", "161134.140000", "161134.140000", "161134.156000", "161134.156000", "161134.156000", "161134.156000", "161134.156000", "161134.156000", "161134.156000", "161134.171000", "161134.171000", "161134.171000", "161134.171000", "161134.171000", "161134.171000", "161134.171000", "161154.109000", "161154.125000", "161154.125000", "161154.125000", "161154.125000", "161154.125000", "161154.125000", "161154.140000", "161154.140000", "161154.140000", "161154.140000", "161154.140000", "161154.140000", "161154.140000", "161154.156000", "161154.156000", "161154.156000", "161154.156000", "161154.156000", "161154.156000", "161154.156000", "161154.171000", "161154.171000", "161154.171000", "161154.171000", "161154.171000", "161214.109000", "161214.125000", "161214.125000", "161214.125000", "161214.125000", "161214.125000", "161214.125000", "161214.140000", "161214.140000", "161214.140000", "161214.140000", "161214.140000", "161214.140000", "161214.140000", "161214.156000", "161214.156000", "161214.156000", "161214.156000", "161214.156000", "161214.156000", "161214.156000", "161214.171000", "161214.171000", "161214.171000", "161214.171000", "161234.109000", "161234.125000", "161234.125000", "161234.125000", "161234.125000", "161234.125000", "161234.125000", "161234.140000", "161234.140000", "161234.140000", "161234.140000", "161234.140000", "161234.140000", "161234.140000", "161234.156000", "161234.156000", "161234.156000", "161234.156000", "161234.156000", "161234.156000", "161234.156000", "161234.171000", "161234.171000", "161234.171000", "161234.171000", "161254.109000", "161254.125000", "161254.125000", "161254.125000", "161254.125000", "161254.125000", "161254.125000", "161254.140000", "161254.140000", "161254.140000", "161254.140000", "161254.140000", "161254.156000", "161254.156000", "161254.156000", "161254.156000", "161254.156000", "161254.156000", "161254.156000", "161254.171000", "161254.171000", "161254.171000", "161254.171000", "161254.171000", "161254.187000", "161254.187000", "161314.109000", "161314.125000", "161314.125000", "161314.125000", "161314.125000", "161314.125000", "161314.140000", "161314.140000", "161314.140000", "161314.140000", "161314.140000", "161314.156000", "161314.156000", "161314.156000", "161314.156000", "161314.156000", "161314.171000", "161314.171000", "161314.171000", "161314.171000", "161314.171000", "161314.171000", "161314.171000", "161314.187000", "161314.187000", "161334.109000", "161334.125000", "161334.125000", "161334.125000", "161334.125000", "161334.125000", "161334.125000", "161334.140000", "161334.140000", "161334.140000", "161334.140000", "161334.140000", "161334.140000", "161334.140000", "161334.156000", "161334.156000", "161334.156000", "161334.156000", "161334.156000", "161334.156000", "161334.156000", "161334.171000", "161334.171000", "161334.171000", "161334.171000", "161334.171000", "161354.125000", "161354.125000", "161354.125000", "161354.125000", "161354.125000", "161354.125000", "161354.125000", "161354.140000", "161354.140000", "161354.140000", "161354.140000", "161354.140000", "161354.140000", "161354.140000", "161354.156000", "161354.156000", "161354.156000", "161354.156000", "161354.156000", "161354.156000", "161354.171000", "161354.171000", "161354.171000", "161354.171000", "161354.171000", "161414.109000", "161414.125000", "161414.125000", "161414.125000", "161414.125000", "161414.140000", "161414.140000", "161414.140000", "161414.140000", "161414.140000", "161414.140000", "161414.156000", "161414.156000", "161414.156000", "161414.156000", "161414.156000", "161414.156000", "161414.171000", "161414.171000", "161414.171000", "161414.171000", "161414.171000", "161414.171000", "161414.171000", "161414.187000", "161414.187000", "161434.109000", "161434.125000", "161434.125000", "161434.125000", "161434.125000", "161434.125000", "161434.125000", "161434.140000", "161434.140000", "161434.140000", "161434.140000", "161434.140000", "161434.140000", "161434.140000", "161434.156000", "161434.156000", "161434.156000", "161434.156000", "161434.156000", "161434.156000", "161434.156000", "161434.171000", "161434.171000", "161434.171000", "161434.171000", "161454.109000", "161454.125000", "161454.125000", "161454.125000", "161454.125000", "161454.125000", "161454.125000", "161454.140000", "161454.140000", "161454.140000", "161454.140000", "161454.140000", "161454.140000", "161454.140000", "161454.156000", "161454.156000", "161454.156000", "161454.156000", "161454.156000", "161454.156000", "161454.156000", "161454.171000", "161454.171000", "161454.171000", "161454.171000", "161454.171000", "161455.484000", "161455.500000"],
      "DataSetTrailingPadding": [
        "\u0000\u0000\u0000\u0000\u0000\u0000\u0000\u0000\u0000\u0000\u0000\u0000\u0000\u0000\u0000\u0000\u0000\u0000\u0000\u0000\u0000\u0000\u0000\u0000\u0000\u0000\u0000\u0000\u0000\u0000\u0000\u0000\u0000\u0000\u0000\u0000\u0000\u0000\u0000\u0000\u0000\u0000\u0000\u0000\u0000\u0000\u0000\u0000\u0000\u0000\u0000\u0000\u0000\u0000\u0000\u0000\u0000\u0000\u0000\u0000\u0000\u0000\u0000\u0000\u0000\u0000\u0000\u0000\u0000\u0000\u0000\u0000\u0000\u0000\u0000\u0000\u0000\u0000\u0000\u0000\u0000\u0000\u0000\u0000\u0000\u0000\u0000\u0000\u0000\u0000\u0000\u0000\u0000\u0000\u0000\u0000\u0000\u0000\u0000\u0000\u0000\u0000\u0000\u0000\u0000\u0000\u0000\u0000\u0000\u0000\u0000\u0000\u0000\u0000\u0000\u0000\u0000\u0000\u0000\u0000",
        "\u0000\u0000\u0000\u0000\u0000\u0000\u0000\u0000\u0000\u0000\u0000\u0000\u0000\u0000\u0000\u0000\u0000\u0000\u0000\u0000\u0000\u0000\u0000\u0000\u0000\u0000\u0000\u0000\u0000\u0000\u0000\u0000\u0000\u0000\u0000\u0000\u0000\u0000\u0000\u0000\u0000\u0000\u0000\u0000\u0000\u0000\u0000\u0000\u0000\u0000\u0000\u0000\u0000\u0000\u0000\u0000\u0000\u0000\u0000\u0000\u0000\u0000\u0000\u0000\u0000\u0000\u0000\u0000\u0000\u0000\u0000\u0000\u0000\u0000\u0000\u0000\u0000\u0000\u0000\u0000\u0000\u0000\u0000\u0000\u0000\u0000\u0000\u0000\u0000\u0000\u0000\u0000\u0000\u0000\u0000\u0000\u0000\u0000\u0000\u0000\u0000\u0000\u0000\u0000\u0000\u0000\u0000\u0000\u0000\u0000\u0000\u0000\u0000\u0000\u0000\u0000\u0000\u0000\u0000\u0000",
