{
  "AcquisitionMatrixPE": 104,
  "AcquisitionNumber": 1,
  "AcquisitionTime": "16:15:18.755000",
  "BandwidthPerPixelPhaseEncode": 13.935,
  "BaseResolution": 104,
  "CoilString": "C:HEA;HEP",
  "ConversionSoftware": "dcm2niix",
  "ConversionSoftwareVersion": "v1.0.20210317",
  "DerivedVendorReportedEchoSpacing": 0.000690017,
  "DeviceSerialNumber": "35450",
  "DwellTime": 2.5e-06,
  "EchoTime": 0.0348,
  "EffectiveEchoSpacing": 0.000690017,
  "FlipAngle": 55,
  "ImageComments": "Unaliased MB8/PE3 (remote)",
  "ImageOrientationPatientDICOM": [0.999879, 0.00265218, 0.0153534, -6.90248e-09, 0.985406, -0.17022],
  "ImageType": [
    "ORIGINAL",
    "PRIMARY",
    "M",
    "MB",
    "ND",
    "MOSAIC"
],
  "ImagingFrequency": 123.234,
  "InPlanePhaseEncodingDirectionDICOM": "COL",
  "InstitutionAddress": "Univeristy Ave. 197,Newark,North East,US,07102-1814",
  "InstitutionName": "RUBIC",
  "InstitutionalDepartmentName": "Department",
  "MRAcquisitionType": "2D",
  "MagneticFieldStrength": 3,
  "Manufacturer": "Siemens",
  "ManufacturersModelName": "TrioTim",
  "Modality": "MR",
  "MultibandAccelerationFactor": 8,
  "PartialFourier": 0.875,
  "PatientPosition": "HFS",
  "PercentPhaseFOV": 100,
  "PercentSampling": 100,
  "PhaseEncodingDirection": "j-",
  "PhaseEncodingSteps": 91,
  "PhaseResolution": 1,
  "PixelBandwidth": 1923,
  "ProcedureStepDescription": "Cole^Michael",
  "ProtocolName": "cmrr_mbep2d_bold_2mm_MB8_Task_8x",
  "PulseSequenceDetails": "%CustomerSeq%\\cmrr_mbep2d_bold",
  "ReceiveCoilName": "32Ch_Head",
  "ReconMatrixPE": 104,
  "RepetitionTime": 0.785,
  "SAR": 0.11964,
  "ScanOptions": "PFP\\FS",
  "ScanningSequence": "EP",
  "SequenceName": "epfid2d1_104",
  "SequenceVariant": "SK\\SS",
  "SeriesDescription": "cmrr_mbep2d_bold_2mm_MB8_Task_8x",
  "SeriesNumber": 15,
  "ShimSetting": [2151, -408, -7173, 469, -37, 201, 321, 109],
  "SliceThickness": 2,
  "SliceTiming": [0, 0.4375, 0.0875, 0.525, 0.175, 0.6125, 0.2625, 0.7, 0.35, 0, 0.4375, 0.0875, 0.525, 0.175, 0.6125, 0.2625, 0.7, 0.35, 0, 0.4375, 0.0875, 0.525, 0.175, 0.6125, 0.2625, 0.7, 0.35, 0, 0.4375, 0.0875, 0.525, 0.175, 0.6125, 0.2625, 0.7, 0.35, 0, 0.4375, 0.0875, 0.525, 0.175, 0.6125, 0.2625, 0.7, 0.35, 0, 0.4375, 0.0875, 0.525, 0.175, 0.6125, 0.2625, 0.7, 0.35, 0, 0.4375, 0.0875, 0.525, 0.175, 0.6125, 0.2625, 0.7, 0.35, 0, 0.4375, 0.0875, 0.525, 0.175, 0.6125, 0.2625, 0.7, 0.35],
  "SoftwareVersions": "syngo MR B19",
  "SpacingBetweenSlices": 2,
  "StationName": "MRC35450",
  "TaskName": "cpro",
  "TotalReadoutTime": 0.0710717,
  "TxRefAmp": 317.941,
  "dcmmeta_affine": [
    [-1.999757170677185, -1.3804969611896922e-08, 0.031161658465862274, 101.60340881347656],
    [-0.005304355174303055, 1.9708120822906494, -0.3403989374637604, -70.68885803222656],
    [0.03070688433945179, 0.3404402434825897, 1.970572829246521, -109.22383880615234],
    [0.0, 0.0, 0.0, 1.0]
],
  "dcmmeta_reorient_transform": [
    [0.0, -1.0, 0.0, 103.0],
    [1.0, 0.0, 0.0, 0.0],
    [0.0, 0.0, 1.0, 0.0],
    [0.0, 0.0, 0.0, 1.0]
],
  "dcmmeta_shape": [104, 104, 72, 581],
  "dcmmeta_slice_dim": 2,
  "dcmmeta_version": 0.6,
  "global": {
    "const": {
      "AcquisitionMatrix": [104, 0, 0, 104],
      "AngioFlag": "N",
      "BitsAllocated": 16,
      "BitsStored": 12,
      "Columns": 936,
      "EchoNumbers": 1,
      "EchoTime": 34.8,
      "EchoTrainLength": 1,
      "FlipAngle": 55.0,
      "HighBit": 11,
      "ImageOrientationPatient": [0.99987861151022, 0.00265217758516, 0.01535344255999, -6.902485e-09, 0.98540606237706, -0.1702201287467],
      "ImagePositionPatient": [-933.50240484431, -954.36924836818, 54.690592721454],
      "ImageType": [
        "ORIGINAL",
        "PRIMARY",
        "M",
        "MB",
        "ND",
        "MOSAIC"
],
      "ImagedNucleus": "1H",
      "ImagingFrequency": 123.234425,
      "InPlanePhaseEncodingDirection": "COL",
      "MRAcquisitionType": "2D",
      "MagneticFieldStrength": 3.0,
      "Manufacturer": "SIEMENS",
      "ManufacturerModelName": "TrioTim",
      "Modality": "MR",
      "NumberOfAverages": 1.0,
      "NumberOfPhaseEncodingSteps": 91,
      "PercentPhaseFieldOfView": 100.0,
      "PercentSampling": 100.0,
      "PerformedProcedureStepStartTime": "150051.781000",
      "PhotometricInterpretation": "MONOCHROME2",
      "PixelBandwidth": 1923.0,
      "PixelRepresentation": 0,
      "PixelSpacing": [2.0, 2.0],
      "ProtocolName": "cmrr_mbep2d_bold_2mm_MB8_Task_8x",
      "RepetitionTime": 785.0,
      "Rows": 936,
      "SAR": 0.11963951386141,
      "SamplesPerPixel": 1,
      "ScanOptions": [
        "PFP",
        "FS"
],
      "ScanningSequence": "EP",
      "SequenceName": "epfid2d1_104",
      "SequenceVariant": [
        "SK",
        "SS"
],
      "SeriesDescription": "cmrr_mbep2d_bold_2mm_MB8_Task_8x",
      "SeriesNumber": 15,
      "SeriesTime": "161539.718000",
      "SliceLocation": -94.002494917273,
      "SliceThickness": 2.0,
      "SmallestImagePixelValue": 0,
      "SoftwareVersions": "syngo MR B19",
      "SpacingBetweenSlices": 1.9999999945614,
      "SpecificCharacterSet": "ISO_IR 100",
      "StudyID": "1",
      "StudyTime": "150051.750000",
      "TransmitCoilName": "Body",
      "VariableFlipAngleFlag": "N",
      "WindowCenterWidthExplanation": "Algo1",
      "dBdt": 0.0},
    "slices": {}
  },
  "time": {
    "samples": {
      "AcquisitionNumber": [1, 2, 3, 4, 5, 6, 7, 8, 9, 10, 11, 12, 13, 14, 15, 16, 17, 18, 19, 20, 21, 22, 23, 24, 25, 26, 27, 28, 29, 30, 31, 32, 33, 34, 35, 36, 37, 38, 39, 40, 41, 42, 43, 44, 45, 46, 47, 48, 49, 50, 51, 52, 53, 54, 55, 56, 57, 58, 59, 60, 61, 62, 63, 64, 65, 66, 67, 68, 69, 70, 71, 72, 73, 74, 75, 76, 77, 78, 79, 80, 81, 82, 83, 84, 85, 86, 87, 88, 89, 90, 91, 92, 93, 94, 95, 96, 97, 98, 99, 100, 101, 102, 103, 104, 105, 106, 107, 108, 109, 110, 111, 112, 113, 114, 115, 116, 117, 118, 119, 120, 121, 122, 123, 124, 125, 126, 127, 128, 129, 130, 131, 132, 133, 134, 135, 136, 137, 138, 139, 140, 141, 142, 143, 144, 145, 146, 147, 148, 149, 150, 151, 152, 153, 154, 155, 156, 157, 158, 159, 160, 161, 162, 163, 164, 165, 166, 167, 168, 169, 170, 171, 172, 173, 174, 175, 176, 177, 178, 179, 180, 181, 182, 183, 184, 185, 186, 187, 188, 189, 190, 191, 192, 193, 194, 195, 196, 197, 198, 199, 200, 201, 202, 203, 204, 205, 206, 207, 208, 209, 210, 211, 212, 213, 214, 215, 216, 217, 218, 219, 220, 221, 222, 223, 224, 225, 226, 227, 228, 229, 230, 231, 232, 233, 234, 235, 236, 237, 238, 239, 240, 241, 242, 243, 244, 245, 246, 247, 248, 249, 250, 251, 252, 253, 254, 255, 256, 257, 258, 259, 260, 261, 262, 263, 264, 265, 266, 267, 268, 269, 270, 271, 272, 273, 274, 275, 276, 277, 278, 279, 280, 281, 282, 283, 284, 285, 286, 287, 288, 289, 290, 291, 292, 293, 294, 295, 296, 297, 298, 299, 300, 301, 302, 303, 304, 305, 306, 307, 308, 309, 310, 311, 312, 313, 314, 315, 316, 317, 318, 319, 320, 321, 322, 323, 324, 325, 326, 327, 328, 329, 330, 331, 332, 333, 334, 335, 336, 337, 338, 339, 340, 341, 342, 343, 344, 345, 346, 347, 348, 349, 350, 351, 352, 353, 354, 355, 356, 357, 358, 359, 360, 361, 362, 363, 364, 365, 366, 367, 368, 369, 370, 371, 372, 373, 374, 375, 376, 377, 378, 379, 380, 381, 382, 383, 384, 385, 386, 387, 388, 389, 390, 391, 392, 393, 394, 395, 396, 397, 398, 399, 400, 401, 402, 403, 404, 405, 406, 407, 408, 409, 410, 411, 412, 413, 414, 415, 416, 417, 418, 419, 420, 421, 422, 423, 424, 425, 426, 427, 428, 429, 430, 431, 432, 433, 434, 435, 436, 437, 438, 439, 440, 441, 442, 443, 444, 445, 446, 447, 448, 449, 450, 451, 452, 453, 454, 455, 456, 457, 458, 459, 460, 461, 462, 463, 464, 465, 466, 467, 468, 469, 470, 471, 472, 473, 474, 475, 476, 477, 478, 479, 480, 481, 482, 483, 484, 485, 486, 487, 488, 489, 490, 491, 492, 493, 494, 495, 496, 497, 498, 499, 500, 501, 502, 503, 504, 505, 506, 507, 508, 509, 510, 511, 512, 513, 514, 515, 516, 517, 518, 519, 520, 521, 522, 523, 524, 525, 526, 527, 528, 529, 530, 531, 532, 533, 534, 535, 536, 537, 538, 539, 540, 541, 542, 543, 544, 545, 546, 547, 548, 549, 550, 551, 552, 553, 554, 555, 556, 557, 558, 559, 560, 561, 562, 563, 564, 565, 566, 567, 568, 569, 570, 571, 572, 573, 574, 575, 576, 577, 578, 579, 580, 581],
      "AcquisitionTime": ["161518.755000", "161519.542500", "161520.332500", "161521.120000", "161521.907500", "161522.695000", "161523.485000", "161524.272500", "161525.060000", "161525.847500", "161526.637500", "161527.425000", "161528.212500", "161529.000000", "161529.790000", "161530.577500", "161531.365000", "161532.152500", "161532.942500", "161533.730000", "161534.517500", "161535.305000", "161536.095000", "161536.882500", "161537.670000", "161538.460000", "161539.247500", "161540.035000", "161540.822500", "161541.612500", "161542.400000", "161543.187500", "161543.975000", "161544.765000", "161545.552500", "161546.340000", "161547.127500", "161547.917500", "161548.705000", "161549.492500", "161550.280000", "161551.070000", "161551.857500", "161552.645000", "161553.432500", "161554.222500", "161555.010000", "161555.797500", "161556.587500", "161557.375000", "161558.162500", "161558.950000", "161559.740000", "161600.527500", "161601.315000", "161602.102500", "161602.892500", "161603.680000", "161604.467500", "161605.255000", "161606.045000", "161606.832500", "161607.620000", "161608.407500", "161609.197500", "161609.985000", "161610.772500", "161611.560000", "161612.350000", "161613.137500", "161613.925000", "161614.715000", "161615.502500", "161616.290000", "161617.077500", "161617.867500", "161618.655000", "161619.442500", "161620.230000", "161621.020000", "161621.807500", "161622.595000", "161623.382500", "161624.172500", "161624.960000", "161625.747500", "161626.535000", "161627.325000", "161628.112500", "161628.900000", "161629.687500", "161630.477500", "161631.265000", "161632.052500", "161632.842500", "161633.630000", "161634.417500", "161635.205000", "161635.995000", "161636.782500", "161637.570000", "161638.357500", "161639.147500", "161639.935000", "161640.722500", "161641.510000", "161642.300000", "161643.087500", "161643.875000", "161644.662500", "161645.452500", "161646.240000", "161647.027500", "161647.817500", "161648.605000", "161649.392500", "161650.180000", "161650.970000", "161651.757500", "161652.545000", "161653.332500", "161654.122500", "161654.910000", "161655.697500", "161656.485000", "161657.275000", "161658.062500", "161658.850000", "161659.637500", "161700.427500", "161701.215000", "161702.002500", "161702.790000", "161703.580000", "161704.367500", "161705.155000", "161705.945000", "161706.732500", "161707.520000", "161708.307500", "161709.097500", "161709.885000", "161710.672500", "161711.460000", "161712.250000", "161713.037500", "161713.825000", "161714.612500", "161715.402500", "161716.190000", "161716.977500", "161717.765000", "161718.555000", "161719.342500", "161720.130000", "161720.917500", "161721.707500", "161722.495000", "161723.282500", "161724.072500", "161724.860000", "161725.647500", "161726.435000", "161727.225000", "161728.012500", "161728.800000", "161729.587500", "161730.377500", "161731.165000", "161731.952500", "161732.740000", "161733.530000", "161734.317500", "161735.105000", "161735.892500", "161736.682500", "161737.470000", "161738.257500", "161739.045000", "161739.835000", "161740.622500", "161741.410000", "161742.200000", "161742.987500", "161743.775000", "161744.562500", "161745.352500", "161746.140000", "161746.927500", "161747.715000", "161748.505000", "161749.292500", "161750.080000", "161750.867500", "161751.657500", "161752.445000", "161753.232500", "161754.020000", "161754.810000", "161755.597500", "161756.385000", "161757.172500", "161757.962500", "161758.750000", "161759.537500", "161800.327500", "161801.115000", "161801.902500", "161802.690000", "161803.480000", "161804.267500", "161805.055000", "161805.842500", "161806.632500", "161807.420000", "161808.207500", "161808.995000", "161809.785000", "161810.572500", "161811.360000", "161812.147500", "161812.937500", "161813.725000", "161814.512500", "161815.300000", "161816.090000", "161816.877500", "161817.665000", "161818.455000", "161819.242500", "161820.030000", "161820.817500", "161821.607500", "161822.395000", "161823.182500", "161823.970000", "161824.760000", "161825.547500", "161826.335000", "161827.122500", "161827.912500", "161828.700000", "161829.487500", "161830.275000", "161831.065000", "161831.852500", "161832.640000", "161833.427500", "161834.217500", "161835.005000", "161835.792500", "161836.582500", "161837.370000", "161838.157500", "161838.945000", "161839.735000", "161840.522500", "161841.310000", "161842.097500", "161842.887500", "161843.675000", "161844.462500", "161845.250000", "161846.040000", "161846.827500", "161847.615000", "161848.402500", "161849.192500", "161849.980000", "161850.767500", "161851.555000", "161852.345000", "161853.132500", "161853.920000", "161854.710000", "161855.497500", "161856.285000", "161857.072500", "161857.862500", "161858.650000", "161859.437500", "161900.225000", "161901.015000", "161901.802500", "161902.590000", "161903.377500", "161904.167500", "161904.955000", "161905.742500", "161906.530000", "161907.320000", "161908.107500", "161908.895000", "161909.682500", "161910.472500", "161911.260000", "161912.047500", "161912.837500", "161913.625000", "161914.412500", "161915.200000", "161915.990000", "161916.777500", "161917.565000", "161918.352500", "161919.142500", "161919.930000", "161920.717500", "161921.505000", "161922.295000", "161923.082500", "161923.870000", "161924.657500", "161925.447500", "161926.235000", "161927.022500", "161927.810000", "161928.600000", "161929.387500", "161930.175000", "161930.965000", "161931.752500", "161932.540000", "161933.327500", "161934.117500", "161934.905000", "161935.692500", "161936.480000", "161937.270000", "161938.057500", "161938.845000", "161939.632500", "161940.422500", "161941.210000", "161941.997500", "161942.785000", "161943.575000", "161944.362500", "161945.150000", "161945.937500", "161946.727500", "161947.515000", "161948.302500", "161949.092500", "161949.880000", "161950.667500", "161951.455000", "161952.245000", "161953.032500", "161953.820000", "161954.607500", "161955.397500", "161956.185000", "161956.972500", "161957.760000", "161958.550000", "161959.337500", "162000.125000", "162000.912500", "162001.702500", "162002.490000", "162003.277500", "162004.067500", "162004.855000", "162005.642500", "162006.430000", "162007.220000", "162008.007500", "162008.795000", "162009.582500", "162010.372500", "162011.160000", "162011.947500", "162012.735000", "162013.525000", "162014.312500", "162015.100000", "162015.887500", "162016.677500", "162017.465000", "162018.252500", "162019.040000", "162019.830000", "162020.617500", "162021.405000", "162022.195000", "162022.982500", "162023.770000", "162024.557500", "162025.347500", "162026.135000", "162026.922500", "162027.710000", "162028.500000", "162029.287500", "162030.075000", "162030.862500", "162031.652500", "162032.440000", "162033.227500", "162034.015000", "162034.805000", "162035.592500", "162036.380000", "162037.167500", "162037.957500", "162038.745000", "162039.532500", "162040.322500", "162041.110000", "162041.897500", "162042.685000", "162043.475000", "162044.262500", "162045.050000", "162045.837500", "162046.627500", "162047.415000", "162048.202500", "162048.990000", "162049.780000", "162050.567500", "162051.355000", "162052.142500", "162052.932500", "162053.720000", "162054.507500", "162055.295000", "162056.085000", "162056.872500", "162057.660000", "162058.450000", "162059.237500", "162100.025000", "162100.812500", "162101.602500", "162102.390000", "162103.177500", "162103.965000", "162104.755000", "162105.542500", "162106.330000", "162107.117500", "162107.907500", "162108.695000", "162109.482500", "162110.270000", "162111.060000", "162111.847500", "162112.635000", "162113.422500", "162114.212500", "162115.000000", "162115.787500", "162116.577500", "162117.365000", "162118.152500", "162118.940000", "162119.730000", "162120.517500", "162121.305000", "162122.092500", "162122.882500", "162123.670000", "162124.457500", "162125.245000", "162126.035000", "162126.822500", "162127.610000", "162128.397500", "162129.187500", "162129.975000", "162130.762500", "162131.550000", "162132.340000", "162133.127500", "162133.915000", "162134.705000", "162135.492500", "162136.280000", "162137.067500", "162137.857500", "162138.645000", "162139.432500", "162140.220000", "162141.010000", "162141.797500", "162142.585000", "162143.372500", "162144.162500", "162144.950000", "162145.737500", "162146.525000", "162147.315000", "162148.102500", "162148.890000", "162149.677500", "162150.467500", "162151.255000", "162152.042500", "162152.832500", "162153.620000", "162154.407500", "162155.195000", "162155.985000", "162156.772500", "162157.560000", "162158.347500", "162159.137500", "162159.925000", "162200.712500", "162201.500000", "162202.290000", "162203.077500", "162203.865000", "162204.652500", "162205.442500", "162206.230000", "162207.017500", "162207.805000", "162208.595000", "162209.382500", "162210.170000", "162210.960000", "162211.747500", "162212.535000", "162213.322500", "162214.112500", "162214.900000", "162215.687500", "162216.475000", "162217.265000", "162218.052500", "162218.840000", "162219.627500", "162220.417500", "162221.205000", "162221.992500", "162222.780000", "162223.570000", "162224.357500", "162225.145000", "162225.932500", "162226.722500", "162227.510000", "162228.297500", "162229.087500", "162229.875000", "162230.662500", "162231.450000", "162232.240000", "162233.027500", "162233.815000", "162234.602500", "162235.392500", "162236.180000", "162236.967500", "162237.755000", "162238.545000", "162239.332500", "162240.120000", "162240.907500", "162241.697500", "162242.485000", "162243.272500", "162244.060000", "162244.850000", "162245.637500", "162246.425000", "162247.215000", "162248.002500", "162248.790000", "162249.577500", "162250.367500", "162251.155000", "162251.942500", "162252.730000", "162253.520000", "162254.307500", "162255.095000", "162255.882500"],
      "ContentTime": ["161539.718000", "161539.718000", "161539.718000", "161539.718000", "161539.734000", "161539.734000", "161539.734000", "161539.734000", "161539.734000", "161539.734000", "161539.750000", "161539.750000", "161539.750000", "161539.750000", "161539.750000", "161539.750000", "161539.765000", "161539.765000", "161539.765000", "161539.765000", "161539.765000", "161539.765000", "161539.781000", "161559.687000", "161559.703000", "161559.703000", "161559.703000", "161559.703000", "161559.703000", "161559.703000", "161559.718000", "161559.718000", "161559.718000", "161559.718000", "161559.718000", "161559.718000", "161559.718000", "161559.734000", "161559.734000", "161559.734000", "161559.734000", "161559.734000", "161559.734000", "161559.734000", "161559.750000", "161559.750000", "161559.750000", "161559.750000", "161559.750000", "161619.687000", "161619.703000", "161619.703000", "161619.703000", "161619.703000", "161619.703000", "161619.703000", "161619.718000", "161619.718000", "161619.718000", "161619.718000", "161619.718000", "161619.734000", "161619.734000", "161619.734000", "161619.734000", "161619.734000", "161619.750000", "161619.750000", "161619.750000", "161619.750000", "161619.750000", "161619.750000", "161619.765000", "161619.765000", "161639.687000", "161639.703000", "161639.703000", "161639.703000", "161639.703000", "161639.703000", "161639.703000", "161639.703000", "161639.718000", "161639.718000", "161639.718000", "161639.718000", "161639.718000", "161639.718000", "161639.734000", "161639.734000", "161639.734000", "161639.734000", "161639.734000", "161639.734000", "161639.734000", "161639.750000", "161639.750000", "161639.750000", "161639.750000", "161639.750000", "161659.687000", "161659.703000", "161659.703000", "161659.703000", "161659.703000", "161659.703000", "161659.703000", "161659.718000", "161659.718000", "161659.718000", "161659.718000", "161659.718000", "161659.718000", "161659.718000", "161659.734000", "161659.734000", "161659.734000", "161659.734000", "161659.734000", "161659.734000", "161659.734000", "161659.750000", "161659.750000", "161659.750000", "161659.750000", "161719.687000", "161719.703000", "161719.703000", "161719.703000", "161719.703000", "161719.703000", "161719.703000", "161719.718000", "161719.718000", "161719.718000", "161719.718000", "161719.718000", "161719.718000", "161719.734000", "161719.734000", "161719.734000", "161719.734000", "161719.750000", "161719.750000", "161719.750000", "161719.750000", "161719.750000", "161719.750000", "161719.765000", "161719.765000", "161719.765000", "161739.687000", "161739.703000", "161739.703000", "161739.703000", "161739.703000", "161739.703000", "161739.703000", "161739.718000", "161739.718000", "161739.718000", "161739.718000", "161739.718000", "161739.718000", "161739.718000", "161739.734000", "161739.734000", "161739.734000", "161739.734000", "161739.734000", "161739.734000", "161739.734000", "161739.750000", "161739.750000", "161739.750000", "161739.750000", "161759.687000", "161759.703000", "161759.703000", "161759.703000", "161759.703000", "161759.703000", "161759.703000", "161759.703000", "161759.718000", "161759.718000", "161759.718000", "161759.718000", "161759.718000", "161759.718000", "161759.718000", "161759.734000", "161759.734000", "161759.734000", "161759.734000", "161759.734000", "161759.734000", "161759.750000", "161759.750000", "161759.750000", "161759.750000", "161759.750000", "161819.687000", "161819.703000", "161819.703000", "161819.703000", "161819.703000", "161819.703000", "161819.703000", "161819.718000", "161819.718000", "161819.718000", "161819.718000", "161819.718000", "161819.718000", "161819.718000", "161819.734000", "161819.734000", "161819.734000", "161819.734000", "161819.734000", "161819.734000", "161819.734000", "161819.750000", "161819.750000", "161819.750000", "161819.750000", "161839.687000", "161839.703000", "161839.703000", "161839.703000", "161839.703000", "161839.703000", "161839.703000", "161839.718000", "161839.718000", "161839.718000", "161839.718000", "161839.718000", "161839.718000", "161839.718000", "161839.734000", "161839.734000", "161839.734000", "161839.734000", "161839.734000", "161839.734000", "161839.734000", "161839.750000", "161839.750000", "161839.750000", "161839.750000", "161839.750000", "161859.687000", "161859.703000", "161859.703000", "161859.703000", "161859.703000", "161859.703000", "161859.703000", "161859.718000", "161859.718000", "161859.718000", "161859.718000", "161859.718000", "161859.734000", "161859.734000", "161859.734000", "161859.734000", "161859.734000", "161859.734000", "161859.734000", "161859.750000", "161859.750000", "161859.750000", "161859.750000", "161859.750000", "161859.750000", "161919.687000", "161919.703000", "161919.703000", "161919.703000", "161919.703000", "161919.703000", "161919.703000", "161919.718000", "161919.718000", "161919.718000", "161919.718000", "161919.718000", "161919.718000", "161919.718000", "161919.734000", "161919.734000", "161919.734000", "161919.734000", "161919.734000", "161919.734000", "161919.734000", "161919.734000", "161919.750000", "161919.750000", "161919.750000", "161919.750000", "161939.687000", "161939.703000", "161939.703000", "161939.703000", "161939.703000", "161939.703000", "161939.703000", "161939.718000", "161939.718000", "161939.718000", "161939.718000", "161939.718000", "161939.718000", "161939.718000", "161939.734000", "161939.734000", "161939.734000", "161939.734000", "161939.734000", "161939.734000", "161939.734000", "161939.750000", "161939.750000", "161939.750000", "161939.750000", "161959.687000", "161959.703000", "161959.703000", "161959.703000", "161959.703000", "161959.703000", "161959.703000", "161959.718000", "161959.718000", "161959.718000", "161959.718000", "161959.718000", "161959.718000", "161959.718000", "161959.734000", "161959.734000", "161959.734000", "161959.734000", "161959.734000", "161959.734000", "161959.734000", "161959.750000", "161959.750000", "161959.750000", "161959.750000", "161959.750000", "162019.687000", "162019.703000", "162019.703000", "162019.703000", "162019.703000", "162019.703000", "162019.703000", "162019.718000", "162019.718000", "162019.718000", "162019.718000", "162019.718000", "162019.718000", "162019.734000", "162019.734000", "162019.734000", "162019.734000", "162019.734000", "162019.734000", "162019.750000", "162019.750000", "162019.750000", "162019.750000", "162019.750000", "162019.750000", "162039.687000", "162039.703000", "162039.703000", "162039.703000", "162039.703000", "162039.703000", "162039.703000", "162039.703000", "162039.718000", "162039.718000", "162039.718000", "162039.718000", "162039.718000", "162039.734000", "162039.734000", "162039.734000", "162039.734000", "162039.734000", "162039.750000", "162039.750000", "162039.750000", "162039.750000", "162039.750000", "162039.750000", "162039.750000", "162039.765000", "162059.687000", "162059.703000", "162059.703000", "162059.703000", "162059.703000", "162059.703000", "162059.703000", "162059.718000", "162059.718000", "162059.718000", "162059.718000", "162059.718000", "162059.718000", "162059.718000", "162059.734000", "162059.734000", "162059.734000", "162059.734000", "162059.734000", "162059.734000", "162059.734000", "162059.750000", "162059.750000", "162059.750000", "162059.750000", "162119.687000", "162119.703000", "162119.703000", "162119.703000", "162119.703000", "162119.703000", "162119.703000", "162119.718000", "162119.718000", "162119.718000", "162119.718000", "162119.718000", "162119.718000", "162119.718000", "162119.734000", "162119.734000", "162119.734000", "162119.734000", "162119.734000", "162119.750000", "162119.750000", "162119.750000", "162119.750000", "162119.750000", "162119.750000", "162119.750000", "162139.687000", "162139.703000", "162139.703000", "162139.703000", "162139.703000", "162139.703000", "162139.718000", "162139.718000", "162139.718000", "162139.718000", "162139.718000", "162139.718000", "162139.718000", "162139.734000", "162139.734000", "162139.734000", "162139.734000", "162139.734000", "162139.734000", "162139.734000", "162139.750000", "162139.750000", "162139.750000", "162139.750000", "162139.750000", "162159.687000", "162159.703000", "162159.703000", "162159.703000", "162159.703000", "162159.703000", "162159.703000", "162159.703000", "162159.718000", "162159.718000", "162159.718000", "162159.718000", "162159.718000", "162159.718000", "162159.734000", "162159.734000", "162159.734000", "162159.734000", "162159.734000", "162159.750000", "162159.750000", "162159.750000", "162159.750000", "162159.750000", "162159.750000", "162159.750000", "162219.687000", "162219.703000", "162219.703000", "162219.703000", "162219.703000", "162219.703000", "162219.703000", "162219.718000", "162219.718000", "162219.718000", "162219.718000", "162219.718000", "162219.718000", "162219.718000", "162219.734000", "162219.734000", "162219.734000", "162219.734000", "162219.734000", "162219.734000", "162219.734000", "162219.750000", "162219.750000", "162219.750000", "162219.750000", "162239.687000", "162239.703000", "162239.703000", "162239.703000", "162239.703000", "162239.703000", "162239.703000", "162239.718000", "162239.718000", "162239.718000", "162239.718000", "162239.718000", "162239.734000", "162239.734000", "162239.734000", "162239.734000", "162239.734000", "162239.734000", "162239.750000", "162239.750000", "162239.750000", "162239.750000", "162239.750000", "162239.750000", "162239.750000", "162257.078000", "162257.078000", "162257.078000", "162257.078000", "162257.093000", "162257.093000", "162257.093000", "162257.093000", "162257.093000", "162257.093000", "162257.093000", "162257.109000", "162257.109000", "162257.109000", "162257.109000", "162257.109000", "162257.109000", "162257.109000", "162257.125000", "162257.125000", "162257.125000", "162257.125000", "162257.125000"],
      "DataSetTrailingPadding": [
        "\u0000\u0000\u0000\u0000\u0000\u0000\u0000\u0000\u0000\u0000\u0000\u0000\u0000\u0000\u0000\u0000\u0000\u0000\u0000\u0000\u0000\u0000\u0000\u0000\u0000\u0000\u0000\u0000\u0000\u0000\u0000\u0000\u0000\u0000\u0000\u0000\u0000\u0000\u0000\u0000\u0000\u0000\u0000\u0000\u0000\u0000\u0000\u0000\u0000\u0000\u0000\u0000\u0000\u0000\u0000\u0000\u0000\u0000\u0000\u0000\u0000\u0000\u0000\u0000\u0000\u0000\u0000\u0000\u0000\u0000\u0000\u0000\u0000\u0000\u0000\u0000\u0000\u0000\u0000\u0000\u0000\u0000\u0000\u0000\u0000\u0000\u0000\u0000\u0000\u0000\u0000\u0000\u0000\u0000\u0000\u0000\u0000\u0000\u0000\u0000\u0000\u0000\u0000\u0000\u0000\u0000\u0000\u0000\u0000\u0000\u0000\u0000\u0000\u0000\u0000\u0000\u0000\u0000\u0000\u0000",
        "\u0000\u0000\u0000\u0000\u0000\u0000\u0000\u0000\u0000\u0000\u0000\u0000\u0000\u0000\u0000\u0000\u0000\u0000\u0000\u0000\u0000\u0000\u0000\u0000\u0000\u0000\u0000\u0000\u0000\u0000\u0000\u0000\u0000\u0000\u0000\u0000\u0000\u0000\u0000\u0000\u0000\u0000\u0000\u0000\u0000\u0000\u0000\u0000\u0000\u0000\u0000\u0000\u0000\u0000\u0000\u0000\u0000\u0000\u0000\u0000\u0000\u0000\u0000\u0000\u0000\u0000\u0000\u0000\u0000\u0000\u0000\u0000\u0000\u0000\u0000\u0000\u0000\u0000\u0000\u0000\u0000\u0000\u0000\u0000\u0000\u0000\u0000\u0000\u0000\u0000\u0000\u0000\u0000\u0000\u0000\u0000\u0000\u0000\u0000\u0000\u0000\u0000\u0000\u0000\u0000\u0000\u0000\u0000\u0000\u0000\u0000\u0000\u0000\u0000\u0000\u0000\u0000\u0000\u0000\u0000",
