{
  "AcquisitionMatrixPE": 104,
  "AcquisitionNumber": 1,
  "AcquisitionTime": "16:56:46.737500",
  "BandwidthPerPixelPhaseEncode": 13.935,
  "BaseResolution": 104,
  "CoilString": "C:HEA;HEP",
  "ConversionSoftware": "dcm2niix",
  "ConversionSoftwareVersion": "v1.0.20210317",
  "DerivedVendorReportedEchoSpacing": 0.000690017,
  "DeviceSerialNumber": "35450",
  "DwellTime": 2.5e-06,
  "EchoTime": 0.0348,
  "EffectiveEchoSpacing": 0.000690017,
  "FlipAngle": 55,
  "ImageComments": "Unaliased MB8/PE3 (remote)",
  "ImageOrientationPatientDICOM": [0.999879, 0.00265218, 0.0153534, -6.90248e-09, 0.985406, -0.17022],
  "ImageType": [
    "ORIGINAL",
    "PRIMARY",
    "M",
    "MB",
    "ND",
    "MOSAIC"
],
  "ImagingFrequency": 123.234,
  "InPlanePhaseEncodingDirectionDICOM": "COL",
  "InstitutionAddress": "Univeristy Ave. 197,Newark,North East,US,07102-1814",
  "InstitutionName": "RUBIC",
  "InstitutionalDepartmentName": "Department",
  "MRAcquisitionType": "2D",
  "MagneticFieldStrength": 3,
  "Manufacturer": "Siemens",
  "ManufacturersModelName": "TrioTim",
  "Modality": "MR",
  "MultibandAccelerationFactor": 8,
  "PartialFourier": 0.875,
  "PatientPosition": "HFS",
  "PercentPhaseFOV": 100,
  "PercentSampling": 100,
  "PhaseEncodingDirection": "j-",
  "PhaseEncodingSteps": 91,
  "PhaseResolution": 1,
  "PixelBandwidth": 1923,
  "ProcedureStepDescription": "Cole^Michael",
  "ProtocolName": "cmrr_mbep2d_bold_2mm_MB8_Task_8x",
  "PulseSequenceDetails": "%CustomerSeq%\\cmrr_mbep2d_bold",
  "ReceiveCoilName": "32Ch_Head",
  "ReconMatrixPE": 104,
  "RepetitionTime": 0.785,
  "SAR": 0.11964,
  "ScanOptions": "PFP\\FS",
  "ScanningSequence": "EP",
  "SequenceName": "epfid2d1_104",
  "SequenceVariant": "SK\\SS",
  "SeriesDescription": "cmrr_mbep2d_bold_2mm_MB8_Task_8x",
  "SeriesNumber": 25,
  "ShimSetting": [2151, -408, -7173, 469, -37, 201, 321, 109],
  "SliceThickness": 2,
  "SliceTiming": [0, 0.4375, 0.0875, 0.525, 0.175, 0.6125, 0.2625, 0.7, 0.35, 0, 0.4375, 0.0875, 0.525, 0.175, 0.6125, 0.2625, 0.7, 0.35, 0, 0.4375, 0.0875, 0.525, 0.175, 0.6125, 0.2625, 0.7, 0.35, 0, 0.4375, 0.0875, 0.525, 0.175, 0.6125, 0.2625, 0.7, 0.35, 0, 0.4375, 0.0875, 0.525, 0.175, 0.6125, 0.2625, 0.7, 0.35, 0, 0.4375, 0.0875, 0.525, 0.175, 0.6125, 0.2625, 0.7, 0.35, 0, 0.4375, 0.0875, 0.525, 0.175, 0.6125, 0.2625, 0.7, 0.35, 0, 0.4375, 0.0875, 0.525, 0.175, 0.6125, 0.2625, 0.7, 0.35],
  "SoftwareVersions": "syngo MR B19",
  "SpacingBetweenSlices": 2,
  "StationName": "MRC35450",
  "TaskName": "cpro",
  "TotalReadoutTime": 0.0710717,
  "TxRefAmp": 317.941,
  "dcmmeta_affine": [
    [-1.999757170677185, -1.3804969611896922e-08, 0.031161658465862274, 101.60340881347656],
    [-0.005304355174303055, 1.9708120822906494, -0.3403989374637604, -70.68885803222656],
    [0.03070688433945179, 0.3404402434825897, 1.970572829246521, -109.22383880615234],
    [0.0, 0.0, 0.0, 1.0]
],
  "dcmmeta_reorient_transform": [
    [0.0, -1.0, 0.0, 103.0],
    [1.0, 0.0, 0.0, 0.0],
    [0.0, 0.0, 1.0, 0.0],
    [0.0, 0.0, 0.0, 1.0]
],
  "dcmmeta_shape": [104, 104, 72, 581],
  "dcmmeta_slice_dim": 2,
  "dcmmeta_version": 0.6,
  "global": {
    "const": {
      "AcquisitionMatrix": [104, 0, 0, 104],
      "AngioFlag": "N",
      "BitsAllocated": 16,
      "BitsStored": 12,
      "Columns": 936,
      "EchoNumbers": 1,
      "EchoTime": 34.8,
      "EchoTrainLength": 1,
      "FlipAngle": 55.0,
      "HighBit": 11,
      "ImageOrientationPatient": [0.99987861151022, 0.00265217758516, 0.01535344255999, -6.902485e-09, 0.98540606237706, -0.1702201287467],
      "ImagePositionPatient": [-933.50240484431, -954.36924836818, 54.690592721454],
      "ImageType": [
        "ORIGINAL",
        "PRIMARY",
        "M",
        "MB",
        "ND",
        "MOSAIC"
],
      "ImagedNucleus": "1H",
      "ImagingFrequency": 123.234425,
      "InPlanePhaseEncodingDirection": "COL",
      "MRAcquisitionType": "2D",
      "MagneticFieldStrength": 3.0,
      "Manufacturer": "SIEMENS",
      "ManufacturerModelName": "TrioTim",
      "Modality": "MR",
      "NumberOfAverages": 1.0,
      "NumberOfPhaseEncodingSteps": 91,
      "PercentPhaseFieldOfView": 100.0,
      "PercentSampling": 100.0,
      "PerformedProcedureStepStartTime": "150051.781000",
      "PhotometricInterpretation": "MONOCHROME2",
      "PixelBandwidth": 1923.0,
      "PixelRepresentation": 0,
      "PixelSpacing": [2.0, 2.0],
      "ProtocolName": "cmrr_mbep2d_bold_2mm_MB8_Task_8x",
      "RepetitionTime": 785.0,
      "Rows": 936,
      "SAR": 0.11963951386141,
      "SamplesPerPixel": 1,
      "ScanOptions": [
        "PFP",
        "FS"
],
      "ScanningSequence": "EP",
      "SequenceName": "epfid2d1_104",
      "SequenceVariant": [
        "SK",
        "SS"
],
      "SeriesDescription": "cmrr_mbep2d_bold_2mm_MB8_Task_8x",
      "SeriesNumber": 25,
      "SeriesTime": "165714.140000",
      "SliceLocation": -94.002494917273,
      "SliceThickness": 2.0,
      "SmallestImagePixelValue": 0,
      "SoftwareVersions": "syngo MR B19",
      "SpacingBetweenSlices": 1.9999999945614,
      "SpecificCharacterSet": "ISO_IR 100",
      "StudyID": "1",
      "StudyTime": "150051.750000",
      "TransmitCoilName": "Body",
      "VariableFlipAngleFlag": "N",
      "WindowCenterWidthExplanation": "Algo1",
      "dBdt": 0.0},
    "slices": {}
  },
  "time": {
    "samples": {
      "AcquisitionNumber": [1, 2, 3, 4, 5, 6, 7, 8, 9, 10, 11, 12, 13, 14, 15, 16, 17, 18, 19, 20, 21, 22, 23, 24, 25, 26, 27, 28, 29, 30, 31, 32, 33, 34, 35, 36, 37, 38, 39, 40, 41, 42, 43, 44, 45, 46, 47, 48, 49, 50, 51, 52, 53, 54, 55, 56, 57, 58, 59, 60, 61, 62, 63, 64, 65, 66, 67, 68, 69, 70, 71, 72, 73, 74, 75, 76, 77, 78, 79, 80, 81, 82, 83, 84, 85, 86, 87, 88, 89, 90, 91, 92, 93, 94, 95, 96, 97, 98, 99, 100, 101, 102, 103, 104, 105, 106, 107, 108, 109, 110, 111, 112, 113, 114, 115, 116, 117, 118, 119, 120, 121, 122, 123, 124, 125, 126, 127, 128, 129, 130, 131, 132, 133, 134, 135, 136, 137, 138, 139, 140, 141, 142, 143, 144, 145, 146, 147, 148, 149, 150, 151, 152, 153, 154, 155, 156, 157, 158, 159, 160, 161, 162, 163, 164, 165, 166, 167, 168, 169, 170, 171, 172, 173, 174, 175, 176, 177, 178, 179, 180, 181, 182, 183, 184, 185, 186, 187, 188, 189, 190, 191, 192, 193, 194, 195, 196, 197, 198, 199, 200, 201, 202, 203, 204, 205, 206, 207, 208, 209, 210, 211, 212, 213, 214, 215, 216, 217, 218, 219, 220, 221, 222, 223, 224, 225, 226, 227, 228, 229, 230, 231, 232, 233, 234, 235, 236, 237, 238, 239, 240, 241, 242, 243, 244, 245, 246, 247, 248, 249, 250, 251, 252, 253, 254, 255, 256, 257, 258, 259, 260, 261, 262, 263, 264, 265, 266, 267, 268, 269, 270, 271, 272, 273, 274, 275, 276, 277, 278, 279, 280, 281, 282, 283, 284, 285, 286, 287, 288, 289, 290, 291, 292, 293, 294, 295, 296, 297, 298, 299, 300, 301, 302, 303, 304, 305, 306, 307, 308, 309, 310, 311, 312, 313, 314, 315, 316, 317, 318, 319, 320, 321, 322, 323, 324, 325, 326, 327, 328, 329, 330, 331, 332, 333, 334, 335, 336, 337, 338, 339, 340, 341, 342, 343, 344, 345, 346, 347, 348, 349, 350, 351, 352, 353, 354, 355, 356, 357, 358, 359, 360, 361, 362, 363, 364, 365, 366, 367, 368, 369, 370, 371, 372, 373, 374, 375, 376, 377, 378, 379, 380, 381, 382, 383, 384, 385, 386, 387, 388, 389, 390, 391, 392, 393, 394, 395, 396, 397, 398, 399, 400, 401, 402, 403, 404, 405, 406, 407, 408, 409, 410, 411, 412, 413, 414, 415, 416, 417, 418, 419, 420, 421, 422, 423, 424, 425, 426, 427, 428, 429, 430, 431, 432, 433, 434, 435, 436, 437, 438, 439, 440, 441, 442, 443, 444, 445, 446, 447, 448, 449, 450, 451, 452, 453, 454, 455, 456, 457, 458, 459, 460, 461, 462, 463, 464, 465, 466, 467, 468, 469, 470, 471, 472, 473, 474, 475, 476, 477, 478, 479, 480, 481, 482, 483, 484, 485, 486, 487, 488, 489, 490, 491, 492, 493, 494, 495, 496, 497, 498, 499, 500, 501, 502, 503, 504, 505, 506, 507, 508, 509, 510, 511, 512, 513, 514, 515, 516, 517, 518, 519, 520, 521, 522, 523, 524, 525, 526, 527, 528, 529, 530, 531, 532, 533, 534, 535, 536, 537, 538, 539, 540, 541, 542, 543, 544, 545, 546, 547, 548, 549, 550, 551, 552, 553, 554, 555, 556, 557, 558, 559, 560, 561, 562, 563, 564, 565, 566, 567, 568, 569, 570, 571, 572, 573, 574, 575, 576, 577, 578, 579, 580, 581],
      "AcquisitionTime": ["165646.737500", "165647.525000", "165648.312500", "165649.102500", "165649.890000", "165650.677500", "165651.467500", "165652.255000", "165653.042500", "165653.830000", "165654.620000", "165655.407500", "165656.195000", "165656.982500", "165657.772500", "165658.560000", "165659.347500", "165700.135000", "165700.925000", "165701.712500", "165702.500000", "165703.287500", "165704.077500", "165704.865000", "165705.652500", "165706.440000", "165707.230000", "165708.017500", "165708.805000", "165709.595000", "165710.382500", "165711.170000", "165711.957500", "165712.747500", "165713.535000", "165714.322500", "165715.110000", "165715.900000", "165716.687500", "165717.475000", "165718.262500", "165719.052500", "165719.840000", "165720.627500", "165721.415000", "165722.205000", "165722.992500", "165723.780000", "165724.567500", "165725.357500", "165726.145000", "165726.932500", "165727.722500", "165728.510000", "165729.297500", "165730.085000", "165730.875000", "165731.662500", "165732.450000", "165733.237500", "165734.027500", "165734.815000", "165735.602500", "165736.390000", "165737.180000", "165737.967500", "165738.755000", "165739.542500", "165740.332500", "165741.120000", "165741.907500", "165742.695000", "165743.485000", "165744.272500", "165745.060000", "165745.850000", "165746.637500", "165747.425000", "165748.212500", "165749.002500", "165749.790000", "165750.577500", "165751.365000", "165752.155000", "165752.942500", "165753.730000", "165754.517500", "165755.307500", "165756.095000", "165756.882500", "165757.670000", "165758.460000", "165759.247500", "165800.035000", "165800.822500", "165801.612500", "165802.400000", "165803.187500", "165803.977500", "165804.765000", "165805.552500", "165806.340000", "165807.130000", "165807.917500", "165808.705000", "165809.492500", "165810.282500", "165811.070000", "165811.857500", "165812.645000", "165813.435000", "165814.222500", "165815.010000", "165815.797500", "165816.587500", "165817.375000", "165818.162500", "165818.950000", "165819.740000", "165820.527500", "165821.315000", "165822.105000", "165822.892500", "165823.680000", "165824.467500", "165825.257500", "165826.045000", "165826.832500", "165827.620000", "165828.410000", "165829.197500", "165829.985000", "165830.772500", "165831.562500", "165832.350000", "165833.137500", "165833.925000", "165834.715000", "165835.502500", "165836.290000", "165837.077500", "165837.867500", "165838.655000", "165839.442500", "165840.232500", "165841.020000", "165841.807500", "165842.595000", "165843.385000", "165844.172500", "165844.960000", "165845.747500", "165846.537500", "165847.325000", "165848.112500", "165848.900000", "165849.690000", "165850.477500", "165851.265000", "165852.052500", "165852.842500", "165853.630000", "165854.417500", "165855.205000", "165855.995000", "165856.782500", "165857.570000", "165858.360000", "165859.147500", "165859.935000", "165900.722500", "165901.512500", "165902.300000", "165903.087500", "165903.875000", "165904.665000", "165905.452500", "165906.240000", "165907.027500", "165907.817500", "165908.605000", "165909.392500", "165910.180000", "165910.970000", "165911.757500", "165912.545000", "165913.332500", "165914.122500", "165914.910000", "165915.697500", "165916.487500", "165917.275000", "165918.062500", "165918.850000", "165919.640000", "165920.427500", "165921.215000", "165922.002500", "165922.792500", "165923.580000", "165924.367500", "165925.155000", "165925.945000", "165926.732500", "165927.520000", "165928.307500", "165929.097500", "165929.885000", "165930.672500", "165931.460000", "165932.250000", "165933.037500", "165933.825000", "165934.615000", "165935.402500", "165936.190000", "165936.977500", "165937.767500", "165938.555000", "165939.342500", "165940.130000", "165940.920000", "165941.707500", "165942.495000", "165943.282500", "165944.072500", "165944.860000", "165945.647500", "165946.435000", "165947.225000", "165948.012500", "165948.800000", "165949.590000", "165950.377500", "165951.165000", "165951.952500", "165952.742500", "165953.530000", "165954.317500", "165955.105000", "165955.895000", "165956.682500", "165957.470000", "165958.257500", "165959.047500", "165959.835000", "170000.622500", "170001.410000", "170002.200000", "170002.987500", "170003.775000", "170004.562500", "170005.352500", "170006.140000", "170006.927500", "170007.717500", "170008.505000", "170009.292500", "170010.080000", "170010.870000", "170011.657500", "170012.445000", "170013.232500", "170014.022500", "170014.810000", "170015.597500", "170016.385000", "170017.175000", "170017.962500", "170018.750000", "170019.537500", "170020.327500", "170021.115000", "170021.902500", "170022.690000", "170023.480000", "170024.267500", "170025.055000", "170025.845000", "170026.632500", "170027.420000", "170028.207500", "170028.997500", "170029.785000", "170030.572500", "170031.360000", "170032.150000", "170032.937500", "170033.725000", "170034.512500", "170035.302500", "170036.090000", "170036.877500", "170037.665000", "170038.455000", "170039.242500", "170040.030000", "170040.817500", "170041.607500", "170042.395000", "170043.182500", "170043.972500", "170044.760000", "170045.547500", "170046.335000", "170047.125000", "170047.912500", "170048.700000", "170049.487500", "170050.277500", "170051.065000", "170051.852500", "170052.640000", "170053.430000", "170054.217500", "170055.005000", "170055.792500", "170056.582500", "170057.370000", "170058.157500", "170058.945000", "170059.735000", "170100.522500", "170101.310000", "170102.100000", "170102.887500", "170103.675000", "170104.462500", "170105.252500", "170106.040000", "170106.827500", "170107.615000", "170108.405000", "170109.192500", "170109.980000", "170110.767500", "170111.557500", "170112.345000", "170113.132500", "170113.920000", "170114.710000", "170115.497500", "170116.285000", "170117.072500", "170117.862500", "170118.650000", "170119.437500", "170120.227500", "170121.015000", "170121.802500", "170122.590000", "170123.380000", "170124.167500", "170124.955000", "170125.742500", "170126.532500", "170127.320000", "170128.107500", "170128.895000", "170129.685000", "170130.472500", "170131.260000", "170132.047500", "170132.837500", "170133.625000", "170134.412500", "170135.200000", "170135.990000", "170136.777500", "170137.565000", "170138.355000", "170139.142500", "170139.930000", "170140.717500", "170141.507500", "170142.295000", "170143.082500", "170143.870000", "170144.660000", "170145.447500", "170146.235000", "170147.022500", "170147.812500", "170148.600000", "170149.387500", "170150.175000", "170150.965000", "170151.752500", "170152.540000", "170153.327500", "170154.117500", "170154.905000", "170155.692500", "170156.482500", "170157.270000", "170158.057500", "170158.845000", "170159.635000", "170200.422500", "170201.210000", "170201.997500", "170202.787500", "170203.575000", "170204.362500", "170205.150000", "170205.940000", "170206.727500", "170207.515000", "170208.302500", "170209.092500", "170209.880000", "170210.667500", "170211.455000", "170212.245000", "170213.032500", "170213.820000", "170214.610000", "170215.397500", "170216.185000", "170216.972500", "170217.762500", "170218.550000", "170219.337500", "170220.125000", "170220.915000", "170221.702500", "170222.490000", "170223.277500", "170224.067500", "170224.855000", "170225.642500", "170226.430000", "170227.220000", "170228.007500", "170228.795000", "170229.582500", "170230.372500", "170231.160000", "170231.947500", "170232.737500", "170233.525000", "170234.312500", "170235.100000", "170235.890000", "170236.677500", "170237.465000", "170238.252500", "170239.042500", "170239.830000", "170240.617500", "170241.405000", "170242.195000", "170242.982500", "170243.770000", "170244.557500", "170245.347500", "170246.135000", "170246.922500", "170247.710000", "170248.500000", "170249.287500", "170250.075000", "170250.865000", "170251.652500", "170252.440000", "170253.227500", "170254.017500", "170254.805000", "170255.592500", "170256.380000", "170257.170000", "170257.957500", "170258.745000", "170259.532500", "170300.322500", "170301.110000", "170301.897500", "170302.685000", "170303.475000", "170304.262500", "170305.050000", "170305.840000", "170306.627500", "170307.415000", "170308.202500", "170308.992500", "170309.780000", "170310.567500", "170311.355000", "170312.145000", "170312.932500", "170313.720000", "170314.507500", "170315.297500", "170316.085000", "170316.872500", "170317.660000", "170318.450000", "170319.237500", "170320.025000", "170320.812500", "170321.602500", "170322.390000", "170323.177500", "170323.967500", "170324.755000", "170325.542500", "170326.330000", "170327.120000", "170327.907500", "170328.695000", "170329.482500", "170330.272500", "170331.060000", "170331.847500", "170332.635000", "170333.425000", "170334.212500", "170335.000000", "170335.787500", "170336.577500", "170337.365000", "170338.152500", "170338.940000", "170339.730000", "170340.517500", "170341.305000", "170342.095000", "170342.882500", "170343.670000", "170344.457500", "170345.247500", "170346.035000", "170346.822500", "170347.610000", "170348.400000", "170349.187500", "170349.975000", "170350.762500", "170351.552500", "170352.340000", "170353.127500", "170353.915000", "170354.705000", "170355.492500", "170356.280000", "170357.067500", "170357.857500", "170358.645000", "170359.432500", "170400.222500", "170401.010000", "170401.797500", "170402.585000", "170403.375000", "170404.162500", "170404.950000", "170405.737500", "170406.527500", "170407.315000", "170408.102500", "170408.890000", "170409.680000", "170410.467500", "170411.255000", "170412.042500", "170412.832500", "170413.620000", "170414.407500", "170415.195000", "170415.985000", "170416.772500", "170417.560000", "170418.350000", "170419.137500", "170419.925000", "170420.712500", "170421.502500", "170422.290000", "170423.077500", "170423.865000"],
      "ContentTime": ["165714.156000", "165714.156000", "165714.156000", "165714.156000", "165714.156000", "165714.156000", "165714.156000", "165714.171000", "165714.171000", "165714.171000", "165714.171000", "165714.171000", "165714.171000", "165714.171000", "165714.187000", "165714.187000", "165714.187000", "165714.187000", "165714.187000", "165714.187000", "165714.187000", "165714.203000", "165714.203000", "165714.203000", "165714.203000", "165714.203000", "165714.203000", "165714.203000", "165714.218000", "165714.218000", "165714.218000", "165734.109000", "165734.125000", "165734.125000", "165734.125000", "165734.125000", "165734.125000", "165734.125000", "165734.125000", "165734.140000", "165734.140000", "165734.140000", "165734.140000", "165734.140000", "165734.140000", "165734.140000", "165734.156000", "165734.156000", "165734.156000", "165734.156000", "165734.156000", "165734.171000", "165734.171000", "165734.171000", "165734.171000", "165734.171000", "165754.109000", "165754.125000", "165754.125000", "165754.125000", "165754.125000", "165754.125000", "165754.125000", "165754.140000", "165754.140000", "165754.140000", "165754.140000", "165754.140000", "165754.140000", "165754.156000", "165754.156000", "165754.156000", "165754.156000", "165754.156000", "165754.156000", "165754.156000", "165754.171000", "165754.171000", "165754.171000", "165754.171000", "165754.171000", "165754.187000", "165814.109000", "165814.125000", "165814.125000", "165814.125000", "165814.125000", "165814.125000", "165814.125000", "165814.125000", "165814.140000", "165814.140000", "165814.140000", "165814.140000", "165814.140000", "165814.140000", "165814.156000", "165814.156000", "165814.156000", "165814.156000", "165814.156000", "165814.156000", "165814.156000", "165814.171000", "165814.171000", "165814.171000", "165814.171000", "165834.109000", "165834.125000", "165834.125000", "165834.125000", "165834.125000", "165834.125000", "165834.125000", "165834.140000", "165834.140000", "165834.140000", "165834.140000", "165834.140000", "165834.140000", "165834.140000", "165834.156000", "165834.156000", "165834.156000", "165834.156000", "165834.156000", "165834.156000", "165834.156000", "165834.171000", "165834.171000", "165834.171000", "165834.171000", "165834.171000", "165854.109000", "165854.125000", "165854.125000", "165854.125000", "165854.125000", "165854.125000", "165854.125000", "165854.125000", "165854.140000", "165854.140000", "165854.140000", "165854.140000", "165854.140000", "165854.140000", "165854.156000", "165854.156000", "165854.156000", "165854.156000", "165854.156000", "165854.156000", "165854.156000", "165854.156000", "165854.171000", "165854.171000", "165854.171000", "165914.109000", "165914.125000", "165914.125000", "165914.125000", "165914.125000", "165914.125000", "165914.125000", "165914.140000", "165914.140000", "165914.140000", "165914.140000", "165914.140000", "165914.140000", "165914.140000", "165914.156000", "165914.156000", "165914.156000", "165914.156000", "165914.156000", "165914.156000", "165914.156000", "165914.171000", "165914.171000", "165914.171000", "165914.171000", "165914.187000", "165934.109000", "165934.125000", "165934.125000", "165934.125000", "165934.125000", "165934.125000", "165934.125000", "165934.140000", "165934.140000", "165934.140000", "165934.140000", "165934.140000", "165934.140000", "165934.140000", "165934.156000", "165934.156000", "165934.156000", "165934.156000", "165934.156000", "165934.156000", "165934.156000", "165934.171000", "165934.171000", "165934.171000", "165934.171000", "165954.109000", "165954.125000", "165954.125000", "165954.125000", "165954.125000", "165954.125000", "165954.125000", "165954.125000", "165954.140000", "165954.140000", "165954.140000", "165954.140000", "165954.140000", "165954.140000", "165954.140000", "165954.156000", "165954.156000", "165954.156000", "165954.156000", "165954.156000", "165954.156000", "165954.156000", "165954.171000", "165954.171000", "165954.171000", "165954.171000", "170014.109000", "170014.125000", "170014.125000", "170014.125000", "170014.125000", "170014.125000", "170014.125000", "170014.140000", "170014.140000", "170014.140000", "170014.140000", "170014.140000", "170014.140000", "170014.140000", "170014.156000", "170014.156000", "170014.156000", "170014.156000", "170014.156000", "170014.156000", "170014.156000", "170014.171000", "170014.171000", "170014.171000", "170014.171000", "170034.109000", "170034.125000", "170034.125000", "170034.125000", "170034.125000", "170034.125000", "170034.125000", "170034.140000", "170034.140000", "170034.140000", "170034.140000", "170034.140000", "170034.156000", "170034.156000", "170034.156000", "170034.156000", "170034.156000", "170034.156000", "170034.156000", "170034.171000", "170034.171000", "170034.171000", "170034.171000", "170034.171000", "170034.171000", "170034.171000", "170054.109000", "170054.125000", "170054.125000", "170054.125000", "170054.125000", "170054.125000", "170054.125000", "170054.140000", "170054.140000", "170054.140000", "170054.140000", "170054.140000", "170054.140000", "170054.140000", "170054.156000", "170054.156000", "170054.156000", "170054.156000", "170054.156000", "170054.156000", "170054.156000", "170054.171000", "170054.171000", "170054.171000", "170054.171000", "170114.109000", "170114.125000", "170114.125000", "170114.125000", "170114.125000", "170114.125000", "170114.125000", "170114.140000", "170114.140000", "170114.140000", "170114.140000", "170114.140000", "170114.140000", "170114.140000", "170114.156000", "170114.156000", "170114.156000", "170114.156000", "170114.156000", "170114.156000", "170114.156000", "170114.171000", "170114.171000", "170114.171000", "170114.171000", "170114.171000", "170134.109000", "170134.125000", "170134.125000", "170134.125000", "170134.125000", "170134.125000", "170134.125000", "170134.125000", "170134.140000", "170134.140000", "170134.140000", "170134.140000", "170134.140000", "170134.140000", "170134.156000", "170134.156000", "170134.156000", "170134.156000", "170134.156000", "170134.156000", "170134.156000", "170134.171000", "170134.171000", "170134.171000", "170134.171000", "170154.109000", "170154.125000", "170154.125000", "170154.156000", "170154.156000", "170154.156000", "170154.156000", "170154.156000", "170154.156000", "170154.171000", "170154.171000", "170154.171000", "170154.171000", "170154.187000", "170154.187000", "170154.187000", "170154.187000", "170154.187000", "170154.187000", "170154.187000", "170154.203000", "170154.203000", "170154.203000", "170154.203000", "170154.203000", "170214.109000", "170214.125000", "170214.125000", "170214.125000", "170214.125000", "170214.125000", "170214.125000", "170214.125000", "170214.140000", "170214.140000", "170214.140000", "170214.140000", "170214.140000", "170214.140000", "170214.140000", "170214.156000", "170214.156000", "170214.156000", "170214.156000", "170214.156000", "170214.156000", "170214.156000", "170214.171000", "170214.171000", "170214.171000", "170214.171000", "170234.109000", "170234.125000", "170234.125000", "170234.125000", "170234.125000", "170234.125000", "170234.125000", "170234.140000", "170234.140000", "170234.140000", "170234.140000", "170234.140000", "170234.140000", "170234.156000", "170234.156000", "170234.156000", "170234.156000", "170234.156000", "170234.156000", "170234.156000", "170234.171000", "170234.171000", "170234.171000", "170234.171000", "170234.187000", "170254.109000", "170254.125000", "170254.125000", "170254.125000", "170254.125000", "170254.125000", "170254.125000", "170254.140000", "170254.140000", "170254.140000", "170254.140000", "170254.140000", "170254.140000", "170254.140000", "170254.156000", "170254.156000", "170254.156000", "170254.156000", "170254.156000", "170254.156000", "170254.156000", "170254.171000", "170254.171000", "170254.171000", "170254.171000", "170254.171000", "170314.109000", "170314.125000", "170314.125000", "170314.125000", "170314.125000", "170314.125000", "170314.140000", "170314.140000", "170314.140000", "170314.140000", "170314.140000", "170314.140000", "170314.140000", "170314.156000", "170314.156000", "170314.156000", "170314.156000", "170314.156000", "170314.156000", "170314.156000", "170314.171000", "170314.171000", "170314.171000", "170314.171000", "170314.171000", "170334.109000", "170334.125000", "170334.125000", "170334.125000", "170334.125000", "170334.125000", "170334.125000", "170334.125000", "170334.140000", "170334.140000", "170334.140000", "170334.140000", "170334.140000", "170334.140000", "170334.156000", "170334.156000", "170334.156000", "170334.156000", "170334.156000", "170334.156000", "170334.156000", "170334.171000", "170334.171000", "170334.171000", "170334.171000", "170334.171000", "170354.109000", "170354.125000", "170354.125000", "170354.125000", "170354.125000", "170354.125000", "170354.140000", "170354.140000", "170354.140000", "170354.156000", "170354.156000", "170354.156000", "170354.156000", "170354.171000", "170354.171000", "170354.171000", "170354.171000", "170354.171000", "170354.171000", "170354.187000", "170354.187000", "170354.187000", "170354.187000", "170354.187000", "170354.187000", "170414.109000", "170414.125000", "170414.125000", "170414.125000", "170414.125000", "170414.125000", "170414.140000", "170414.140000", "170414.140000", "170414.140000", "170414.140000", "170414.140000", "170414.140000", "170414.156000", "170414.156000", "170414.156000", "170414.156000", "170414.156000", "170414.156000", "170414.156000", "170414.171000", "170414.171000", "170414.171000", "170414.171000", "170414.171000", "170414.187000", "170425.656000", "170425.656000", "170425.656000", "170425.671000", "170425.671000", "170425.671000", "170425.671000", "170425.671000", "170425.671000", "170425.671000", "170425.687000", "170425.687000", "170425.687000", "170425.687000", "170425.687000"],
      "DataSetTrailingPadding": [
        "\u0000\u0000\u0000\u0000\u0000\u0000\u0000\u0000\u0000\u0000\u0000\u0000\u0000\u0000\u0000\u0000\u0000\u0000\u0000\u0000\u0000\u0000\u0000\u0000\u0000\u0000\u0000\u0000\u0000\u0000\u0000\u0000\u0000\u0000\u0000\u0000\u0000\u0000\u0000\u0000\u0000\u0000\u0000\u0000\u0000\u0000\u0000\u0000\u0000\u0000\u0000\u0000\u0000\u0000\u0000\u0000\u0000\u0000\u0000\u0000\u0000\u0000\u0000\u0000\u0000\u0000\u0000\u0000\u0000\u0000\u0000\u0000\u0000\u0000\u0000\u0000\u0000\u0000\u0000\u0000\u0000\u0000\u0000\u0000\u0000\u0000\u0000\u0000\u0000\u0000\u0000\u0000\u0000\u0000\u0000\u0000\u0000\u0000\u0000\u0000\u0000\u0000\u0000\u0000\u0000\u0000\u0000\u0000\u0000\u0000\u0000\u0000\u0000\u0000\u0000\u0000\u0000\u0000\u0000\u0000",
        "\u0000\u0000\u0000\u0000\u0000\u0000\u0000\u0000\u0000\u0000\u0000\u0000\u0000\u0000\u0000\u0000\u0000\u0000\u0000\u0000\u0000\u0000\u0000\u0000\u0000\u0000\u0000\u0000\u0000\u0000\u0000\u0000\u0000\u0000\u0000\u0000\u0000\u0000\u0000\u0000\u0000\u0000\u0000\u0000\u0000\u0000\u0000\u0000\u0000\u0000\u0000\u0000\u0000\u0000\u0000\u0000\u0000\u0000\u0000\u0000\u0000\u0000\u0000\u0000\u0000\u0000\u0000\u0000\u0000\u0000\u0000\u0000\u0000\u0000\u0000\u0000\u0000\u0000\u0000\u0000\u0000\u0000\u0000\u0000\u0000\u0000\u0000\u0000\u0000\u0000\u0000\u0000\u0000\u0000\u0000\u0000\u0000\u0000\u0000\u0000\u0000\u0000\u0000\u0000\u0000\u0000\u0000\u0000\u0000\u0000\u0000\u0000\u0000\u0000\u0000\u0000\u0000\u0000\u0000\u0000",
