{
  "AcquisitionMatrixPE": 104,
  "AcquisitionNumber": 1,
  "AcquisitionTime": "15:43:22.057500",
  "BandwidthPerPixelPhaseEncode": 13.935,
  "BaseResolution": 104,
  "CoilString": "C:HEA;HEP",
  "ConversionSoftware": "dcm2niix",
  "ConversionSoftwareVersion": "v1.0.20210317",
  "DerivedVendorReportedEchoSpacing": 0.000690017,
  "DeviceSerialNumber": "35450",
  "DwellTime": 2.5e-06,
  "EchoTime": 0.0348,
  "EffectiveEchoSpacing": 0.000690017,
  "FlipAngle": 55,
  "ImageComments": "Unaliased MB8/PE3 (remote)",
  "ImageOrientationPatientDICOM": [0.999879, 0.00265218, 0.0153534, -6.90248e-09, 0.985406, -0.17022],
  "ImageType": [
    "ORIGINAL",
    "PRIMARY",
    "M",
    "MB",
    "ND",
    "MOSAIC"
],
  "ImagingFrequency": 123.234,
  "InPlanePhaseEncodingDirectionDICOM": "COL",
  "InstitutionAddress": "Univeristy Ave. 197,Newark,North East,US,07102-1814",
  "InstitutionName": "RUBIC",
  "InstitutionalDepartmentName": "Department",
  "MRAcquisitionType": "2D",
  "MagneticFieldStrength": 3,
  "Manufacturer": "Siemens",
  "ManufacturersModelName": "TrioTim",
  "Modality": "MR",
  "MultibandAccelerationFactor": 8,
  "PartialFourier": 0.875,
  "PatientPosition": "HFS",
  "PercentPhaseFOV": 100,
  "PercentSampling": 100,
  "PhaseEncodingDirection": "j-",
  "PhaseEncodingSteps": 91,
  "PhaseResolution": 1,
  "PixelBandwidth": 1923,
  "ProcedureStepDescription": "Cole^Michael",
  "ProtocolName": "cmrr_mbep2d_bold_2mm_MB8_Rest",
  "PulseSequenceDetails": "%CustomerSeq%\\cmrr_mbep2d_bold",
  "ReceiveCoilName": "32Ch_Head",
  "ReconMatrixPE": 104,
  "RepetitionTime": 0.785,
  "SAR": 0.138998,
  "ScanOptions": "PFP\\FS",
  "ScanningSequence": "EP",
  "SequenceName": "epfid2d1_104",
  "SequenceVariant": "SK\\SS",
  "SeriesDescription": "cmrr_mbep2d_bold_2mm_MB8_Rest",
  "SeriesNumber": 9,
  "ShimSetting": [2151, -408, -7173, 469, -37, 201, 321, 109],
  "SliceThickness": 2,
  "SliceTiming": [0, 0.4375, 0.0875, 0.525, 0.175, 0.6125, 0.2625, 0.7, 0.35, 0, 0.4375, 0.0875, 0.525, 0.175, 0.6125, 0.2625, 0.7, 0.35, 0, 0.4375, 0.0875, 0.525, 0.175, 0.6125, 0.2625, 0.7, 0.35, 0, 0.4375, 0.0875, 0.525, 0.175, 0.6125, 0.2625, 0.7, 0.35, 0, 0.4375, 0.0875, 0.525, 0.175, 0.6125, 0.2625, 0.7, 0.35, 0, 0.4375, 0.0875, 0.525, 0.175, 0.6125, 0.2625, 0.7, 0.35, 0, 0.4375, 0.0875, 0.525, 0.175, 0.6125, 0.2625, 0.7, 0.35, 0, 0.4375, 0.0875, 0.525, 0.175, 0.6125, 0.2625, 0.7, 0.35],
  "SoftwareVersions": "syngo MR B19",
  "SpacingBetweenSlices": 2,
  "StationName": "MRC35450",
  "TaskName": "rest",
  "TotalReadoutTime": 0.0710717,
  "TxRefAmp": 317.941,
  "dcmmeta_affine": [
    [-1.999757170677185, -1.3804969611896922e-08, 0.031161658465862274, 101.60340881347656],
    [-0.005304355174303055, 1.9708120822906494, -0.3403989374637604, -70.68885803222656],
    [0.03070688433945179, 0.3404402434825897, 1.970572829246521, -109.22383880615234],
    [0.0, 0.0, 0.0, 1.0]
],
  "dcmmeta_reorient_transform": [
    [0.0, -1.0, 0.0, 103.0],
    [1.0, 0.0, 0.0, 0.0],
    [0.0, 0.0, 1.0, 0.0],
    [0.0, 0.0, 0.0, 1.0]
],
  "dcmmeta_shape": [104, 104, 72, 1070],
  "dcmmeta_slice_dim": 2,
  "dcmmeta_version": 0.6,
  "global": {
    "const": {
      "AcquisitionMatrix": [104, 0, 0, 104],
      "AngioFlag": "N",
      "BitsAllocated": 16,
      "BitsStored": 12,
      "Columns": 936,
      "EchoNumbers": 1,
      "EchoTime": 34.8,
      "EchoTrainLength": 1,
      "FlipAngle": 55.0,
      "HighBit": 11,
      "ImageOrientationPatient": [0.99987861151022, 0.00265217758516, 0.01535344255999, -6.902485e-09, 0.98540606237706, -0.1702201287467],
      "ImagePositionPatient": [-933.50240484431, -954.36924836818, 54.690592721454],
      "ImageType": [
        "ORIGINAL",
        "PRIMARY",
        "M",
        "MB",
        "ND",
        "MOSAIC"
],
      "ImagedNucleus": "1H",
      "ImagingFrequency": 123.23436,
      "InPlanePhaseEncodingDirection": "COL",
      "MRAcquisitionType": "2D",
      "MagneticFieldStrength": 3.0,
      "Manufacturer": "SIEMENS",
      "ManufacturerModelName": "TrioTim",
      "Modality": "MR",
      "NumberOfAverages": 1.0,
      "NumberOfPhaseEncodingSteps": 91,
      "PercentPhaseFieldOfView": 100.0,
      "PercentSampling": 100.0,
      "PerformedProcedureStepStartTime": "150051.781000",
      "PhotometricInterpretation": "MONOCHROME2",
      "PixelBandwidth": 1923.0,
      "PixelRepresentation": 0,
      "PixelSpacing": [2.0, 2.0],
      "ProtocolName": "cmrr_mbep2d_bold_2mm_MB8_Rest",
      "RepetitionTime": 785.0,
      "Rows": 936,
      "SAR": 0.13899793898968,
      "SamplesPerPixel": 1,
      "ScanOptions": [
        "PFP",
        "FS"
],
      "ScanningSequence": "EP",
      "SequenceName": "epfid2d1_104",
      "SequenceVariant": [
        "SK",
        "SS"
],
      "SeriesDescription": "cmrr_mbep2d_bold_2mm_MB8_Rest",
      "SeriesNumber": 9,
      "SeriesTime": "154359.734000",
      "SliceLocation": -94.002494917273,
      "SliceThickness": 2.0,
      "SmallestImagePixelValue": 0,
      "SoftwareVersions": "syngo MR B19",
      "SpacingBetweenSlices": 1.9999999945614,
      "SpecificCharacterSet": "ISO_IR 100",
      "StudyID": "1",
      "StudyTime": "150051.750000",
      "TransmitCoilName": "Body",
      "VariableFlipAngleFlag": "N",
      "WindowCenterWidthExplanation": "Algo1",
      "dBdt": 0.0},
    "slices": {}
  },
  "time": {
    "samples": {
      "AcquisitionNumber": [1, 2, 3, 4, 5, 6, 7, 8, 9, 10, 11, 12, 13, 14, 15, 16, 17, 18, 19, 20, 21, 22, 23, 24, 25, 26, 27, 28, 29, 30, 31, 32, 33, 34, 35, 36, 37, 38, 39, 40, 41, 42, 43, 44, 45, 46, 47, 48, 49, 50, 51, 52, 53, 54, 55, 56, 57, 58, 59, 60, 61, 62, 63, 64, 65, 66, 67, 68, 69, 70, 71, 72, 73, 74, 75, 76, 77, 78, 79, 80, 81, 82, 83, 84, 85, 86, 87, 88, 89, 90, 91, 92, 93, 94, 95, 96, 97, 98, 99, 100, 101, 102, 103, 104, 105, 106, 107, 108, 109, 110, 111, 112, 113, 114, 115, 116, 117, 118, 119, 120, 121, 122, 123, 124, 125, 126, 127, 128, 129, 130, 131, 132, 133, 134, 135, 136, 137, 138, 139, 140, 141, 142, 143, 144, 145, 146, 147, 148, 149, 150, 151, 152, 153, 154, 155, 156, 157, 158, 159, 160, 161, 162, 163, 164, 165, 166, 167, 168, 169, 170, 171, 172, 173, 174, 175, 176, 177, 178, 179, 180, 181, 182, 183, 184, 185, 186, 187, 188, 189, 190, 191, 192, 193, 194, 195, 196, 197, 198, 199, 200, 201, 202, 203, 204, 205, 206, 207, 208, 209, 210, 211, 212, 213, 214, 215, 216, 217, 218, 219, 220, 221, 222, 223, 224, 225, 226, 227, 228, 229, 230, 231, 232, 233, 234, 235, 236, 237, 238, 239, 240, 241, 242, 243, 244, 245, 246, 247, 248, 249, 250, 251, 252, 253, 254, 255, 256, 257, 258, 259, 260, 261, 262, 263, 264, 265, 266, 267, 268, 269, 270, 271, 272, 273, 274, 275, 276, 277, 278, 279, 280, 281, 282, 283, 284, 285, 286, 287, 288, 289, 290, 291, 292, 293, 294, 295, 296, 297, 298, 299, 300, 301, 302, 303, 304, 305, 306, 307, 308, 309, 310, 311, 312, 313, 314, 315, 316, 317, 318, 319, 320, 321, 322, 323, 324, 325, 326, 327, 328, 329, 330, 331, 332, 333, 334, 335, 336, 337, 338, 339, 340, 341, 342, 343, 344, 345, 346, 347, 348, 349, 350, 351, 352, 353, 354, 355, 356, 357, 358, 359, 360, 361, 362, 363, 364, 365, 366, 367, 368, 369, 370, 371, 372, 373, 374, 375, 376, 377, 378, 379, 380, 381, 382, 383, 384, 385, 386, 387, 388, 389, 390, 391, 392, 393, 394, 395, 396, 397, 398, 399, 400, 401, 402, 403, 404, 405, 406, 407, 408, 409, 410, 411, 412, 413, 414, 415, 416, 417, 418, 419, 420, 421, 422, 423, 424, 425, 426, 427, 428, 429, 430, 431, 432, 433, 434, 435, 436, 437, 438, 439, 440, 441, 442, 443, 444, 445, 446, 447, 448, 449, 450, 451, 452, 453, 454, 455, 456, 457, 458, 459, 460, 461, 462, 463, 464, 465, 466, 467, 468, 469, 470, 471, 472, 473, 474, 475, 476, 477, 478, 479, 480, 481, 482, 483, 484, 485, 486, 487, 488, 489, 490, 491, 492, 493, 494, 495, 496, 497, 498, 499, 500, 501, 502, 503, 504, 505, 506, 507, 508, 509, 510, 511, 512, 513, 514, 515, 516, 517, 518, 519, 520, 521, 522, 523, 524, 525, 526, 527, 528, 529, 530, 531, 532, 533, 534, 535, 536, 537, 538, 539, 540, 541, 542, 543, 544, 545, 546, 547, 548, 549, 550, 551, 552, 553, 554, 555, 556, 557, 558, 559, 560, 561, 562, 563, 564, 565, 566, 567, 568, 569, 570, 571, 572, 573, 574, 575, 576, 577, 578, 579, 580, 581, 582, 583, 584, 585, 586, 587, 588, 589, 590, 591, 592, 593, 594, 595, 596, 597, 598, 599, 600, 601, 602, 603, 604, 605, 606, 607, 608, 609, 610, 611, 612, 613, 614, 615, 616, 617, 618, 619, 620, 621, 622, 623, 624, 625, 626, 627, 628, 629, 630, 631, 632, 633, 634, 635, 636, 637, 638, 639, 640, 641, 642, 643, 644, 645, 646, 647, 648, 649, 650, 651, 652, 653, 654, 655, 656, 657, 658, 659, 660, 661, 662, 663, 664, 665, 666, 667, 668, 669, 670, 671, 672, 673, 674, 675, 676, 677, 678, 679, 680, 681, 682, 683, 684, 685, 686, 687, 688, 689, 690, 691, 692, 693, 694, 695, 696, 697, 698, 699, 700, 701, 702, 703, 704, 705, 706, 707, 708, 709, 710, 711, 712, 713, 714, 715, 716, 717, 718, 719, 720, 721, 722, 723, 724, 725, 726, 727, 728, 729, 730, 731, 732, 733, 734, 735, 736, 737, 738, 739, 740, 741, 742, 743, 744, 745, 746, 747, 748, 749, 750, 751, 752, 753, 754, 755, 756, 757, 758, 759, 760, 761, 762, 763, 764, 765, 766, 767, 768, 769, 770, 771, 772, 773, 774, 775, 776, 777, 778, 779, 780, 781, 782, 783, 784, 785, 786, 787, 788, 789, 790, 791, 792, 793, 794, 795, 796, 797, 798, 799, 800, 801, 802, 803, 804, 805, 806, 807, 808, 809, 810, 811, 812, 813, 814, 815, 816, 817, 818, 819, 820, 821, 822, 823, 824, 825, 826, 827, 828, 829, 830, 831, 832, 833, 834, 835, 836, 837, 838, 839, 840, 841, 842, 843, 844, 845, 846, 847, 848, 849, 850, 851, 852, 853, 854, 855, 856, 857, 858, 859, 860, 861, 862, 863, 864, 865, 866, 867, 868, 869, 870, 871, 872, 873, 874, 875, 876, 877, 878, 879, 880, 881, 882, 883, 884, 885, 886, 887, 888, 889, 890, 891, 892, 893, 894, 895, 896, 897, 898, 899, 900, 901, 902, 903, 904, 905, 906, 907, 908, 909, 910, 911, 912, 913, 914, 915, 916, 917, 918, 919, 920, 921, 922, 923, 924, 925, 926, 927, 928, 929, 930, 931, 932, 933, 934, 935, 936, 937, 938, 939, 940, 941, 942, 943, 944, 945, 946, 947, 948, 949, 950, 951, 952, 953, 954, 955, 956, 957, 958, 959, 960, 961, 962, 963, 964, 965, 966, 967, 968, 969, 970, 971, 972, 973, 974, 975, 976, 977, 978, 979, 980, 981, 982, 983, 984, 985, 986, 987, 988, 989, 990, 991, 992, 993, 994, 995, 996, 997, 998, 999, 1000, 1001, 1002, 1003, 1004, 1005, 1006, 1007, 1008, 1009, 1010, 1011, 1012, 1013, 1014, 1015, 1016, 1017, 1018, 1019, 1020, 1021, 1022, 1023, 1024, 1025, 1026, 1027, 1028, 1029, 1030, 1031, 1032, 1033, 1034, 1035, 1036, 1037, 1038, 1039, 1040, 1041, 1042, 1043, 1044, 1045, 1046, 1047, 1048, 1049, 1050, 1051, 1052, 1053, 1054, 1055, 1056, 1057, 1058, 1059, 1060, 1061, 1062, 1063, 1064, 1065, 1066, 1067, 1068, 1069, 1070],
      "AcquisitionTime": ["154322.057500", "154322.845000", "154323.635000", "154324.422500", "154325.210000", "154325.997500", "154326.787500", "154327.575000", "154328.362500", "154329.152500", "154329.940000", "154330.727500", "154331.515000", "154332.305000", "154333.092500", "154333.880000", "154334.667500", "154335.457500", "154336.245000", "154337.032500", "154337.820000", "154338.610000", "154339.397500", "154340.185000", "154340.972500", "154341.762500", "154342.550000", "154343.337500", "154344.125000", "154344.915000", "154345.702500", "154346.490000", "154347.280000", "154348.067500", "154348.855000", "154349.642500", "154350.432500", "154351.220000", "154352.007500", "154352.795000", "154353.585000", "154354.372500", "154355.160000", "154355.947500", "154356.737500", "154357.525000", "154358.312500", "154359.100000", "154359.890000", "154400.677500", "154401.465000", "154402.252500", "154403.042500", "154403.830000", "154404.617500", "154405.407500", "154406.195000", "154406.982500", "154407.770000", "154408.560000", "154409.347500", "154410.135000", "154410.922500", "154411.712500", "154412.500000", "154413.287500", "154414.075000", "154414.865000", "154415.652500", "154416.440000", "154417.227500", "154418.017500", "154418.805000", "154419.592500", "154420.382500", "154421.170000", "154421.957500", "154422.745000", "154423.535000", "154424.322500", "154425.110000", "154425.897500", "154426.687500", "154427.475000", "154428.262500", "154429.050000", "154429.840000", "154430.627500", "154431.415000", "154432.202500", "154432.992500", "154433.780000", "154434.567500", "154435.355000", "154436.145000", "154436.932500", "154437.720000", "154438.510000", "154439.297500", "154440.085000", "154440.872500", "154441.662500", "154442.450000", "154443.237500", "154444.025000", "154444.815000", "154445.602500", "154446.390000", "154447.177500", "154447.967500", "154448.755000", "154449.542500", "154450.330000", "154451.120000", "154451.907500", "154452.695000", "154453.482500", "154454.272500", "154455.060000", "154455.847500", "154456.637500", "154457.425000", "154458.212500", "154459.000000", "154459.790000", "154500.577500", "154501.365000", "154502.152500", "154502.942500", "154503.730000", "154504.517500", "154505.305000", "154506.095000", "154506.882500", "154507.670000", "154508.457500", "154509.247500", "154510.035000", "154510.822500", "154511.610000", "154512.400000", "154513.187500", "154513.975000", "154514.765000", "154515.552500", "154516.340000", "154517.127500", "154517.917500", "154518.705000", "154519.492500", "154520.280000", "154521.070000", "154521.857500", "154522.645000", "154523.432500", "154524.222500", "154525.010000", "154525.797500", "154526.585000", "154527.375000", "154528.162500", "154528.950000", "154529.737500", "154530.527500", "154531.315000", "154532.102500", "154532.892500", "154533.680000", "154534.467500", "154535.255000", "154536.045000", "154536.832500", "154537.620000", "154538.407500", "154539.197500", "154539.985000", "154540.772500", "154541.560000", "154542.350000", "154543.137500", "154543.925000", "154544.712500", "154545.502500", "154546.290000", "154547.077500", "154547.865000", "154548.655000", "154549.442500", "154550.230000", "154551.020000", "154551.807500", "154552.595000", "154553.382500", "154554.172500", "154554.960000", "154555.747500", "154556.535000", "154557.325000", "154558.112500", "154558.900000", "154559.687500", "154600.477500", "154601.265000", "154602.052500", "154602.840000", "154603.630000", "154604.417500", "154605.205000", "154605.992500", "154606.782500", "154607.570000", "154608.357500", "154609.147500", "154609.935000", "154610.722500", "154611.510000", "154612.300000", "154613.087500", "154613.875000", "154614.662500", "154615.452500", "154616.240000", "154617.027500", "154617.815000", "154618.605000", "154619.392500", "154620.180000", "154620.967500", "154621.757500", "154622.545000", "154623.332500", "154624.120000", "154624.910000", "154625.697500", "154626.485000", "154627.275000", "154628.062500", "154628.850000", "154629.637500", "154630.427500", "154631.215000", "154632.002500", "154632.790000", "154633.580000", "154634.367500", "154635.155000", "154635.942500", "154636.732500", "154637.520000", "154638.307500", "154639.095000", "154639.885000", "154640.672500", "154641.460000", "154642.247500", "154643.037500", "154643.825000", "154644.612500", "154645.402500", "154646.190000", "154646.977500", "154647.765000", "154648.555000", "154649.342500", "154650.130000", "154650.917500", "154651.707500", "154652.495000", "154653.282500", "154654.070000", "154654.860000", "154655.647500", "154656.435000", "154657.222500", "154658.012500", "154658.800000", "154659.587500", "154700.375000", "154701.165000", "154701.952500", "154702.740000", "154703.530000", "154704.317500", "154705.105000", "154705.892500", "154706.682500", "154707.470000", "154708.257500", "154709.045000", "154709.835000", "154710.622500", "154711.410000", "154712.197500", "154712.987500", "154713.775000", "154714.562500", "154715.350000", "154716.140000", "154716.927500", "154717.715000", "154718.502500", "154719.292500", "154720.080000", "154720.867500", "154721.657500", "154722.445000", "154723.232500", "154724.020000", "154724.810000", "154725.597500", "154726.385000", "154727.172500", "154727.962500", "154728.750000", "154729.537500", "154730.325000", "154731.115000", "154731.902500", "154732.690000", "154733.477500", "154734.267500", "154735.055000", "154735.842500", "154736.632500", "154737.420000", "154738.207500", "154738.995000", "154739.785000", "154740.572500", "154741.360000", "154742.147500", "154742.937500", "154743.725000", "154744.512500", "154745.300000", "154746.090000", "154746.877500", "154747.665000", "154748.452500", "154749.242500", "154750.030000", "154750.817500", "154751.605000", "154752.395000", "154753.182500", "154753.970000", "154754.760000", "154755.547500", "154756.335000", "154757.122500", "154757.912500", "154758.700000", "154759.487500", "154800.275000", "154801.065000", "154801.852500", "154802.640000", "154803.427500", "154804.217500", "154805.005000", "154805.792500", "154806.580000", "154807.370000", "154808.157500", "154808.945000", "154809.732500", "154810.522500", "154811.310000", "154812.097500", "154812.887500", "154813.675000", "154814.462500", "154815.250000", "154816.040000", "154816.827500", "154817.615000", "154818.402500", "154819.192500", "154819.980000", "154820.767500", "154821.555000", "154822.345000", "154823.132500", "154823.920000", "154824.707500", "154825.497500", "154826.285000", "154827.072500", "154827.860000", "154828.650000", "154829.437500", "154830.225000", "154831.015000", "154831.802500", "154832.590000", "154833.377500", "154834.167500", "154834.955000", "154835.742500", "154836.530000", "154837.320000", "154838.107500", "154838.895000", "154839.682500", "154840.472500", "154841.260000", "154842.047500", "154842.835000", "154843.625000", "154844.412500", "154845.200000", "154845.987500", "154846.777500", "154847.565000", "154848.352500", "154849.142500", "154849.930000", "154850.717500", "154851.505000", "154852.295000", "154853.082500", "154853.870000", "154854.657500", "154855.447500", "154856.235000", "154857.022500", "154857.810000", "154858.600000", "154859.387500", "154900.175000", "154900.962500", "154901.752500", "154902.540000", "154903.327500", "154904.115000", "154904.905000", "154905.692500", "154906.480000", "154907.270000", "154908.057500", "154908.845000", "154909.632500", "154910.422500", "154911.210000", "154911.997500", "154912.785000", "154913.575000", "154914.362500", "154915.150000", "154915.937500", "154916.727500", "154917.515000", "154918.302500", "154919.090000", "154919.880000", "154920.667500", "154921.455000", "154922.242500", "154923.032500", "154923.820000", "154924.607500", "154925.397500", "154926.185000", "154926.972500", "154927.760000", "154928.550000", "154929.337500", "154930.125000", "154930.912500", "154931.702500", "154932.490000", "154933.277500", "154934.065000", "154934.855000", "154935.642500", "154936.430000", "154937.217500", "154938.007500", "154938.795000", "154939.582500", "154940.370000", "154941.160000", "154941.947500", "154942.735000", "154943.525000", "154944.312500", "154945.100000", "154945.887500", "154946.677500", "154947.465000", "154948.252500", "154949.040000", "154949.830000", "154950.617500", "154951.405000", "154952.192500", "154952.982500", "154953.770000", "154954.557500", "154955.345000", "154956.135000", "154956.922500", "154957.710000", "154958.497500", "154959.287500", "155000.075000", "155000.862500", "155001.652500", "155002.440000", "155003.227500", "155004.015000", "155004.805000", "155005.592500", "155006.380000", "155007.167500", "155007.957500", "155008.745000", "155009.532500", "155010.320000", "155011.110000", "155011.897500", "155012.685000", "155013.472500", "155014.262500", "155015.050000", "155015.837500", "155016.625000", "155017.415000", "155018.202500", "155018.990000", "155019.780000", "155020.567500", "155021.355000", "155022.142500", "155022.932500", "155023.720000", "155024.507500", "155025.295000", "155026.085000", "155026.872500", "155027.660000", "155028.447500", "155029.237500", "155030.025000", "155030.812500", "155031.600000", "155032.390000", "155033.177500", "155033.965000", "155034.752500", "155035.542500", "155036.330000", "155037.117500", "155037.907500", "155038.695000", "155039.482500", "155040.270000", "155041.060000", "155041.847500", "155042.635000", "155043.422500", "155044.212500", "155045.000000", "155045.787500", "155046.575000", "155047.365000", "155048.152500", "155048.940000", "155049.727500", "155050.517500", "155051.305000", "155052.092500", "155052.882500", "155053.670000", "155054.457500", "155055.245000", "155056.035000", "155056.822500", "155057.610000", "155058.397500", "155059.187500", "155059.975000", "155100.762500", "155101.550000", "155102.340000", "155103.127500", "155103.915000", "155104.702500", "155105.492500", "155106.280000", "155107.067500", "155107.855000", "155108.645000", "155109.432500", "155110.220000", "155111.010000", "155111.797500", "155112.585000", "155113.372500", "155114.162500", "155114.950000", "155115.737500", "155116.525000", "155117.315000", "155118.102500", "155118.890000", "155119.677500", "155120.467500", "155121.255000", "155122.042500", "155122.830000", "155123.620000", "155124.407500", "155125.195000", "155125.982500", "155126.772500", "155127.560000", "155128.347500", "155129.137500", "155129.925000", "155130.712500", "155131.500000", "155132.290000", "155133.077500", "155133.865000", "155134.652500", "155135.442500", "155136.230000", "155137.017500", "155137.805000", "155138.595000", "155139.382500", "155140.170000", "155140.957500", "155141.747500", "155142.535000", "155143.322500", "155144.110000", "155144.900000", "155145.687500", "155146.475000", "155147.265000", "155148.052500", "155148.840000", "155149.627500", "155150.417500", "155151.205000", "155151.992500", "155152.780000", "155153.570000", "155154.357500", "155155.145000", "155155.932500", "155156.722500", "155157.510000", "155158.297500", "155159.085000", "155159.875000", "155200.662500", "155201.450000", "155202.237500", "155203.027500", "155203.815000", "155204.602500", "155205.392500", "155206.180000", "155206.967500", "155207.755000", "155208.545000", "155209.332500", "155210.120000", "155210.907500", "155211.697500", "155212.485000", "155213.272500", "155214.060000", "155214.850000", "155215.637500", "155216.425000", "155217.212500", "155218.002500", "155218.790000", "155219.577500", "155220.365000", "155221.155000", "155221.942500", "155222.730000", "155223.520000", "155224.307500", "155225.095000", "155225.882500", "155226.672500", "155227.460000", "155228.247500", "155229.035000", "155229.825000", "155230.612500", "155231.400000", "155232.187500", "155232.977500", "155233.765000", "155234.552500", "155235.340000", "155236.130000", "155236.917500", "155237.705000", "155238.492500", "155239.282500", "155240.070000", "155240.857500", "155241.647500", "155242.435000", "155243.222500", "155244.010000", "155244.800000", "155245.587500", "155246.375000", "155247.162500", "155247.952500", "155248.740000", "155249.527500", "155250.315000", "155251.105000", "155251.892500", "155252.680000", "155253.467500", "155254.257500", "155255.045000", "155255.832500", "155256.620000", "155257.410000", "155258.197500", "155258.985000", "155259.775000", "155300.562500", "155301.350000", "155302.137500", "155302.927500", "155303.715000", "155304.502500", "155305.290000", "155306.080000", "155306.867500", "155307.655000", "155308.442500", "155309.232500", "155310.020000", "155310.807500", "155311.595000", "155312.385000", "155313.172500", "155313.960000", "155314.747500", "155315.537500", "155316.325000", "155317.112500", "155317.902500", "155318.690000", "155319.477500", "155320.265000", "155321.055000", "155321.842500", "155322.630000", "155323.417500", "155324.207500", "155324.995000", "155325.782500", "155326.570000", "155327.360000", "155328.147500", "155328.935000", "155329.722500", "155330.512500", "155331.300000", "155332.087500", "155332.875000", "155333.665000", "155334.452500", "155335.240000", "155336.030000", "155336.817500", "155337.605000", "155338.392500", "155339.182500", "155339.970000", "155340.757500", "155341.545000", "155342.335000", "155343.122500", "155343.910000", "155344.697500", "155345.487500", "155346.275000", "155347.062500", "155347.850000", "155348.640000", "155349.427500", "155350.215000", "155351.002500", "155351.792500", "155352.580000", "155353.367500", "155354.157500", "155354.945000", "155355.732500", "155356.520000", "155357.310000", "155358.097500", "155358.885000", "155359.672500", "155400.462500", "155401.250000", "155402.037500", "155402.825000", "155403.615000", "155404.402500", "155405.190000", "155405.977500", "155406.767500", "155407.555000", "155408.342500", "155409.132500", "155409.920000", "155410.707500", "155411.495000", "155412.285000", "155413.072500", "155413.860000", "155414.647500", "155415.437500", "155416.225000", "155417.012500", "155417.800000", "155418.590000", "155419.377500", "155420.165000", "155420.952500", "155421.742500", "155422.530000", "155423.317500", "155424.105000", "155424.895000", "155425.682500", "155426.470000", "155427.260000", "155428.047500", "155428.835000", "155429.622500", "155430.412500", "155431.200000", "155431.987500", "155432.775000", "155433.565000", "155434.352500", "155435.140000", "155435.927500", "155436.717500", "155437.505000", "155438.292500", "155439.080000", "155439.870000", "155440.657500", "155441.445000", "155442.232500", "155443.022500", "155443.810000", "155444.597500", "155445.387500", "155446.175000", "155446.962500", "155447.750000", "155448.540000", "155449.327500", "155450.115000", "155450.902500", "155451.692500", "155452.480000", "155453.267500", "155454.055000", "155454.845000", "155455.632500", "155456.420000", "155457.207500", "155457.997500", "155458.785000", "155459.572500", "155500.360000", "155501.150000", "155501.937500", "155502.725000", "155503.515000", "155504.302500", "155505.090000", "155505.877500", "155506.667500", "155507.455000", "155508.242500", "155509.030000", "155509.820000", "155510.607500", "155511.395000", "155512.182500", "155512.972500", "155513.760000", "155514.547500", "155515.335000", "155516.125000", "155516.912500", "155517.700000", "155518.487500", "155519.277500", "155520.065000", "155520.852500", "155521.642500", "155522.430000", "155523.217500", "155524.005000", "155524.795000", "155525.582500", "155526.370000", "155527.157500", "155527.947500", "155528.735000", "155529.522500", "155530.310000", "155531.100000", "155531.887500", "155532.675000", "155533.462500", "155534.252500", "155535.040000", "155535.827500", "155536.615000", "155537.405000", "155538.192500", "155538.980000", "155539.770000", "155540.557500", "155541.345000", "155542.132500", "155542.922500", "155543.710000", "155544.497500", "155545.285000", "155546.075000", "155546.862500", "155547.650000", "155548.437500", "155549.227500", "155550.015000", "155550.802500", "155551.590000", "155552.380000", "155553.167500", "155553.955000", "155554.742500", "155555.532500", "155556.320000", "155557.107500", "155557.897500", "155558.685000", "155559.472500", "155600.260000", "155601.050000", "155601.837500", "155602.625000", "155603.412500", "155604.202500", "155604.990000", "155605.777500", "155606.565000", "155607.355000", "155608.142500", "155608.930000", "155609.717500", "155610.507500", "155611.295000", "155612.082500", "155612.870000", "155613.660000", "155614.447500", "155615.235000", "155616.025000", "155616.812500", "155617.600000", "155618.387500", "155619.177500", "155619.965000", "155620.752500", "155621.540000", "155622.330000", "155623.117500", "155623.905000", "155624.692500", "155625.482500", "155626.270000", "155627.057500", "155627.845000", "155628.635000", "155629.422500", "155630.210000", "155630.997500", "155631.787500", "155632.575000", "155633.362500", "155634.152500", "155634.940000", "155635.727500", "155636.515000", "155637.305000", "155638.092500", "155638.880000", "155639.667500", "155640.457500", "155641.245000", "155642.032500", "155642.820000", "155643.610000", "155644.397500", "155645.185000", "155645.972500", "155646.762500", "155647.550000", "155648.337500", "155649.125000", "155649.915000", "155650.702500", "155651.490000", "155652.280000", "155653.067500", "155653.855000", "155654.642500", "155655.432500", "155656.220000", "155657.007500", "155657.795000", "155658.585000", "155659.372500", "155700.160000", "155700.947500", "155701.737500", "155702.525000", "155703.312500", "155704.100000", "155704.890000", "155705.677500", "155706.465000", "155707.252500", "155708.042500", "155708.830000", "155709.617500", "155710.407500", "155711.195000", "155711.982500", "155712.770000", "155713.560000", "155714.347500", "155715.135000", "155715.922500", "155716.712500", "155717.500000", "155718.287500", "155719.075000", "155719.865000", "155720.652500", "155721.440000", "155722.227500", "155723.017500", "155723.805000", "155724.592500"],
