{
  "AcquisitionMatrixPE": 104,
  "AcquisitionNumber": 1,
  "AcquisitionTime": "15:52:29.887500",
  "BandwidthPerPixelPhaseEncode": 13.935,
  "BaseResolution": 104,
  "CoilString": "C:HEA;HEP",
  "ConversionSoftware": "dcm2niix",
  "ConversionSoftwareVersion": "v1.0.20210317",
  "DerivedVendorReportedEchoSpacing": 0.000690017,
  "DeviceSerialNumber": "35450",
  "DwellTime": 2.5e-06,
  "EchoTime": 0.0348,
  "EffectiveEchoSpacing": 0.000690017,
  "FlipAngle": 55,
  "ImageComments": "Unaliased MB8/PE3 (remote)",
  "ImageOrientationPatientDICOM": [0.999935, -0.00133026, 0.0113247, -4.40094e-08, 0.993171, 0.116667],
  "ImageType": [
    "ORIGINAL",
    "PRIMARY",
    "M",
    "MB",
    "ND",
    "MOSAIC"
],
  "ImagingFrequency": 123.235,
  "InPlanePhaseEncodingDirectionDICOM": "COL",
  "InstitutionAddress": "Univeristy Ave. 197,Newark,North East,US,07102-1814",
  "InstitutionName": "RUBIC",
  "InstitutionalDepartmentName": "Department",
  "MRAcquisitionType": "2D",
  "MagneticFieldStrength": 3,
  "Manufacturer": "Siemens",
  "ManufacturersModelName": "TrioTim",
  "Modality": "MR",
  "MultibandAccelerationFactor": 8,
  "PartialFourier": 0.875,
  "PatientPosition": "HFS",
  "PercentPhaseFOV": 100,
  "PercentSampling": 100,
  "PhaseEncodingDirection": "j-",
  "PhaseEncodingSteps": 91,
  "PhaseResolution": 1,
  "PixelBandwidth": 1923,
  "ProcedureStepDescription": "Cole^Michael",
  "ProtocolName": "cmrr_mbep2d_bold_2mm_MB8_Rest",
  "PulseSequenceDetails": "%CustomerSeq%\\cmrr_mbep2d_bold",
  "ReceiveCoilName": "32Ch_Head",
  "ReconMatrixPE": 104,
  "RepetitionTime": 0.785,
  "SAR": 0.136814,
  "ScanOptions": "PFP\\FS",
  "ScanningSequence": "EP",
  "SequenceName": "epfid2d1_104",
  "SequenceVariant": "SK\\SS",
  "SeriesDescription": "cmrr_mbep2d_bold_2mm_MB8_Rest",
  "SeriesNumber": 9,
  "ShimSetting": [2104, -767, -7868, 150, 78, -729, -66, 91],
  "SliceThickness": 2,
  "SliceTiming": [0, 0.4375, 0.0875, 0.525, 0.175, 0.6125, 0.2625, 0.7, 0.35, 0, 0.4375, 0.0875, 0.525, 0.175, 0.6125, 0.2625, 0.7, 0.35, 0, 0.4375, 0.0875, 0.525, 0.175, 0.6125, 0.2625, 0.7, 0.35, 0, 0.4375, 0.0875, 0.525, 0.175, 0.6125, 0.2625, 0.7, 0.35, 0, 0.4375, 0.0875, 0.525, 0.175, 0.6125, 0.2625, 0.7, 0.35, 0, 0.4375, 0.0875, 0.525, 0.175, 0.6125, 0.2625, 0.7, 0.35, 0, 0.4375, 0.0875, 0.525, 0.175, 0.6125, 0.2625, 0.7, 0.35, 0, 0.4375, 0.0875, 0.525, 0.175, 0.6125, 0.2625, 0.7, 0.35],
  "SoftwareVersions": "syngo MR B19",
  "SpacingBetweenSlices": 2,
  "StationName": "MRC35450",
  "TaskName": "rest",
  "TotalReadoutTime": 0.0710717,
  "TxRefAmp": 330.442,
  "dcmmeta_affine": [
    [-1.9998699426651, -8.801884376907765e-08, 0.022805076092481613, 106.56195831298828],
    [0.0026605206076055765, 1.9863420724868774, 0.23331955075263977, -84.34383392333984],
    [0.022649351507425308, -0.2333347201347351, 1.986212968826294, -72.2657699584961],
    [0.0, 0.0, 0.0, 1.0]
],
  "dcmmeta_reorient_transform": [
    [0.0, -1.0, 0.0, 103.0],
    [1.0, 0.0, 0.0, 0.0],
    [0.0, 0.0, 1.0, 0.0],
    [0.0, 0.0, 0.0, 1.0]
],
  "dcmmeta_shape": [104, 104, 72, 1070],
  "dcmmeta_slice_dim": 2,
  "dcmmeta_version": 0.6,
  "global": {
    "const": {
      "AcquisitionMatrix": [104, 0, 0, 104],
      "AngioFlag": "N",
      "BitsAllocated": 16,
      "BitsStored": 12,
      "Columns": 936,
      "EchoNumbers": 1,
      "EchoTime": 34.8,
      "EchoTrainLength": 1,
      "FlipAngle": 55.0,
      "HighBit": 11,
      "ImageOrientationPatient": [0.99993498895057, -0.0013302602804, 0.01132467571341, -4.4009423e-08, 0.99317104642802, 0.11666735849012],
      "ImagePositionPatient": [-938.50782522936, -945.46093535263, -202.78861927085],
      "ImageType": [
        "ORIGINAL",
        "PRIMARY",
        "M",
        "MB",
        "ND",
        "MOSAIC"
],
      "ImagedNucleus": "1H",
      "ImagingFrequency": 123.234558,
      "InPlanePhaseEncodingDirection": "COL",
      "MRAcquisitionType": "2D",
      "MagneticFieldStrength": 3.0,
      "Manufacturer": "SIEMENS",
      "ManufacturerModelName": "TrioTim",
      "Modality": "MR",
      "NumberOfAverages": 1.0,
      "NumberOfPhaseEncodingSteps": 91,
      "PercentPhaseFieldOfView": 100.0,
      "PercentSampling": 100.0,
      "PerformedProcedureStepStartTime": "145037.515000",
      "PhotometricInterpretation": "MONOCHROME2",
      "PixelBandwidth": 1923.0,
      "PixelRepresentation": 0,
      "PixelSpacing": [2.0, 2.0],
      "ProtocolName": "cmrr_mbep2d_bold_2mm_MB8_Rest",
      "RepetitionTime": 785.0,
      "Rows": 936,
      "SAR": 0.13681366623728,
      "SamplesPerPixel": 1,
      "ScanOptions": [
        "PFP",
        "FS"
],
      "ScanningSequence": "EP",
      "SequenceName": "epfid2d1_104",
      "SequenceVariant": [
        "SK",
        "SS"
],
      "SeriesDescription": "cmrr_mbep2d_bold_2mm_MB8_Rest",
      "SeriesNumber": 9,
      "SeriesTime": "155250.578000",
      "SliceLocation": -80.392061250604,
      "SliceThickness": 2.0,
      "SmallestImagePixelValue": 0,
      "SoftwareVersions": "syngo MR B19",
      "SpacingBetweenSlices": 2.0000000256829,
      "SpecificCharacterSet": "ISO_IR 100",
      "StudyID": "1",
      "StudyTime": "145037.484000",
      "TransmitCoilName": "Body",
      "VariableFlipAngleFlag": "N",
      "WindowCenterWidthExplanation": "Algo1",
      "dBdt": 0.0},
    "slices": {}
  },
  "time": {
    "samples": {
      "AcquisitionNumber": [1, 2, 3, 4, 5, 6, 7, 8, 9, 10, 11, 12, 13, 14, 15, 16, 17, 18, 19, 20, 21, 22, 23, 24, 25, 26, 27, 28, 29, 30, 31, 32, 33, 34, 35, 36, 37, 38, 39, 40, 41, 42, 43, 44, 45, 46, 47, 48, 49, 50, 51, 52, 53, 54, 55, 56, 57, 58, 59, 60, 61, 62, 63, 64, 65, 66, 67, 68, 69, 70, 71, 72, 73, 74, 75, 76, 77, 78, 79, 80, 81, 82, 83, 84, 85, 86, 87, 88, 89, 90, 91, 92, 93, 94, 95, 96, 97, 98, 99, 100, 101, 102, 103, 104, 105, 106, 107, 108, 109, 110, 111, 112, 113, 114, 115, 116, 117, 118, 119, 120, 121, 122, 123, 124, 125, 126, 127, 128, 129, 130, 131, 132, 133, 134, 135, 136, 137, 138, 139, 140, 141, 142, 143, 144, 145, 146, 147, 148, 149, 150, 151, 152, 153, 154, 155, 156, 157, 158, 159, 160, 161, 162, 163, 164, 165, 166, 167, 168, 169, 170, 171, 172, 173, 174, 175, 176, 177, 178, 179, 180, 181, 182, 183, 184, 185, 186, 187, 188, 189, 190, 191, 192, 193, 194, 195, 196, 197, 198, 199, 200, 201, 202, 203, 204, 205, 206, 207, 208, 209, 210, 211, 212, 213, 214, 215, 216, 217, 218, 219, 220, 221, 222, 223, 224, 225, 226, 227, 228, 229, 230, 231, 232, 233, 234, 235, 236, 237, 238, 239, 240, 241, 242, 243, 244, 245, 246, 247, 248, 249, 250, 251, 252, 253, 254, 255, 256, 257, 258, 259, 260, 261, 262, 263, 264, 265, 266, 267, 268, 269, 270, 271, 272, 273, 274, 275, 276, 277, 278, 279, 280, 281, 282, 283, 284, 285, 286, 287, 288, 289, 290, 291, 292, 293, 294, 295, 296, 297, 298, 299, 300, 301, 302, 303, 304, 305, 306, 307, 308, 309, 310, 311, 312, 313, 314, 315, 316, 317, 318, 319, 320, 321, 322, 323, 324, 325, 326, 327, 328, 329, 330, 331, 332, 333, 334, 335, 336, 337, 338, 339, 340, 341, 342, 343, 344, 345, 346, 347, 348, 349, 350, 351, 352, 353, 354, 355, 356, 357, 358, 359, 360, 361, 362, 363, 364, 365, 366, 367, 368, 369, 370, 371, 372, 373, 374, 375, 376, 377, 378, 379, 380, 381, 382, 383, 384, 385, 386, 387, 388, 389, 390, 391, 392, 393, 394, 395, 396, 397, 398, 399, 400, 401, 402, 403, 404, 405, 406, 407, 408, 409, 410, 411, 412, 413, 414, 415, 416, 417, 418, 419, 420, 421, 422, 423, 424, 425, 426, 427, 428, 429, 430, 431, 432, 433, 434, 435, 436, 437, 438, 439, 440, 441, 442, 443, 444, 445, 446, 447, 448, 449, 450, 451, 452, 453, 454, 455, 456, 457, 458, 459, 460, 461, 462, 463, 464, 465, 466, 467, 468, 469, 470, 471, 472, 473, 474, 475, 476, 477, 478, 479, 480, 481, 482, 483, 484, 485, 486, 487, 488, 489, 490, 491, 492, 493, 494, 495, 496, 497, 498, 499, 500, 501, 502, 503, 504, 505, 506, 507, 508, 509, 510, 511, 512, 513, 514, 515, 516, 517, 518, 519, 520, 521, 522, 523, 524, 525, 526, 527, 528, 529, 530, 531, 532, 533, 534, 535, 536, 537, 538, 539, 540, 541, 542, 543, 544, 545, 546, 547, 548, 549, 550, 551, 552, 553, 554, 555, 556, 557, 558, 559, 560, 561, 562, 563, 564, 565, 566, 567, 568, 569, 570, 571, 572, 573, 574, 575, 576, 577, 578, 579, 580, 581, 582, 583, 584, 585, 586, 587, 588, 589, 590, 591, 592, 593, 594, 595, 596, 597, 598, 599, 600, 601, 602, 603, 604, 605, 606, 607, 608, 609, 610, 611, 612, 613, 614, 615, 616, 617, 618, 619, 620, 621, 622, 623, 624, 625, 626, 627, 628, 629, 630, 631, 632, 633, 634, 635, 636, 637, 638, 639, 640, 641, 642, 643, 644, 645, 646, 647, 648, 649, 650, 651, 652, 653, 654, 655, 656, 657, 658, 659, 660, 661, 662, 663, 664, 665, 666, 667, 668, 669, 670, 671, 672, 673, 674, 675, 676, 677, 678, 679, 680, 681, 682, 683, 684, 685, 686, 687, 688, 689, 690, 691, 692, 693, 694, 695, 696, 697, 698, 699, 700, 701, 702, 703, 704, 705, 706, 707, 708, 709, 710, 711, 712, 713, 714, 715, 716, 717, 718, 719, 720, 721, 722, 723, 724, 725, 726, 727, 728, 729, 730, 731, 732, 733, 734, 735, 736, 737, 738, 739, 740, 741, 742, 743, 744, 745, 746, 747, 748, 749, 750, 751, 752, 753, 754, 755, 756, 757, 758, 759, 760, 761, 762, 763, 764, 765, 766, 767, 768, 769, 770, 771, 772, 773, 774, 775, 776, 777, 778, 779, 780, 781, 782, 783, 784, 785, 786, 787, 788, 789, 790, 791, 792, 793, 794, 795, 796, 797, 798, 799, 800, 801, 802, 803, 804, 805, 806, 807, 808, 809, 810, 811, 812, 813, 814, 815, 816, 817, 818, 819, 820, 821, 822, 823, 824, 825, 826, 827, 828, 829, 830, 831, 832, 833, 834, 835, 836, 837, 838, 839, 840, 841, 842, 843, 844, 845, 846, 847, 848, 849, 850, 851, 852, 853, 854, 855, 856, 857, 858, 859, 860, 861, 862, 863, 864, 865, 866, 867, 868, 869, 870, 871, 872, 873, 874, 875, 876, 877, 878, 879, 880, 881, 882, 883, 884, 885, 886, 887, 888, 889, 890, 891, 892, 893, 894, 895, 896, 897, 898, 899, 900, 901, 902, 903, 904, 905, 906, 907, 908, 909, 910, 911, 912, 913, 914, 915, 916, 917, 918, 919, 920, 921, 922, 923, 924, 925, 926, 927, 928, 929, 930, 931, 932, 933, 934, 935, 936, 937, 938, 939, 940, 941, 942, 943, 944, 945, 946, 947, 948, 949, 950, 951, 952, 953, 954, 955, 956, 957, 958, 959, 960, 961, 962, 963, 964, 965, 966, 967, 968, 969, 970, 971, 972, 973, 974, 975, 976, 977, 978, 979, 980, 981, 982, 983, 984, 985, 986, 987, 988, 989, 990, 991, 992, 993, 994, 995, 996, 997, 998, 999, 1000, 1001, 1002, 1003, 1004, 1005, 1006, 1007, 1008, 1009, 1010, 1011, 1012, 1013, 1014, 1015, 1016, 1017, 1018, 1019, 1020, 1021, 1022, 1023, 1024, 1025, 1026, 1027, 1028, 1029, 1030, 1031, 1032, 1033, 1034, 1035, 1036, 1037, 1038, 1039, 1040, 1041, 1042, 1043, 1044, 1045, 1046, 1047, 1048, 1049, 1050, 1051, 1052, 1053, 1054, 1055, 1056, 1057, 1058, 1059, 1060, 1061, 1062, 1063, 1064, 1065, 1066, 1067, 1068, 1069, 1070],
      "AcquisitionTime": ["155229.887500", "155230.675000", "155231.465000", "155232.252500", "155233.040000", "155233.827500", "155234.617500", "155235.405000", "155236.192500", "155236.980000", "155237.770000", "155238.557500", "155239.345000", "155240.135000", "155240.922500", "155241.710000", "155242.497500", "155243.287500", "155244.075000", "155244.862500", "155245.650000", "155246.440000", "155247.227500", "155248.015000", "155248.802500", "155249.592500", "155250.380000", "155251.167500", "155251.955000", "155252.745000", "155253.532500", "155254.320000", "155255.107500", "155255.897500", "155256.685000", "155257.472500", "155258.262500", "155259.050000", "155259.837500", "155300.625000", "155301.415000", "155302.202500", "155302.990000", "155303.777500", "155304.567500", "155305.355000", "155306.142500", "155306.930000", "155307.720000", "155308.507500", "155309.295000", "155310.082500", "155310.872500", "155311.660000", "155312.447500", "155313.235000", "155314.025000", "155314.812500", "155315.600000", "155316.390000", "155317.177500", "155317.965000", "155318.752500", "155319.542500", "155320.330000", "155321.117500", "155321.905000", "155322.695000", "155323.482500", "155324.270000", "155325.057500", "155325.847500", "155326.635000", "155327.422500", "155328.210000", "155329.000000", "155329.787500", "155330.575000", "155331.365000", "155332.152500", "155332.940000", "155333.727500", "155334.517500", "155335.305000", "155336.092500", "155336.880000", "155337.670000", "155338.457500", "155339.245000", "155340.032500", "155340.822500", "155341.610000", "155342.397500", "155343.185000", "155343.975000", "155344.762500", "155345.550000", "155346.337500", "155347.127500", "155347.915000", "155348.702500", "155349.492500", "155350.280000", "155351.067500", "155351.855000", "155352.645000", "155353.432500", "155354.220000", "155355.007500", "155355.797500", "155356.585000", "155357.372500", "155358.160000", "155358.950000", "155359.737500", "155400.525000", "155401.312500", "155402.102500", "155402.890000", "155403.677500", "155404.465000", "155405.255000", "155406.042500", "155406.830000", "155407.620000", "155408.407500", "155409.195000", "155409.982500", "155410.772500", "155411.560000", "155412.347500", "155413.135000", "155413.925000", "155414.712500", "155415.500000", "155416.287500", "155417.077500", "155417.865000", "155418.652500", "155419.440000", "155420.230000", "155421.017500", "155421.805000", "155422.592500", "155423.382500", "155424.170000", "155424.957500", "155425.747500", "155426.535000", "155427.322500", "155428.110000", "155428.900000", "155429.687500", "155430.475000", "155431.262500", "155432.052500", "155432.840000", "155433.627500", "155434.415000", "155435.205000", "155435.992500", "155436.780000", "155437.567500", "155438.357500", "155439.145000", "155439.932500", "155440.720000", "155441.510000", "155442.297500", "155443.085000", "155443.875000", "155444.662500", "155445.450000", "155446.237500", "155447.027500", "155447.815000", "155448.602500", "155449.390000", "155450.180000", "155450.967500", "155451.755000", "155452.542500", "155453.332500", "155454.120000", "155454.907500", "155455.695000", "155456.485000", "155457.272500", "155458.060000", "155458.847500", "155459.637500", "155500.425000", "155501.212500", "155502.002500", "155502.790000", "155503.577500", "155504.365000", "155505.155000", "155505.942500", "155506.730000", "155507.517500", "155508.307500", "155509.095000", "155509.882500", "155510.670000", "155511.460000", "155512.247500", "155513.035000", "155513.822500", "155514.612500", "155515.400000", "155516.187500", "155516.975000", "155517.765000", "155518.552500", "155519.340000", "155520.130000", "155520.917500", "155521.705000", "155522.492500", "155523.282500", "155524.070000", "155524.857500", "155525.645000", "155526.435000", "155527.222500", "155528.010000", "155528.797500", "155529.587500", "155530.375000", "155531.162500", "155531.950000", "155532.740000", "155533.527500", "155534.315000", "155535.102500", "155535.892500", "155536.680000", "155537.467500", "155538.257500", "155539.045000", "155539.832500", "155540.620000", "155541.410000", "155542.197500", "155542.985000", "155543.772500", "155544.562500", "155545.350000", "155546.137500", "155546.925000", "155547.715000", "155548.502500", "155549.290000", "155550.077500", "155550.867500", "155551.655000", "155552.442500", "155553.230000", "155554.020000", "155554.807500", "155555.595000", "155556.385000", "155557.172500", "155557.960000", "155558.747500", "155559.537500", "155600.325000", "155601.112500", "155601.900000", "155602.690000", "155603.477500", "155604.265000", "155605.052500", "155605.842500", "155606.630000", "155607.417500", "155608.205000", "155608.995000", "155609.782500", "155610.570000", "155611.357500", "155612.147500", "155612.935000", "155613.722500", "155614.512500", "155615.300000", "155616.087500", "155616.875000", "155617.665000", "155618.452500", "155619.240000", "155620.027500", "155620.817500", "155621.605000", "155622.392500", "155623.180000", "155623.970000", "155624.757500", "155625.545000", "155626.332500", "155627.122500", "155627.910000", "155628.697500", "155629.485000", "155630.275000", "155631.062500", "155631.850000", "155632.640000", "155633.427500", "155634.215000", "155635.002500", "155635.792500", "155636.580000", "155637.367500", "155638.155000", "155638.945000", "155639.732500", "155640.520000", "155641.307500", "155642.097500", "155642.885000", "155643.672500", "155644.460000", "155645.250000", "155646.037500", "155646.825000", "155647.615000", "155648.402500", "155649.190000", "155649.977500", "155650.767500", "155651.555000", "155652.342500", "155653.130000", "155653.920000", "155654.707500", "155655.495000", "155656.282500", "155657.072500", "155657.860000", "155658.647500", "155659.435000", "155700.225000", "155701.012500", "155701.800000", "155702.587500", "155703.377500", "155704.165000", "155704.952500", "155705.742500", "155706.530000", "155707.317500", "155708.105000", "155708.895000", "155709.682500", "155710.470000", "155711.257500", "155712.047500", "155712.835000", "155713.622500", "155714.410000", "155715.200000", "155715.987500", "155716.775000", "155717.562500", "155718.352500", "155719.140000", "155719.927500", "155720.715000", "155721.505000", "155722.292500", "155723.080000", "155723.870000", "155724.657500", "155725.445000", "155726.232500", "155727.022500", "155727.810000", "155728.597500", "155729.385000", "155730.175000", "155730.962500", "155731.750000", "155732.537500", "155733.327500", "155734.115000", "155734.902500", "155735.690000", "155736.480000", "155737.267500", "155738.055000", "155738.842500", "155739.632500", "155740.420000", "155741.207500", "155741.997500", "155742.785000", "155743.572500", "155744.360000", "155745.150000", "155745.937500", "155746.725000", "155747.512500", "155748.302500", "155749.090000", "155749.877500", "155750.665000", "155751.455000", "155752.242500", "155753.030000", "155753.817500", "155754.607500", "155755.395000", "155756.182500", "155756.970000", "155757.760000", "155758.547500", "155759.335000", "155800.125000", "155800.912500", "155801.700000", "155802.487500", "155803.277500", "155804.065000", "155804.852500", "155805.640000", "155806.430000", "155807.217500", "155808.005000", "155808.792500", "155809.582500", "155810.370000", "155811.157500", "155811.945000", "155812.735000", "155813.522500", "155814.310000", "155815.097500", "155815.887500", "155816.675000", "155817.462500", "155818.252500", "155819.040000", "155819.827500", "155820.615000", "155821.405000", "155822.192500", "155822.980000", "155823.767500", "155824.557500", "155825.345000", "155826.132500", "155826.920000", "155827.710000", "155828.497500", "155829.285000", "155830.072500", "155830.862500", "155831.650000", "155832.437500", "155833.225000", "155834.015000", "155834.802500", "155835.590000", "155836.380000", "155837.167500", "155837.955000", "155838.742500", "155839.532500", "155840.320000", "155841.107500", "155841.895000", "155842.685000", "155843.472500", "155844.260000", "155845.047500", "155845.837500", "155846.625000", "155847.412500", "155848.200000", "155848.990000", "155849.777500", "155850.565000", "155851.352500", "155852.142500", "155852.930000", "155853.717500", "155854.507500", "155855.295000", "155856.082500", "155856.870000", "155857.660000", "155858.447500", "155859.235000", "155900.022500", "155900.812500", "155901.600000", "155902.387500", "155903.175000", "155903.965000", "155904.752500", "155905.540000", "155906.327500", "155907.117500", "155907.905000", "155908.692500", "155909.480000", "155910.270000", "155911.057500", "155911.845000", "155912.635000", "155913.422500", "155914.210000", "155914.997500", "155915.787500", "155916.575000", "155917.362500", "155918.150000", "155918.940000", "155919.727500", "155920.515000", "155921.302500", "155922.092500", "155922.880000", "155923.667500", "155924.455000", "155925.245000", "155926.032500", "155926.820000", "155927.607500", "155928.397500", "155929.185000", "155929.972500", "155930.762500", "155931.550000", "155932.337500", "155933.125000", "155933.915000", "155934.702500", "155935.490000", "155936.277500", "155937.067500", "155937.855000", "155938.642500", "155939.430000", "155940.220000", "155941.007500", "155941.795000", "155942.582500", "155943.372500", "155944.160000", "155944.947500", "155945.735000", "155946.525000", "155947.312500", "155948.100000", "155948.890000", "155949.677500", "155950.465000", "155951.252500", "155952.042500", "155952.830000", "155953.617500", "155954.405000", "155955.195000", "155955.982500", "155956.770000", "155957.557500", "155958.347500", "155959.135000", "155959.922500", "160000.710000", "160001.500000", "160002.287500", "160003.075000", "160003.865000", "160004.652500", "160005.440000", "160006.227500", "160007.017500", "160007.805000", "160008.592500", "160009.380000", "160010.170000", "160010.957500", "160011.745000", "160012.532500", "160013.322500", "160014.110000", "160014.897500", "160015.685000", "160016.475000", "160017.262500", "160018.050000", "160018.837500", "160019.627500", "160020.415000", "160021.202500", "160021.992500", "160022.780000", "160023.567500", "160024.355000", "160025.145000", "160025.932500", "160026.720000", "160027.507500", "160028.297500", "160029.085000", "160029.872500", "160030.660000", "160031.450000", "160032.237500", "160033.025000", "160033.812500", "160034.602500", "160035.390000", "160036.177500", "160036.965000", "160037.755000", "160038.542500", "160039.330000", "160040.120000", "160040.907500", "160041.695000", "160042.482500", "160043.272500", "160044.060000", "160044.847500", "160045.635000", "160046.425000", "160047.212500", "160048.000000", "160048.787500", "160049.577500", "160050.365000", "160051.152500", "160051.940000", "160052.730000", "160053.517500", "160054.305000", "160055.092500", "160055.882500", "160056.670000", "160057.457500", "160058.247500", "160059.035000", "160059.822500", "160100.610000", "160101.400000", "160102.187500", "160102.975000", "160103.762500", "160104.552500", "160105.340000", "160106.127500", "160106.915000", "160107.705000", "160108.492500", "160109.280000", "160110.067500", "160110.857500", "160111.645000", "160112.432500", "160113.220000", "160114.010000", "160114.797500", "160115.585000", "160116.375000", "160117.162500", "160117.950000", "160118.737500", "160119.527500", "160120.315000", "160121.102500", "160121.890000", "160122.680000", "160123.467500", "160124.255000", "160125.042500", "160125.832500", "160126.620000", "160127.407500", "160128.195000", "160128.985000", "160129.772500", "160130.560000", "160131.347500", "160132.137500", "160132.925000", "160133.712500", "160134.502500", "160135.290000", "160136.077500", "160136.865000", "160137.655000", "160138.442500", "160139.230000", "160140.017500", "160140.807500", "160141.595000", "160142.382500", "160143.170000", "160143.960000", "160144.747500", "160145.535000", "160146.322500", "160147.112500", "160147.900000", "160148.687500", "160149.475000", "160150.265000", "160151.052500", "160151.840000", "160152.630000", "160153.417500", "160154.205000", "160154.992500", "160155.782500", "160156.570000", "160157.357500", "160158.145000", "160158.935000", "160159.722500", "160200.510000", "160201.297500", "160202.087500", "160202.875000", "160203.662500", "160204.450000", "160205.240000", "160206.027500", "160206.815000", "160207.602500", "160208.392500", "160209.180000", "160209.967500", "160210.757500", "160211.545000", "160212.332500", "160213.120000", "160213.910000", "160214.697500", "160215.485000", "160216.272500", "160217.062500", "160217.850000", "160218.637500", "160219.425000", "160220.215000", "160221.002500", "160221.790000", "160222.577500", "160223.367500", "160224.155000", "160224.942500", "160225.730000", "160226.520000", "160227.307500", "160228.095000", "160228.885000", "160229.672500", "160230.460000", "160231.247500", "160232.037500", "160232.825000", "160233.612500", "160234.400000", "160235.190000", "160235.977500", "160236.765000", "160237.552500", "160238.342500", "160239.130000", "160239.917500", "160240.705000", "160241.495000", "160242.282500", "160243.070000", "160243.857500", "160244.647500", "160245.435000", "160246.222500", "160247.012500", "160247.800000", "160248.587500", "160249.375000", "160250.165000", "160250.952500", "160251.740000", "160252.527500", "160253.317500", "160254.105000", "160254.892500", "160255.680000", "160256.470000", "160257.257500", "160258.045000", "160258.832500", "160259.622500", "160300.410000", "160301.197500", "160301.985000", "160302.775000", "160303.562500", "160304.350000", "160305.140000", "160305.927500", "160306.715000", "160307.502500", "160308.292500", "160309.080000", "160309.867500", "160310.655000", "160311.445000", "160312.232500", "160313.020000", "160313.807500", "160314.597500", "160315.385000", "160316.172500", "160316.960000", "160317.750000", "160318.537500", "160319.325000", "160320.115000", "160320.902500", "160321.690000", "160322.477500", "160323.267500", "160324.055000", "160324.842500", "160325.630000", "160326.420000", "160327.207500", "160327.995000", "160328.782500", "160329.572500", "160330.360000", "160331.147500", "160331.935000", "160332.725000", "160333.512500", "160334.300000", "160335.087500", "160335.877500", "160336.665000", "160337.452500", "160338.242500", "160339.030000", "160339.817500", "160340.605000", "160341.395000", "160342.182500", "160342.970000", "160343.757500", "160344.547500", "160345.335000", "160346.122500", "160346.910000", "160347.700000", "160348.487500", "160349.275000", "160350.062500", "160350.852500", "160351.640000", "160352.427500", "160353.215000", "160354.005000", "160354.792500", "160355.580000", "160356.370000", "160357.157500", "160357.945000", "160358.732500", "160359.522500", "160400.310000", "160401.097500", "160401.885000", "160402.675000", "160403.462500", "160404.250000", "160405.037500", "160405.827500", "160406.615000", "160407.402500", "160408.190000", "160408.980000", "160409.767500", "160410.555000", "160411.342500", "160412.132500", "160412.920000", "160413.707500", "160414.497500", "160415.285000", "160416.072500", "160416.860000", "160417.650000", "160418.437500", "160419.225000", "160420.012500", "160420.802500", "160421.590000", "160422.377500", "160423.165000", "160423.955000", "160424.742500", "160425.530000", "160426.317500", "160427.107500", "160427.895000", "160428.682500", "160429.470000", "160430.260000", "160431.047500", "160431.835000", "160432.625000", "160433.412500", "160434.200000", "160434.987500", "160435.777500", "160436.565000", "160437.352500", "160438.140000", "160438.930000", "160439.717500", "160440.505000", "160441.292500", "160442.082500", "160442.870000", "160443.657500", "160444.445000", "160445.235000", "160446.022500", "160446.810000", "160447.597500", "160448.387500", "160449.175000", "160449.962500", "160450.752500", "160451.540000", "160452.327500", "160453.115000", "160453.905000", "160454.692500", "160455.480000", "160456.267500", "160457.057500", "160457.845000", "160458.632500", "160459.420000", "160500.210000", "160500.997500", "160501.785000", "160502.572500", "160503.362500", "160504.150000", "160504.937500", "160505.725000", "160506.515000", "160507.302500", "160508.090000", "160508.880000", "160509.667500", "160510.455000", "160511.242500", "160512.032500", "160512.820000", "160513.607500", "160514.395000", "160515.185000", "160515.972500", "160516.760000", "160517.547500", "160518.337500", "160519.125000", "160519.912500", "160520.700000", "160521.490000", "160522.277500", "160523.065000", "160523.852500", "160524.642500", "160525.430000", "160526.217500", "160527.007500", "160527.795000", "160528.582500", "160529.370000", "160530.160000", "160530.947500", "160531.735000", "160532.522500", "160533.312500", "160534.100000", "160534.887500", "160535.675000", "160536.465000", "160537.252500", "160538.040000", "160538.827500", "160539.617500", "160540.405000", "160541.192500", "160541.980000", "160542.770000", "160543.557500", "160544.345000", "160545.135000", "160545.922500", "160546.710000", "160547.497500", "160548.287500", "160549.075000", "160549.862500", "160550.650000", "160551.440000", "160552.227500", "160553.015000", "160553.802500", "160554.592500", "160555.380000", "160556.167500", "160556.955000", "160557.745000", "160558.532500", "160559.320000", "160600.107500", "160600.897500", "160601.685000", "160602.472500", "160603.262500", "160604.050000", "160604.837500", "160605.625000", "160606.415000", "160607.202500", "160607.990000", "160608.777500", "160609.567500", "160610.355000", "160611.142500", "160611.930000", "160612.720000", "160613.507500", "160614.295000", "160615.082500", "160615.872500", "160616.660000", "160617.447500", "160618.235000", "160619.025000", "160619.812500", "160620.600000", "160621.390000", "160622.177500", "160622.965000", "160623.752500", "160624.542500", "160625.330000", "160626.117500", "160626.905000", "160627.695000", "160628.482500", "160629.270000", "160630.057500", "160630.847500", "160631.635000", "160632.422500"],
