{
  "AcquisitionMatrixPE": 104,
  "AcquisitionNumber": 1,
  "AcquisitionTime": "17:01:29.687500",
  "BandwidthPerPixelPhaseEncode": 13.935,
  "BaseResolution": 104,
  "CoilString": "C:HEA;HEP",
  "ConversionSoftware": "dcm2niix",
  "ConversionSoftwareVersion": "v1.0.20210317",
  "DerivedVendorReportedEchoSpacing": 0.000690017,
  "DeviceSerialNumber": "35450",
  "DwellTime": 2.5e-06,
  "EchoTime": 0.0348,
  "EffectiveEchoSpacing": 0.000690017,
  "FlipAngle": 55,
  "ImageComments": "Unaliased MB8/PE3 (remote)",
  "ImageOrientationPatientDICOM": [0.999935, -0.00133026, 0.0113247, -4.40094e-08, 0.993171, 0.116667],
  "ImageType": [
    "ORIGINAL",
    "PRIMARY",
    "M",
    "MB",
    "ND",
    "MOSAIC"
],
  "ImagingFrequency": 123.235,
  "InPlanePhaseEncodingDirectionDICOM": "COL",
  "InstitutionAddress": "Univeristy Ave. 197,Newark,North East,US,07102-1814",
  "InstitutionName": "RUBIC",
  "InstitutionalDepartmentName": "Department",
  "MRAcquisitionType": "2D",
  "MagneticFieldStrength": 3,
  "Manufacturer": "Siemens",
  "ManufacturersModelName": "TrioTim",
  "Modality": "MR",
  "MultibandAccelerationFactor": 8,
  "PartialFourier": 0.875,
  "PatientPosition": "HFS",
  "PercentPhaseFOV": 100,
  "PercentSampling": 100,
  "PhaseEncodingDirection": "j-",
  "PhaseEncodingSteps": 91,
  "PhaseResolution": 1,
  "PixelBandwidth": 1923,
  "ProcedureStepDescription": "Cole^Michael",
  "ProtocolName": "cmrr_mbep2d_bold_2mm_MB8_Task_8x",
  "PulseSequenceDetails": "%CustomerSeq%\\cmrr_mbep2d_bold",
  "ReceiveCoilName": "32Ch_Head",
  "ReconMatrixPE": 104,
  "RepetitionTime": 0.785,
  "SAR": 0.127054,
  "ScanOptions": "PFP\\FS",
  "ScanningSequence": "EP",
  "SequenceName": "epfid2d1_104",
  "SequenceVariant": "SK\\SS",
  "SeriesDescription": "cmrr_mbep2d_bold_2mm_MB8_Task_8x",
  "SeriesNumber": 23,
  "ShimSetting": [2104, -767, -7868, 150, 78, -729, -66, 91],
  "SliceThickness": 2,
  "SliceTiming": [0, 0.4375, 0.0875, 0.525, 0.175, 0.6125, 0.2625, 0.7, 0.35, 0, 0.4375, 0.0875, 0.525, 0.175, 0.6125, 0.2625, 0.7, 0.35, 0, 0.4375, 0.0875, 0.525, 0.175, 0.6125, 0.2625, 0.7, 0.35, 0, 0.4375, 0.0875, 0.525, 0.175, 0.6125, 0.2625, 0.7, 0.35, 0, 0.4375, 0.0875, 0.525, 0.175, 0.6125, 0.2625, 0.7, 0.35, 0, 0.4375, 0.0875, 0.525, 0.175, 0.6125, 0.2625, 0.7, 0.35, 0, 0.4375, 0.0875, 0.525, 0.175, 0.6125, 0.2625, 0.7, 0.35, 0, 0.4375, 0.0875, 0.525, 0.175, 0.6125, 0.2625, 0.7, 0.35],
  "SoftwareVersions": "syngo MR B19",
  "SpacingBetweenSlices": 2,
  "StationName": "MRC35450",
  "TaskName": "cpro",
  "TotalReadoutTime": 0.0710717,
  "TxRefAmp": 330.442,
  "dcmmeta_affine": [
    [-1.9998699426651, -8.801884376907765e-08, 0.022805076092481613, 106.56195831298828],
    [0.0026605206076055765, 1.9863420724868774, 0.23331955075263977, -84.34383392333984],
    [0.022649351507425308, -0.2333347201347351, 1.986212968826294, -72.2657699584961],
    [0.0, 0.0, 0.0, 1.0]
],
  "dcmmeta_reorient_transform": [
    [0.0, -1.0, 0.0, 103.0],
    [1.0, 0.0, 0.0, 0.0],
    [0.0, 0.0, 1.0, 0.0],
    [0.0, 0.0, 0.0, 1.0]
],
  "dcmmeta_shape": [104, 104, 72, 581],
  "dcmmeta_slice_dim": 2,
  "dcmmeta_version": 0.6,
  "global": {
    "const": {
      "AcquisitionMatrix": [104, 0, 0, 104],
      "AngioFlag": "N",
      "BitsAllocated": 16,
      "BitsStored": 12,
      "Columns": 936,
      "EchoNumbers": 1,
      "EchoTime": 34.8,
      "EchoTrainLength": 1,
      "FlipAngle": 55.0,
      "HighBit": 11,
      "ImageOrientationPatient": [0.99993498895057, -0.0013302602804, 0.01132467571341, -4.4009423e-08, 0.99317104642802, 0.11666735849012],
      "ImagePositionPatient": [-938.50782522936, -945.46093535263, -202.78861927085],
      "ImageType": [
        "ORIGINAL",
        "PRIMARY",
        "M",
        "MB",
        "ND",
        "MOSAIC"
],
      "ImagedNucleus": "1H",
      "ImagingFrequency": 123.23462,
      "InPlanePhaseEncodingDirection": "COL",
      "MRAcquisitionType": "2D",
      "MagneticFieldStrength": 3.0,
      "Manufacturer": "SIEMENS",
      "ManufacturerModelName": "TrioTim",
      "Modality": "MR",
      "NumberOfAverages": 1.0,
      "NumberOfPhaseEncodingSteps": 91,
      "PercentPhaseFieldOfView": 100.0,
      "PercentSampling": 100.0,
      "PerformedProcedureStepStartTime": "145037.515000",
      "PhotometricInterpretation": "MONOCHROME2",
      "PixelBandwidth": 1923.0,
      "PixelRepresentation": 0,
      "PixelSpacing": [2.0, 2.0],
      "ProtocolName": "cmrr_mbep2d_bold_2mm_MB8_Task_8x",
      "RepetitionTime": 785.0,
      "Rows": 936,
      "SAR": 0.1270536828108,
      "SamplesPerPixel": 1,
      "ScanOptions": [
        "PFP",
        "FS"
],
      "ScanningSequence": "EP",
      "SequenceName": "epfid2d1_104",
      "SequenceVariant": [
        "SK",
        "SS"
],
      "SeriesDescription": "cmrr_mbep2d_bold_2mm_MB8_Task_8x",
      "SeriesNumber": 23,
      "SeriesTime": "170207.796000",
      "SliceLocation": -80.392061250604,
      "SliceThickness": 2.0,
      "SmallestImagePixelValue": 0,
      "SoftwareVersions": "syngo MR B19",
      "SpacingBetweenSlices": 2.0000000256829,
      "SpecificCharacterSet": "ISO_IR 100",
      "StudyID": "1",
      "StudyTime": "145037.484000",
      "TransmitCoilName": "Body",
      "VariableFlipAngleFlag": "N",
      "WindowCenterWidthExplanation": "Algo1",
      "dBdt": 0.0},
    "slices": {}
  },
  "time": {
    "samples": {
      "AcquisitionNumber": [1, 2, 3, 4, 5, 6, 7, 8, 9, 10, 11, 12, 13, 14, 15, 16, 17, 18, 19, 20, 21, 22, 23, 24, 25, 26, 27, 28, 29, 30, 31, 32, 33, 34, 35, 36, 37, 38, 39, 40, 41, 42, 43, 44, 45, 46, 47, 48, 49, 50, 51, 52, 53, 54, 55, 56, 57, 58, 59, 60, 61, 62, 63, 64, 65, 66, 67, 68, 69, 70, 71, 72, 73, 74, 75, 76, 77, 78, 79, 80, 81, 82, 83, 84, 85, 86, 87, 88, 89, 90, 91, 92, 93, 94, 95, 96, 97, 98, 99, 100, 101, 102, 103, 104, 105, 106, 107, 108, 109, 110, 111, 112, 113, 114, 115, 116, 117, 118, 119, 120, 121, 122, 123, 124, 125, 126, 127, 128, 129, 130, 131, 132, 133, 134, 135, 136, 137, 138, 139, 140, 141, 142, 143, 144, 145, 146, 147, 148, 149, 150, 151, 152, 153, 154, 155, 156, 157, 158, 159, 160, 161, 162, 163, 164, 165, 166, 167, 168, 169, 170, 171, 172, 173, 174, 175, 176, 177, 178, 179, 180, 181, 182, 183, 184, 185, 186, 187, 188, 189, 190, 191, 192, 193, 194, 195, 196, 197, 198, 199, 200, 201, 202, 203, 204, 205, 206, 207, 208, 209, 210, 211, 212, 213, 214, 215, 216, 217, 218, 219, 220, 221, 222, 223, 224, 225, 226, 227, 228, 229, 230, 231, 232, 233, 234, 235, 236, 237, 238, 239, 240, 241, 242, 243, 244, 245, 246, 247, 248, 249, 250, 251, 252, 253, 254, 255, 256, 257, 258, 259, 260, 261, 262, 263, 264, 265, 266, 267, 268, 269, 270, 271, 272, 273, 274, 275, 276, 277, 278, 279, 280, 281, 282, 283, 284, 285, 286, 287, 288, 289, 290, 291, 292, 293, 294, 295, 296, 297, 298, 299, 300, 301, 302, 303, 304, 305, 306, 307, 308, 309, 310, 311, 312, 313, 314, 315, 316, 317, 318, 319, 320, 321, 322, 323, 324, 325, 326, 327, 328, 329, 330, 331, 332, 333, 334, 335, 336, 337, 338, 339, 340, 341, 342, 343, 344, 345, 346, 347, 348, 349, 350, 351, 352, 353, 354, 355, 356, 357, 358, 359, 360, 361, 362, 363, 364, 365, 366, 367, 368, 369, 370, 371, 372, 373, 374, 375, 376, 377, 378, 379, 380, 381, 382, 383, 384, 385, 386, 387, 388, 389, 390, 391, 392, 393, 394, 395, 396, 397, 398, 399, 400, 401, 402, 403, 404, 405, 406, 407, 408, 409, 410, 411, 412, 413, 414, 415, 416, 417, 418, 419, 420, 421, 422, 423, 424, 425, 426, 427, 428, 429, 430, 431, 432, 433, 434, 435, 436, 437, 438, 439, 440, 441, 442, 443, 444, 445, 446, 447, 448, 449, 450, 451, 452, 453, 454, 455, 456, 457, 458, 459, 460, 461, 462, 463, 464, 465, 466, 467, 468, 469, 470, 471, 472, 473, 474, 475, 476, 477, 478, 479, 480, 481, 482, 483, 484, 485, 486, 487, 488, 489, 490, 491, 492, 493, 494, 495, 496, 497, 498, 499, 500, 501, 502, 503, 504, 505, 506, 507, 508, 509, 510, 511, 512, 513, 514, 515, 516, 517, 518, 519, 520, 521, 522, 523, 524, 525, 526, 527, 528, 529, 530, 531, 532, 533, 534, 535, 536, 537, 538, 539, 540, 541, 542, 543, 544, 545, 546, 547, 548, 549, 550, 551, 552, 553, 554, 555, 556, 557, 558, 559, 560, 561, 562, 563, 564, 565, 566, 567, 568, 569, 570, 571, 572, 573, 574, 575, 576, 577, 578, 579, 580, 581],
      "AcquisitionTime": ["170129.687500", "170130.477500", "170131.265000", "170132.052500", "170132.840000", "170133.630000", "170134.417500", "170135.205000", "170135.992500", "170136.782500", "170137.570000", "170138.357500", "170139.145000", "170139.935000", "170140.722500", "170141.510000", "170142.300000", "170143.087500", "170143.875000", "170144.662500", "170145.452500", "170146.240000", "170147.027500", "170147.815000", "170148.605000", "170149.392500", "170150.180000", "170150.967500", "170151.757500", "170152.545000", "170153.332500", "170154.120000", "170154.910000", "170155.697500", "170156.485000", "170157.272500", "170158.062500", "170158.850000", "170159.637500", "170200.427500", "170201.215000", "170202.002500", "170202.790000", "170203.580000", "170204.367500", "170205.155000", "170205.942500", "170206.732500", "170207.520000", "170208.307500", "170209.095000", "170209.885000", "170210.672500", "170211.460000", "170212.247500", "170213.037500", "170213.825000", "170214.612500", "170215.400000", "170216.190000", "170216.977500", "170217.765000", "170218.555000", "170219.342500", "170220.130000", "170220.917500", "170221.707500", "170222.495000", "170223.282500", "170224.070000", "170224.860000", "170225.647500", "170226.435000", "170227.222500", "170228.012500", "170228.800000", "170229.587500", "170230.375000", "170231.165000", "170231.952500", "170232.740000", "170233.527500", "170234.317500", "170235.105000", "170235.892500", "170236.682500", "170237.470000", "170238.257500", "170239.045000", "170239.835000", "170240.622500", "170241.410000", "170242.197500", "170242.987500", "170243.775000", "170244.562500", "170245.350000", "170246.140000", "170246.927500", "170247.715000", "170248.502500", "170249.292500", "170250.080000", "170250.867500", "170251.655000", "170252.445000", "170253.232500", "170254.020000", "170254.810000", "170255.597500", "170256.385000", "170257.172500", "170257.962500", "170258.750000", "170259.537500", "170300.325000", "170301.115000", "170301.902500", "170302.690000", "170303.477500", "170304.267500", "170305.055000", "170305.842500", "170306.630000", "170307.420000", "170308.207500", "170308.995000", "170309.782500", "170310.572500", "170311.360000", "170312.147500", "170312.937500", "170313.725000", "170314.512500", "170315.300000", "170316.090000", "170316.877500", "170317.665000", "170318.452500", "170319.242500", "170320.030000", "170320.817500", "170321.605000", "170322.395000", "170323.182500", "170323.970000", "170324.757500", "170325.547500", "170326.335000", "170327.122500", "170327.910000", "170328.700000", "170329.487500", "170330.275000", "170331.065000", "170331.852500", "170332.640000", "170333.427500", "170334.217500", "170335.005000", "170335.792500", "170336.580000", "170337.370000", "170338.157500", "170338.945000", "170339.732500", "170340.522500", "170341.310000", "170342.097500", "170342.885000", "170343.675000", "170344.462500", "170345.250000", "170346.040000", "170346.827500", "170347.615000", "170348.402500", "170349.192500", "170349.980000", "170350.767500", "170351.555000", "170352.345000", "170353.132500", "170353.920000", "170354.707500", "170355.497500", "170356.285000", "170357.072500", "170357.860000", "170358.650000", "170359.437500", "170400.225000", "170401.012500", "170401.802500", "170402.590000", "170403.377500", "170404.167500", "170404.955000", "170405.742500", "170406.530000", "170407.320000", "170408.107500", "170408.895000", "170409.682500", "170410.472500", "170411.260000", "170412.047500", "170412.835000", "170413.625000", "170414.412500", "170415.200000", "170415.987500", "170416.777500", "170417.565000", "170418.352500", "170419.140000", "170419.930000", "170420.717500", "170421.505000", "170422.295000", "170423.082500", "170423.870000", "170424.657500", "170425.447500", "170426.235000", "170427.022500", "170427.810000", "170428.600000", "170429.387500", "170430.175000", "170430.962500", "170431.752500", "170432.540000", "170433.327500", "170434.115000", "170434.905000", "170435.692500", "170436.480000", "170437.267500", "170438.057500", "170438.845000", "170439.632500", "170440.422500", "170441.210000", "170441.997500", "170442.785000", "170443.575000", "170444.362500", "170445.150000", "170445.937500", "170446.727500", "170447.515000", "170448.302500", "170449.090000", "170449.880000", "170450.667500", "170451.455000", "170452.242500", "170453.032500", "170453.820000", "170454.607500", "170455.395000", "170456.185000", "170456.972500", "170457.760000", "170458.550000", "170459.337500", "170500.125000", "170500.912500", "170501.702500", "170502.490000", "170503.277500", "170504.065000", "170504.855000", "170505.642500", "170506.430000", "170507.217500", "170508.007500", "170508.795000", "170509.582500", "170510.370000", "170511.160000", "170511.947500", "170512.735000", "170513.522500", "170514.312500", "170515.100000", "170515.887500", "170516.677500", "170517.465000", "170518.252500", "170519.040000", "170519.830000", "170520.617500", "170521.405000", "170522.192500", "170522.982500", "170523.770000", "170524.557500", "170525.345000", "170526.135000", "170526.922500", "170527.710000", "170528.497500", "170529.287500", "170530.075000", "170530.862500", "170531.650000", "170532.440000", "170533.227500", "170534.015000", "170534.805000", "170535.592500", "170536.380000", "170537.167500", "170537.957500", "170538.745000", "170539.532500", "170540.320000", "170541.110000", "170541.897500", "170542.685000", "170543.472500", "170544.262500", "170545.050000", "170545.837500", "170546.625000", "170547.415000", "170548.202500", "170548.990000", "170549.777500", "170550.567500", "170551.355000", "170552.142500", "170552.932500", "170553.720000", "170554.507500", "170555.295000", "170556.085000", "170556.872500", "170557.660000", "170558.447500", "170559.237500", "170600.025000", "170600.812500", "170601.600000", "170602.390000", "170603.177500", "170603.965000", "170604.752500", "170605.542500", "170606.330000", "170607.117500", "170607.905000", "170608.695000", "170609.482500", "170610.270000", "170611.060000", "170611.847500", "170612.635000", "170613.422500", "170614.212500", "170615.000000", "170615.787500", "170616.575000", "170617.365000", "170618.152500", "170618.940000", "170619.727500", "170620.517500", "170621.305000", "170622.092500", "170622.880000", "170623.670000", "170624.457500", "170625.245000", "170626.032500", "170626.822500", "170627.610000", "170628.397500", "170629.187500", "170629.975000", "170630.762500", "170631.550000", "170632.340000", "170633.127500", "170633.915000", "170634.702500", "170635.492500", "170636.280000", "170637.067500", "170637.855000", "170638.645000", "170639.432500", "170640.220000", "170641.007500", "170641.797500", "170642.585000", "170643.372500", "170644.160000", "170644.950000", "170645.737500", "170646.525000", "170647.315000", "170648.102500", "170648.890000", "170649.677500", "170650.467500", "170651.255000", "170652.042500", "170652.830000", "170653.620000", "170654.407500", "170655.195000", "170655.982500", "170656.772500", "170657.560000", "170658.347500", "170659.135000", "170659.925000", "170700.712500", "170701.500000", "170702.290000", "170703.077500", "170703.865000", "170704.652500", "170705.442500", "170706.230000", "170707.017500", "170707.805000", "170708.595000", "170709.382500", "170710.170000", "170710.957500", "170711.747500", "170712.535000", "170713.322500", "170714.110000", "170714.900000", "170715.687500", "170716.475000", "170717.262500", "170718.052500", "170718.840000", "170719.627500", "170720.417500", "170721.205000", "170721.992500", "170722.780000", "170723.570000", "170724.357500", "170725.145000", "170725.932500", "170726.722500", "170727.510000", "170728.297500", "170729.085000", "170729.875000", "170730.662500", "170731.450000", "170732.237500", "170733.027500", "170733.815000", "170734.602500", "170735.390000", "170736.180000", "170736.967500", "170737.755000", "170738.545000", "170739.332500", "170740.120000", "170740.907500", "170741.697500", "170742.485000", "170743.272500", "170744.060000", "170744.850000", "170745.637500", "170746.425000", "170747.212500", "170748.002500", "170748.790000", "170749.577500", "170750.365000", "170751.155000", "170751.942500", "170752.730000", "170753.517500", "170754.307500", "170755.095000", "170755.882500", "170756.672500", "170757.460000", "170758.247500", "170759.035000", "170759.825000", "170800.612500", "170801.400000", "170802.187500", "170802.977500", "170803.765000", "170804.552500", "170805.340000", "170806.130000", "170806.917500", "170807.705000", "170808.492500", "170809.282500", "170810.070000", "170810.857500", "170811.645000", "170812.435000", "170813.222500", "170814.010000", "170814.800000", "170815.587500", "170816.375000", "170817.162500", "170817.952500", "170818.740000", "170819.527500", "170820.315000", "170821.105000", "170821.892500", "170822.680000", "170823.467500", "170824.257500", "170825.045000", "170825.832500", "170826.620000", "170827.410000", "170828.197500", "170828.985000", "170829.772500", "170830.562500", "170831.350000", "170832.137500", "170832.927500", "170833.715000", "170834.502500", "170835.290000", "170836.080000", "170836.867500", "170837.655000", "170838.442500", "170839.232500", "170840.020000", "170840.807500", "170841.595000", "170842.385000", "170843.172500", "170843.960000", "170844.747500", "170845.537500", "170846.325000", "170847.112500", "170847.900000", "170848.690000", "170849.477500", "170850.265000", "170851.055000", "170851.842500", "170852.630000", "170853.417500", "170854.207500", "170854.995000", "170855.782500", "170856.570000", "170857.360000", "170858.147500", "170858.935000", "170859.722500", "170900.512500", "170901.300000", "170902.087500", "170902.875000", "170903.665000", "170904.452500", "170905.240000", "170906.027500", "170906.817500"],
      "ContentTime": ["170207.796000", "170207.812000", "170207.812000", "170207.812000", "170207.812000", "170207.828000", "170207.828000", "170207.828000", "170207.828000", "170207.828000", "170207.828000", "170207.828000", "170207.843000", "170207.843000", "170207.843000", "170207.843000", "170207.843000", "170207.843000", "170207.843000", "170207.859000", "170207.859000", "170207.859000", "170207.859000", "170207.859000", "170207.859000", "170207.859000", "170207.875000", "170207.875000", "170207.875000", "170207.875000", "170207.875000", "170207.875000", "170207.875000", "170207.890000", "170207.890000", "170207.890000", "170207.890000", "170207.890000", "170207.906000", "170207.906000", "170207.906000", "170207.906000", "170207.906000", "170207.921000", "170227.781000", "170227.781000", "170227.781000", "170227.781000", "170227.781000", "170227.781000", "170227.796000", "170227.796000", "170227.796000", "170227.796000", "170227.796000", "170227.796000", "170227.796000", "170227.812000", "170227.812000", "170227.812000", "170227.812000", "170227.812000", "170227.812000", "170227.812000", "170227.828000", "170227.828000", "170227.828000", "170227.828000", "170227.828000", "170227.828000", "170247.781000", "170247.781000", "170247.781000", "170247.781000", "170247.781000", "170247.781000", "170247.796000", "170247.796000", "170247.796000", "170247.796000", "170247.796000", "170247.796000", "170247.796000", "170247.812000", "170247.812000", "170247.812000", "170247.812000", "170247.812000", "170247.812000", "170247.812000", "170247.828000", "170247.828000", "170247.828000", "170247.828000", "170247.828000", "170307.781000", "170307.781000", "170307.781000", "170307.781000", "170307.781000", "170307.781000", "170307.796000", "170307.796000", "170307.796000", "170307.796000", "170307.796000", "170307.796000", "170307.796000", "170307.812000", "170307.812000", "170307.812000", "170307.812000", "170307.812000", "170307.812000", "170307.812000", "170307.828000", "170307.828000", "170307.828000", "170307.828000", "170307.828000", "170307.828000", "170327.781000", "170327.781000", "170327.781000", "170327.781000", "170327.781000", "170327.781000", "170327.796000", "170327.796000", "170327.796000", "170327.796000", "170327.796000", "170327.796000", "170327.796000", "170327.812000", "170327.812000", "170327.812000", "170327.812000", "170327.812000", "170327.812000", "170327.812000", "170327.828000", "170327.828000", "170327.828000", "170327.828000", "170327.828000", "170347.781000", "170347.781000", "170347.781000", "170347.781000", "170347.781000", "170347.781000", "170347.796000", "170347.796000", "170347.796000", "170347.796000", "170347.796000", "170347.796000", "170347.812000", "170347.812000", "170347.812000", "170347.812000", "170347.812000", "170347.812000", "170347.812000", "170347.828000", "170347.828000", "170347.828000", "170347.828000", "170347.828000", "170347.828000", "170347.828000", "170407.781000", "170407.781000", "170407.781000", "170407.781000", "170407.781000", "170407.781000", "170407.796000", "170407.796000", "170407.796000", "170407.796000", "170407.796000", "170407.796000", "170407.812000", "170407.812000", "170407.812000", "170407.812000", "170407.812000", "170407.828000", "170407.828000", "170407.828000", "170407.828000", "170407.828000", "170407.828000", "170407.828000", "170407.843000", "170427.781000", "170427.781000", "170427.781000", "170427.781000", "170427.781000", "170427.781000", "170427.796000", "170427.796000", "170427.796000", "170427.796000", "170427.796000", "170427.796000", "170427.796000", "170427.812000", "170427.812000", "170427.812000", "170427.812000", "170427.812000", "170427.812000", "170427.812000", "170427.828000", "170427.828000", "170427.828000", "170427.828000", "170427.828000", "170427.828000", "170447.781000", "170447.781000", "170447.781000", "170447.796000", "170447.796000", "170447.796000", "170447.796000", "170447.796000", "170447.796000", "170447.796000", "170447.812000", "170447.812000", "170447.812000", "170447.812000", "170447.812000", "170447.812000", "170447.812000", "170447.828000", "170447.828000", "170447.828000", "170447.828000", "170447.828000", "170447.828000", "170447.828000", "170447.843000", "170507.781000", "170507.781000", "170507.781000", "170507.781000", "170507.781000", "170507.781000", "170507.796000", "170507.796000", "170507.796000", "170507.796000", "170507.796000", "170507.796000", "170507.796000", "170507.812000", "170507.812000", "170507.812000", "170507.812000", "170507.812000", "170507.812000", "170507.812000", "170507.828000", "170507.828000", "170507.828000", "170507.828000", "170507.828000", "170507.828000", "170527.781000", "170527.781000", "170527.781000", "170527.781000", "170527.781000", "170527.781000", "170527.796000", "170527.796000", "170527.796000", "170527.796000", "170527.796000", "170527.796000", "170527.796000", "170527.812000", "170527.812000", "170527.812000", "170527.812000", "170527.812000", "170527.812000", "170527.812000", "170527.828000", "170527.828000", "170527.828000", "170527.828000", "170527.828000", "170547.781000", "170547.781000", "170547.781000", "170547.781000", "170547.781000", "170547.781000", "170547.796000", "170547.796000", "170547.796000", "170547.796000", "170547.796000", "170547.796000", "170547.812000", "170547.812000", "170547.812000", "170547.812000", "170547.812000", "170547.828000", "170547.828000", "170547.828000", "170547.828000", "170547.828000", "170547.828000", "170547.843000", "170547.843000", "170547.843000", "170607.781000", "170607.781000", "170607.781000", "170607.781000", "170607.781000", "170607.781000", "170607.796000", "170607.796000", "170607.796000", "170607.796000", "170607.796000", "170607.812000", "170607.812000", "170607.812000", "170607.812000", "170607.812000", "170607.812000", "170607.812000", "170607.828000", "170607.828000", "170607.828000", "170607.828000", "170607.828000", "170607.828000", "170607.828000", "170627.781000", "170627.781000", "170627.781000", "170627.781000", "170627.781000", "170627.781000", "170627.796000", "170627.796000", "170627.796000", "170627.796000", "170627.796000", "170627.796000", "170627.796000", "170627.812000", "170627.812000", "170627.812000", "170627.812000", "170627.812000", "170627.812000", "170627.812000", "170627.828000", "170627.828000", "170627.828000", "170627.828000", "170627.828000", "170627.828000", "170647.781000", "170647.781000", "170647.781000", "170647.781000", "170647.781000", "170647.781000", "170647.796000", "170647.796000", "170647.796000", "170647.796000", "170647.796000", "170647.796000", "170647.812000", "170647.812000", "170647.812000", "170647.812000", "170647.812000", "170647.812000", "170647.812000", "170647.828000", "170647.828000", "170647.828000", "170647.828000", "170647.843000", "170647.843000", "170707.781000", "170707.781000", "170707.781000", "170707.781000", "170707.781000", "170707.781000", "170707.796000", "170707.796000", "170707.796000", "170707.796000", "170707.796000", "170707.796000", "170707.796000", "170707.812000", "170707.812000", "170707.812000", "170707.812000", "170707.812000", "170707.812000", "170707.828000", "170707.828000", "170707.828000", "170707.828000", "170707.828000", "170707.828000", "170707.828000", "170727.781000", "170727.781000", "170727.781000", "170727.781000", "170727.781000", "170727.781000", "170727.796000", "170727.796000", "170727.796000", "170727.796000", "170727.796000", "170727.796000", "170727.796000", "170727.812000", "170727.812000", "170727.812000", "170727.812000", "170727.812000", "170727.812000", "170727.828000", "170727.828000", "170727.828000", "170727.828000", "170727.828000", "170727.828000", "170747.781000", "170747.781000", "170747.781000", "170747.781000", "170747.781000", "170747.781000", "170747.796000", "170747.796000", "170747.796000", "170747.796000", "170747.796000", "170747.796000", "170747.796000", "170747.812000", "170747.812000", "170747.812000", "170747.812000", "170747.812000", "170747.812000", "170747.812000", "170747.828000", "170747.828000", "170747.828000", "170747.828000", "170747.828000", "170747.828000", "170807.781000", "170807.781000", "170807.781000", "170807.781000", "170807.781000", "170807.781000", "170807.796000", "170807.796000", "170807.796000", "170807.796000", "170807.796000", "170807.796000", "170807.796000", "170807.812000", "170807.812000", "170807.812000", "170807.812000", "170807.812000", "170807.812000", "170807.828000", "170807.828000", "170807.828000", "170807.828000", "170807.828000", "170807.828000", "170827.781000", "170827.781000", "170827.781000", "170827.781000", "170827.781000", "170827.781000", "170827.796000", "170827.796000", "170827.796000", "170827.796000", "170827.796000", "170827.796000", "170827.796000", "170827.812000", "170827.812000", "170827.812000", "170827.812000", "170827.812000", "170827.812000", "170827.812000", "170827.828000", "170827.828000", "170827.828000", "170827.828000", "170827.828000", "170827.828000", "170847.781000", "170847.781000", "170847.781000", "170847.781000", "170847.781000", "170847.781000", "170847.796000", "170847.796000", "170847.796000", "170847.796000", "170847.796000", "170847.796000", "170847.796000", "170847.812000", "170847.812000", "170847.812000", "170847.812000", "170847.812000", "170847.812000", "170847.812000", "170847.828000", "170847.828000", "170847.828000", "170847.828000", "170847.828000", "170907.781000", "170907.781000", "170907.781000", "170907.781000", "170907.781000", "170907.781000", "170907.796000", "170907.796000", "170907.796000", "170907.796000", "170907.796000", "170907.796000", "170907.796000", "170907.812000", "170907.812000", "170907.812000", "170907.812000", "170907.812000", "170907.812000", "170907.812000", "170907.828000", "170907.828000", "170907.828000", "170907.828000", "170907.828000", "170908.687000", "170908.687000"],
      "DataSetTrailingPadding": [
        "\u0000\u0000\u0000\u0000\u0000\u0000\u0000\u0000\u0000\u0000\u0000\u0000\u0000\u0000",
        "\u0000\u0000\u0000\u0000\u0000\u0000\u0000\u0000\u0000\u0000\u0000\u0000",
        "\u0000\u0000\u0000\u0000\u0000\u0000\u0000\u0000\u0000\u0000\u0000\u0000\u0000\u0000\u0000\u0000\u0000\u0000",
        "\u0000\u0000\u0000\u0000\u0000\u0000\u0000\u0000\u0000\u0000\u0000\u0000",
        "\u0000\u0000\u0000\u0000\u0000\u0000\u0000\u0000\u0000\u0000\u0000\u0000\u0000\u0000",
        "\u0000\u0000\u0000\u0000\u0000\u0000\u0000\u0000\u0000\u0000\u0000\u0000\u0000\u0000\u0000\u0000",
        "\u0000\u0000\u0000\u0000\u0000\u0000\u0000\u0000\u0000\u0000\u0000\u0000",
        "\u0000\u0000\u0000\u0000\u0000\u0000\u0000\u0000\u0000\u0000\u0000\u0000\u0000\u0000",
        "\u0000\u0000\u0000\u0000\u0000\u0000\u0000\u0000\u0000\u0000\u0000\u0000",
        "\u0000\u0000\u0000\u0000\u0000\u0000\u0000\u0000",
        "\u0000\u0000\u0000\u0000\u0000\u0000\u0000\u0000\u0000\u0000",
        "\u0000\u0000\u0000\u0000\u0000\u0000\u0000\u0000",
        "\u0000\u0000\u0000\u0000\u0000\u0000\u0000\u0000\u0000\u0000",
        "\u0000\u0000\u0000\u0000\u0000\u0000\u0000\u0000\u0000\u0000",
        "\u0000\u0000\u0000\u0000\u0000\u0000\u0000\u0000",
        "\u0000\u0000\u0000\u0000\u0000\u0000\u0000\u0000\u0000\u0000",
        "\u0000\u0000\u0000\u0000\u0000\u0000\u0000\u0000\u0000\u0000",
        "\u0000\u0000\u0000\u0000\u0000\u0000\u0000\u0000",
        "\u0000\u0000\u0000\u0000\u0000\u0000\u0000\u0000\u0000\u0000",
        "\u0000\u0000\u0000\u0000\u0000\u0000\u0000\u0000",
        "\u0000\u0000\u0000\u0000\u0000\u0000\u0000\u0000\u0000\u0000",
        "\u0000\u0000\u0000\u0000\u0000\u0000\u0000\u0000\u0000\u0000",
        "\u0000\u0000\u0000\u0000\u0000\u0000\u0000\u0000",
        "\u0000\u0000\u0000\u0000\u0000\u0000\u0000\u0000\u0000\u0000",
        "\u0000\u0000\u0000\u0000\u0000\u0000\u0000\u0000\u0000\u0000",
