{
  "AcquisitionMatrixPE": 104,
  "AcquisitionNumber": 1,
  "AcquisitionTime": "16:53:17.722500",
  "BandwidthPerPixelPhaseEncode": 13.935,
  "BaseResolution": 104,
  "CoilString": "C:HEA;HEP",
  "ConversionSoftware": "dcm2niix",
  "ConversionSoftwareVersion": "v1.0.20210317",
  "DerivedVendorReportedEchoSpacing": 0.000690017,
  "DeviceSerialNumber": "35450",
  "DwellTime": 2.5e-06,
  "EchoTime": 0.0348,
  "EffectiveEchoSpacing": 0.000690017,
  "FlipAngle": 55,
  "ImageComments": "Unaliased MB8/PE3 (remote)",
  "ImageOrientationPatientDICOM": [0.999935, -0.00133026, 0.0113247, -4.40094e-08, 0.993171, 0.116667],
  "ImageType": [
    "ORIGINAL",
    "PRIMARY",
    "M",
    "MB",
    "ND",
    "MOSAIC"
],
  "ImagingFrequency": 123.235,
  "InPlanePhaseEncodingDirectionDICOM": "COL",
  "InstitutionAddress": "Univeristy Ave. 197,Newark,North East,US,07102-1814",
  "InstitutionName": "RUBIC",
  "InstitutionalDepartmentName": "Department",
  "MRAcquisitionType": "2D",
  "MagneticFieldStrength": 3,
  "Manufacturer": "Siemens",
  "ManufacturersModelName": "TrioTim",
  "Modality": "MR",
  "MultibandAccelerationFactor": 8,
  "PartialFourier": 0.875,
  "PatientPosition": "HFS",
  "PercentPhaseFOV": 100,
  "PercentSampling": 100,
  "PhaseEncodingDirection": "j-",
  "PhaseEncodingSteps": 91,
  "PhaseResolution": 1,
  "PixelBandwidth": 1923,
  "ProcedureStepDescription": "Cole^Michael",
  "ProtocolName": "cmrr_mbep2d_bold_2mm_MB8_Task_8x",
  "PulseSequenceDetails": "%CustomerSeq%\\cmrr_mbep2d_bold",
  "ReceiveCoilName": "32Ch_Head",
  "ReconMatrixPE": 104,
  "RepetitionTime": 0.785,
  "SAR": 0.127054,
  "ScanOptions": "PFP\\FS",
  "ScanningSequence": "EP",
  "SequenceName": "epfid2d1_104",
  "SequenceVariant": "SK\\SS",
  "SeriesDescription": "cmrr_mbep2d_bold_2mm_MB8_Task_8x",
  "SeriesNumber": 21,
  "ShimSetting": [2104, -767, -7868, 150, 78, -729, -66, 91],
  "SliceThickness": 2,
  "SliceTiming": [0, 0.4375, 0.0875, 0.5275, 0.175, 0.615, 0.2625, 0.7025, 0.35, 0, 0.4375, 0.0875, 0.5275, 0.175, 0.615, 0.2625, 0.7025, 0.35, 0, 0.4375, 0.0875, 0.5275, 0.175, 0.615, 0.2625, 0.7025, 0.35, 0, 0.4375, 0.0875, 0.5275, 0.175, 0.615, 0.2625, 0.7025, 0.35, 0, 0.4375, 0.0875, 0.5275, 0.175, 0.615, 0.2625, 0.7025, 0.35, 0, 0.4375, 0.0875, 0.5275, 0.175, 0.615, 0.2625, 0.7025, 0.35, 0, 0.4375, 0.0875, 0.5275, 0.175, 0.615, 0.2625, 0.7025, 0.35, 0, 0.4375, 0.0875, 0.5275, 0.175, 0.615, 0.2625, 0.7025, 0.35],
  "SoftwareVersions": "syngo MR B19",
  "SpacingBetweenSlices": 2,
  "StationName": "MRC35450",
  "TaskName": "cpro",
  "TotalReadoutTime": 0.0710717,
  "TxRefAmp": 330.442,
  "dcmmeta_affine": [
    [-1.9998699426651, -8.801884376907765e-08, 0.022805076092481613, 106.56195831298828],
    [0.0026605206076055765, 1.9863420724868774, 0.23331955075263977, -84.34383392333984],
    [0.022649351507425308, -0.2333347201347351, 1.986212968826294, -72.2657699584961],
    [0.0, 0.0, 0.0, 1.0]
],
  "dcmmeta_reorient_transform": [
    [0.0, -1.0, 0.0, 103.0],
    [1.0, 0.0, 0.0, 0.0],
    [0.0, 0.0, 1.0, 0.0],
    [0.0, 0.0, 0.0, 1.0]
],
  "dcmmeta_shape": [104, 104, 72, 581],
  "dcmmeta_slice_dim": 2,
  "dcmmeta_version": 0.6,
  "global": {
    "const": {
      "AcquisitionMatrix": [104, 0, 0, 104],
      "AngioFlag": "N",
      "BitsAllocated": 16,
      "BitsStored": 12,
      "Columns": 936,
      "EchoNumbers": 1,
      "EchoTime": 34.8,
      "EchoTrainLength": 1,
      "FlipAngle": 55.0,
      "HighBit": 11,
      "ImageOrientationPatient": [0.99993498895057, -0.0013302602804, 0.01132467571341, -4.4009423e-08, 0.99317104642802, 0.11666735849012],
      "ImagePositionPatient": [-938.50782522936, -945.46093535263, -202.78861927085],
      "ImageType": [
        "ORIGINAL",
        "PRIMARY",
        "M",
        "MB",
        "ND",
        "MOSAIC"
],
      "ImagedNucleus": "1H",
      "ImagingFrequency": 123.23462,
      "InPlanePhaseEncodingDirection": "COL",
      "MRAcquisitionType": "2D",
      "MagneticFieldStrength": 3.0,
      "Manufacturer": "SIEMENS",
      "ManufacturerModelName": "TrioTim",
      "Modality": "MR",
      "NumberOfAverages": 1.0,
      "NumberOfPhaseEncodingSteps": 91,
      "PercentPhaseFieldOfView": 100.0,
      "PercentSampling": 100.0,
      "PerformedProcedureStepStartTime": "145037.515000",
      "PhotometricInterpretation": "MONOCHROME2",
      "PixelBandwidth": 1923.0,
      "PixelRepresentation": 0,
      "PixelSpacing": [2.0, 2.0],
      "ProtocolName": "cmrr_mbep2d_bold_2mm_MB8_Task_8x",
      "RepetitionTime": 785.0,
      "Rows": 936,
      "SAR": 0.1270536828108,
      "SamplesPerPixel": 1,
      "ScanOptions": [
        "PFP",
        "FS"
],
      "ScanningSequence": "EP",
      "SequenceName": "epfid2d1_104",
      "SequenceVariant": [
        "SK",
        "SS"
],
      "SeriesDescription": "cmrr_mbep2d_bold_2mm_MB8_Task_8x",
      "SeriesNumber": 21,
      "SeriesTime": "165350.578000",
      "SliceLocation": -80.392061250604,
      "SliceThickness": 2.0,
      "SmallestImagePixelValue": 0,
      "SoftwareVersions": "syngo MR B19",
      "SpacingBetweenSlices": 2.0000000256829,
      "SpecificCharacterSet": "ISO_IR 100",
      "StudyID": "1",
      "StudyTime": "145037.484000",
      "TransmitCoilName": "Body",
      "VariableFlipAngleFlag": "N",
      "WindowCenterWidthExplanation": "Algo1",
      "dBdt": 0.0},
    "slices": {}
  },
  "time": {
    "samples": {
      "AcquisitionNumber": [1, 2, 3, 4, 5, 6, 7, 8, 9, 10, 11, 12, 13, 14, 15, 16, 17, 18, 19, 20, 21, 22, 23, 24, 25, 26, 27, 28, 29, 30, 31, 32, 33, 34, 35, 36, 37, 38, 39, 40, 41, 42, 43, 44, 45, 46, 47, 48, 49, 50, 51, 52, 53, 54, 55, 56, 57, 58, 59, 60, 61, 62, 63, 64, 65, 66, 67, 68, 69, 70, 71, 72, 73, 74, 75, 76, 77, 78, 79, 80, 81, 82, 83, 84, 85, 86, 87, 88, 89, 90, 91, 92, 93, 94, 95, 96, 97, 98, 99, 100, 101, 102, 103, 104, 105, 106, 107, 108, 109, 110, 111, 112, 113, 114, 115, 116, 117, 118, 119, 120, 121, 122, 123, 124, 125, 126, 127, 128, 129, 130, 131, 132, 133, 134, 135, 136, 137, 138, 139, 140, 141, 142, 143, 144, 145, 146, 147, 148, 149, 150, 151, 152, 153, 154, 155, 156, 157, 158, 159, 160, 161, 162, 163, 164, 165, 166, 167, 168, 169, 170, 171, 172, 173, 174, 175, 176, 177, 178, 179, 180, 181, 182, 183, 184, 185, 186, 187, 188, 189, 190, 191, 192, 193, 194, 195, 196, 197, 198, 199, 200, 201, 202, 203, 204, 205, 206, 207, 208, 209, 210, 211, 212, 213, 214, 215, 216, 217, 218, 219, 220, 221, 222, 223, 224, 225, 226, 227, 228, 229, 230, 231, 232, 233, 234, 235, 236, 237, 238, 239, 240, 241, 242, 243, 244, 245, 246, 247, 248, 249, 250, 251, 252, 253, 254, 255, 256, 257, 258, 259, 260, 261, 262, 263, 264, 265, 266, 267, 268, 269, 270, 271, 272, 273, 274, 275, 276, 277, 278, 279, 280, 281, 282, 283, 284, 285, 286, 287, 288, 289, 290, 291, 292, 293, 294, 295, 296, 297, 298, 299, 300, 301, 302, 303, 304, 305, 306, 307, 308, 309, 310, 311, 312, 313, 314, 315, 316, 317, 318, 319, 320, 321, 322, 323, 324, 325, 326, 327, 328, 329, 330, 331, 332, 333, 334, 335, 336, 337, 338, 339, 340, 341, 342, 343, 344, 345, 346, 347, 348, 349, 350, 351, 352, 353, 354, 355, 356, 357, 358, 359, 360, 361, 362, 363, 364, 365, 366, 367, 368, 369, 370, 371, 372, 373, 374, 375, 376, 377, 378, 379, 380, 381, 382, 383, 384, 385, 386, 387, 388, 389, 390, 391, 392, 393, 394, 395, 396, 397, 398, 399, 400, 401, 402, 403, 404, 405, 406, 407, 408, 409, 410, 411, 412, 413, 414, 415, 416, 417, 418, 419, 420, 421, 422, 423, 424, 425, 426, 427, 428, 429, 430, 431, 432, 433, 434, 435, 436, 437, 438, 439, 440, 441, 442, 443, 444, 445, 446, 447, 448, 449, 450, 451, 452, 453, 454, 455, 456, 457, 458, 459, 460, 461, 462, 463, 464, 465, 466, 467, 468, 469, 470, 471, 472, 473, 474, 475, 476, 477, 478, 479, 480, 481, 482, 483, 484, 485, 486, 487, 488, 489, 490, 491, 492, 493, 494, 495, 496, 497, 498, 499, 500, 501, 502, 503, 504, 505, 506, 507, 508, 509, 510, 511, 512, 513, 514, 515, 516, 517, 518, 519, 520, 521, 522, 523, 524, 525, 526, 527, 528, 529, 530, 531, 532, 533, 534, 535, 536, 537, 538, 539, 540, 541, 542, 543, 544, 545, 546, 547, 548, 549, 550, 551, 552, 553, 554, 555, 556, 557, 558, 559, 560, 561, 562, 563, 564, 565, 566, 567, 568, 569, 570, 571, 572, 573, 574, 575, 576, 577, 578, 579, 580, 581],
      "AcquisitionTime": ["165317.722500", "165318.512500", "165319.300000", "165320.087500", "165320.875000", "165321.665000", "165322.452500", "165323.240000", "165324.030000", "165324.817500", "165325.605000", "165326.392500", "165327.182500", "165327.970000", "165328.757500", "165329.545000", "165330.335000", "165331.122500", "165331.910000", "165332.697500", "165333.487500", "165334.275000", "165335.062500", "165335.850000", "165336.640000", "165337.427500", "165338.215000", "165339.002500", "165339.792500", "165340.580000", "165341.367500", "165342.157500", "165342.945000", "165343.732500", "165344.520000", "165345.310000", "165346.097500", "165346.885000", "165347.672500", "165348.462500", "165349.250000", "165350.037500", "165350.825000", "165351.615000", "165352.402500", "165353.190000", "165353.977500", "165354.767500", "165355.555000", "165356.342500", "165357.130000", "165357.920000", "165358.707500", "165359.495000", "165400.285000", "165401.072500", "165401.860000", "165402.647500", "165403.437500", "165404.225000", "165405.012500", "165405.800000", "165406.590000", "165407.377500", "165408.165000", "165408.952500", "165409.742500", "165410.530000", "165411.317500", "165412.105000", "165412.895000", "165413.682500", "165414.470000", "165415.257500", "165416.047500", "165416.835000", "165417.622500", "165418.412500", "165419.200000", "165419.987500", "165420.775000", "165421.565000", "165422.352500", "165423.140000", "165423.927500", "165424.717500", "165425.505000", "165426.292500", "165427.080000", "165427.870000", "165428.657500", "165429.445000", "165430.232500", "165431.022500", "165431.810000", "165432.597500", "165433.385000", "165434.175000", "165434.962500", "165435.750000", "165436.540000", "165437.327500", "165438.115000", "165438.902500", "165439.692500", "165440.480000", "165441.267500", "165442.055000", "165442.845000", "165443.632500", "165444.420000", "165445.207500", "165445.997500", "165446.785000", "165447.572500", "165448.360000", "165449.150000", "165449.937500", "165450.725000", "165451.515000", "165452.302500", "165453.090000", "165453.877500", "165454.667500", "165455.455000", "165456.242500", "165457.030000", "165457.820000", "165458.607500", "165459.395000", "165500.182500", "165500.972500", "165501.760000", "165502.547500", "165503.335000", "165504.125000", "165504.912500", "165505.700000", "165506.487500", "165507.277500", "165508.065000", "165508.852500", "165509.642500", "165510.430000", "165511.217500", "165512.005000", "165512.795000", "165513.582500", "165514.370000", "165515.157500", "165515.947500", "165516.735000", "165517.522500", "165518.310000", "165519.100000", "165519.887500", "165520.675000", "165521.462500", "165522.252500", "165523.040000", "165523.827500", "165524.615000", "165525.405000", "165526.192500", "165526.980000", "165527.770000", "165528.557500", "165529.345000", "165530.132500", "165530.922500", "165531.710000", "165532.497500", "165533.285000", "165534.075000", "165534.862500", "165535.650000", "165536.437500", "165537.227500", "165538.015000", "165538.802500", "165539.590000", "165540.380000", "165541.167500", "165541.955000", "165542.742500", "165543.532500", "165544.320000", "165545.107500", "165545.897500", "165546.685000", "165547.472500", "165548.260000", "165549.050000", "165549.837500", "165550.625000", "165551.412500", "165552.202500", "165552.990000", "165553.777500", "165554.565000", "165555.355000", "165556.142500", "165556.930000", "165557.717500", "165558.507500", "165559.295000", "165600.082500", "165600.870000", "165601.660000", "165602.447500", "165603.235000", "165604.025000", "165604.812500", "165605.600000", "165606.387500", "165607.177500", "165607.965000", "165608.752500", "165609.540000", "165610.330000", "165611.117500", "165611.905000", "165612.692500", "165613.482500", "165614.270000", "165615.057500", "165615.845000", "165616.635000", "165617.422500", "165618.210000", "165618.997500", "165619.787500", "165620.575000", "165621.362500", "165622.152500", "165622.940000", "165623.727500", "165624.515000", "165625.305000", "165626.092500", "165626.880000", "165627.667500", "165628.457500", "165629.245000", "165630.032500", "165630.820000", "165631.610000", "165632.397500", "165633.185000", "165633.972500", "165634.762500", "165635.550000", "165636.337500", "165637.125000", "165637.915000", "165638.702500", "165639.490000", "165640.280000", "165641.067500", "165641.855000", "165642.642500", "165643.432500", "165644.220000", "165645.007500", "165645.795000", "165646.585000", "165647.372500", "165648.160000", "165648.947500", "165649.737500", "165650.525000", "165651.312500", "165652.100000", "165652.890000", "165653.677500", "165654.465000", "165655.252500", "165656.042500", "165656.830000", "165657.617500", "165658.407500", "165659.195000", "165659.982500", "165700.770000", "165701.560000", "165702.347500", "165703.135000", "165703.922500", "165704.712500", "165705.500000", "165706.287500", "165707.075000", "165707.865000", "165708.652500", "165709.440000", "165710.227500", "165711.017500", "165711.805000", "165712.592500", "165713.380000", "165714.170000", "165714.957500", "165715.745000", "165716.535000", "165717.322500", "165718.110000", "165718.897500", "165719.687500", "165720.475000", "165721.262500", "165722.050000", "165722.840000", "165723.627500", "165724.415000", "165725.202500", "165725.992500", "165726.780000", "165727.567500", "165728.355000", "165729.145000", "165729.932500", "165730.720000", "165731.507500", "165732.297500", "165733.085000", "165733.872500", "165734.662500", "165735.450000", "165736.237500", "165737.025000", "165737.815000", "165738.602500", "165739.390000", "165740.177500", "165740.967500", "165741.755000", "165742.542500", "165743.330000", "165744.120000", "165744.907500", "165745.695000", "165746.482500", "165747.272500", "165748.060000", "165748.847500", "165749.635000", "165750.425000", "165751.212500", "165752.000000", "165752.790000", "165753.577500", "165754.365000", "165755.152500", "165755.942500", "165756.730000", "165757.517500", "165758.305000", "165759.095000", "165759.882500", "165800.670000", "165801.457500", "165802.247500", "165803.035000", "165803.822500", "165804.610000", "165805.400000", "165806.187500", "165806.975000", "165807.765000", "165808.552500", "165809.340000", "165810.127500", "165810.917500", "165811.705000", "165812.492500", "165813.280000", "165814.070000", "165814.857500", "165815.645000", "165816.432500", "165817.222500", "165818.010000", "165818.797500", "165819.585000", "165820.375000", "165821.162500", "165821.950000", "165822.737500", "165823.527500", "165824.315000", "165825.102500", "165825.892500", "165826.680000", "165827.467500", "165828.255000", "165829.045000", "165829.832500", "165830.620000", "165831.407500", "165832.197500", "165832.985000", "165833.772500", "165834.560000", "165835.350000", "165836.137500", "165836.925000", "165837.712500", "165838.502500", "165839.290000", "165840.077500", "165840.865000", "165841.655000", "165842.442500", "165843.230000", "165844.020000", "165844.807500", "165845.595000", "165846.382500", "165847.172500", "165847.960000", "165848.747500", "165849.535000", "165850.325000", "165851.112500", "165851.900000", "165852.687500", "165853.477500", "165854.265000", "165855.052500", "165855.840000", "165856.630000", "165857.417500", "165858.205000", "165858.992500", "165859.782500", "165900.570000", "165901.357500", "165902.147500", "165902.935000", "165903.722500", "165904.510000", "165905.300000", "165906.087500", "165906.875000", "165907.662500", "165908.452500", "165909.240000", "165910.027500", "165910.815000", "165911.605000", "165912.392500", "165913.180000", "165913.967500", "165914.757500", "165915.545000", "165916.332500", "165917.120000", "165917.910000", "165918.697500", "165919.485000", "165920.275000", "165921.062500", "165921.850000", "165922.637500", "165923.427500", "165924.215000", "165925.002500", "165925.790000", "165926.580000", "165927.367500", "165928.155000", "165928.942500", "165929.732500", "165930.520000", "165931.307500", "165932.095000", "165932.885000", "165933.672500", "165934.460000", "165935.247500", "165936.037500", "165936.825000", "165937.612500", "165938.402500", "165939.190000", "165939.977500", "165940.765000", "165941.555000", "165942.342500", "165943.130000", "165943.917500", "165944.707500", "165945.495000", "165946.282500", "165947.070000", "165947.860000", "165948.647500", "165949.435000", "165950.222500", "165951.012500", "165951.800000", "165952.587500", "165953.375000", "165954.165000", "165954.952500", "165955.740000", "165956.530000", "165957.317500", "165958.105000", "165958.892500", "165959.682500", "170000.470000", "170001.257500", "170002.045000", "170002.835000", "170003.622500", "170004.410000", "170005.197500", "170005.987500", "170006.775000", "170007.562500", "170008.350000", "170009.140000", "170009.927500", "170010.715000", "170011.502500", "170012.292500", "170013.080000", "170013.867500", "170014.657500", "170015.445000", "170016.232500", "170017.020000", "170017.810000", "170018.597500", "170019.385000", "170020.172500", "170020.962500", "170021.750000", "170022.537500", "170023.325000", "170024.115000", "170024.902500", "170025.690000", "170026.477500", "170027.267500", "170028.055000", "170028.842500", "170029.630000", "170030.420000", "170031.207500", "170031.995000", "170032.785000", "170033.572500", "170034.360000", "170035.147500", "170035.937500", "170036.725000", "170037.512500", "170038.300000", "170039.090000", "170039.877500", "170040.665000", "170041.452500", "170042.242500", "170043.030000", "170043.817500", "170044.605000", "170045.395000", "170046.182500", "170046.970000", "170047.757500", "170048.547500", "170049.335000", "170050.122500", "170050.912500", "170051.700000", "170052.487500", "170053.275000", "170054.065000", "170054.852500"],
      "ContentTime": ["165350.578000", "165350.593000", "165350.593000", "165350.593000", "165350.593000", "165350.593000", "165350.593000", "165350.593000", "165350.609000", "165350.609000", "165350.609000", "165350.609000", "165350.609000", "165350.609000", "165350.625000", "165350.625000", "165350.625000", "165350.625000", "165350.625000", "165350.625000", "165350.625000", "165350.625000", "165350.640000", "165350.640000", "165350.640000", "165350.640000", "165350.640000", "165350.640000", "165350.640000", "165350.656000", "165350.656000", "165350.656000", "165350.656000", "165350.656000", "165350.656000", "165350.656000", "165350.671000", "165350.671000", "165410.562000", "165410.562000", "165410.562000", "165410.562000", "165410.562000", "165410.562000", "165410.578000", "165410.578000", "165410.578000", "165410.578000", "165410.578000", "165410.578000", "165410.578000", "165410.593000", "165410.593000", "165410.593000", "165410.593000", "165410.593000", "165410.593000", "165410.593000", "165410.609000", "165410.609000", "165410.609000", "165410.609000", "165410.609000", "165410.609000", "165430.562000", "165430.562000", "165430.562000", "165430.562000", "165430.562000", "165430.562000", "165430.578000", "165430.578000", "165430.578000", "165430.578000", "165430.578000", "165430.578000", "165430.593000", "165430.593000", "165430.593000", "165430.593000", "165430.593000", "165430.609000", "165430.609000", "165430.609000", "165430.609000", "165430.609000", "165430.609000", "165430.609000", "165430.625000", "165450.562000", "165450.562000", "165450.562000", "165450.562000", "165450.562000", "165450.562000", "165450.578000", "165450.578000", "165450.578000", "165450.578000", "165450.578000", "165450.578000", "165450.578000", "165450.593000", "165450.593000", "165450.593000", "165450.593000", "165450.593000", "165450.609000", "165450.609000", "165450.609000", "165450.609000", "165450.609000", "165450.625000", "165450.625000", "165450.625000", "165510.562000", "165510.562000", "165510.562000", "165510.562000", "165510.562000", "165510.562000", "165510.578000", "165510.578000", "165510.578000", "165510.578000", "165510.578000", "165510.578000", "165510.578000", "165510.593000", "165510.593000", "165510.593000", "165510.593000", "165510.593000", "165510.593000", "165510.609000", "165510.609000", "165510.609000", "165510.609000", "165510.609000", "165510.609000", "165530.562000", "165530.562000", "165530.562000", "165530.562000", "165530.562000", "165530.562000", "165530.578000", "165530.578000", "165530.578000", "165530.578000", "165530.578000", "165530.578000", "165530.578000", "165530.593000", "165530.593000", "165530.593000", "165530.593000", "165530.593000", "165530.593000", "165530.593000", "165530.609000", "165530.609000", "165530.609000", "165530.609000", "165530.609000", "165530.609000", "165550.562000", "165550.562000", "165550.562000", "165550.562000", "165550.562000", "165550.562000", "165550.578000", "165550.578000", "165550.578000", "165550.578000", "165550.578000", "165550.578000", "165550.578000", "165550.593000", "165550.593000", "165550.593000", "165550.593000", "165550.593000", "165550.593000", "165550.609000", "165550.609000", "165550.609000", "165550.609000", "165550.609000", "165550.609000", "165610.562000", "165610.562000", "165610.562000", "165610.562000", "165610.562000", "165610.562000", "165610.578000", "165610.578000", "165610.578000", "165610.578000", "165610.578000", "165610.593000", "165610.593000", "165610.593000", "165610.593000", "165610.593000", "165610.593000", "165610.593000", "165610.609000", "165610.609000", "165610.609000", "165610.609000", "165610.609000", "165610.609000", "165610.609000", "165610.625000", "165630.562000", "165630.562000", "165630.562000", "165630.562000", "165630.562000", "165630.562000", "165630.578000", "165630.578000", "165630.578000", "165630.578000", "165630.578000", "165630.578000", "165630.578000", "165630.593000", "165630.593000", "165630.593000", "165630.593000", "165630.593000", "165630.593000", "165630.593000", "165630.609000", "165630.609000", "165630.609000", "165630.609000", "165630.609000", "165650.562000", "165650.562000", "165650.562000", "165650.562000", "165650.562000", "165650.562000", "165650.578000", "165650.578000", "165650.578000", "165650.578000", "165650.578000", "165650.578000", "165650.578000", "165650.593000", "165650.593000", "165650.593000", "165650.593000", "165650.593000", "165650.593000", "165650.593000", "165650.609000", "165650.609000", "165650.609000", "165650.609000", "165650.609000", "165650.609000", "165710.562000", "165710.562000", "165710.562000", "165710.562000", "165710.562000", "165710.562000", "165710.578000", "165710.578000", "165710.578000", "165710.578000", "165710.578000", "165710.578000", "165710.578000", "165710.593000", "165710.593000", "165710.593000", "165710.593000", "165710.593000", "165710.593000", "165710.593000", "165710.609000", "165710.609000", "165710.609000", "165710.609000", "165710.609000", "165730.562000", "165730.562000", "165730.562000", "165730.562000", "165730.562000", "165730.562000", "165730.578000", "165730.578000", "165730.578000", "165730.578000", "165730.578000", "165730.578000", "165730.578000", "165730.593000", "165730.593000", "165730.593000", "165730.593000", "165730.593000", "165730.593000", "165730.593000", "165730.609000", "165730.609000", "165730.609000", "165730.609000", "165730.609000", "165730.609000", "165750.562000", "165750.562000", "165750.562000", "165750.562000", "165750.562000", "165750.562000", "165750.578000", "165750.578000", "165750.578000", "165750.578000", "165750.578000", "165750.578000", "165750.578000", "165750.593000", "165750.593000", "165750.593000", "165750.593000", "165750.593000", "165750.593000", "165750.593000", "165750.609000", "165750.609000", "165750.609000", "165750.609000", "165750.609000", "165810.562000", "165810.562000", "165810.562000", "165810.562000", "165810.562000", "165810.562000", "165810.578000", "165810.578000", "165810.578000", "165810.578000", "165810.578000", "165810.578000", "165810.578000", "165810.593000", "165810.593000", "165810.593000", "165810.593000", "165810.593000", "165810.593000", "165810.593000", "165810.609000", "165810.609000", "165810.609000", "165810.609000", "165810.609000", "165810.609000", "165830.562000", "165830.562000", "165830.562000", "165830.562000", "165830.562000", "165830.562000", "165830.578000", "165830.578000", "165830.578000", "165830.578000", "165830.578000", "165830.578000", "165830.578000", "165830.593000", "165830.593000", "165830.593000", "165830.593000", "165830.593000", "165830.593000", "165830.593000", "165830.609000", "165830.609000", "165830.609000", "165830.609000", "165830.609000", "165850.562000", "165850.562000", "165850.562000", "165850.562000", "165850.562000", "165850.562000", "165850.578000", "165850.578000", "165850.578000", "165850.578000", "165850.578000", "165850.578000", "165850.578000", "165850.593000", "165850.593000", "165850.593000", "165850.593000", "165850.593000", "165850.593000", "165850.593000", "165850.609000", "165850.609000", "165850.609000", "165850.609000", "165850.609000", "165850.609000", "165910.562000", "165910.562000", "165910.562000", "165910.562000", "165910.562000", "165910.578000", "165910.578000", "165910.578000", "165910.578000", "165910.578000", "165910.578000", "165910.593000", "165910.593000", "165910.593000", "165910.593000", "165910.593000", "165910.593000", "165910.609000", "165910.609000", "165910.609000", "165910.609000", "165910.609000", "165910.625000", "165910.625000", "165910.625000", "165930.562000", "165930.562000", "165930.562000", "165930.562000", "165930.562000", "165930.562000", "165930.578000", "165930.578000", "165930.578000", "165930.578000", "165930.578000", "165930.578000", "165930.578000", "165930.593000", "165930.593000", "165930.593000", "165930.593000", "165930.593000", "165930.593000", "165930.593000", "165930.609000", "165930.609000", "165930.609000", "165930.609000", "165930.609000", "165930.609000", "165950.562000", "165950.562000", "165950.562000", "165950.562000", "165950.562000", "165950.578000", "165950.578000", "165950.578000", "165950.578000", "165950.578000", "165950.578000", "165950.578000", "165950.593000", "165950.593000", "165950.593000", "165950.593000", "165950.593000", "165950.609000", "165950.609000", "165950.609000", "165950.609000", "165950.609000", "165950.609000", "165950.609000", "165950.625000", "170010.562000", "170010.562000", "170010.562000", "170010.562000", "170010.562000", "170010.562000", "170010.578000", "170010.578000", "170010.578000", "170010.578000", "170010.578000", "170010.578000", "170010.578000", "170010.593000", "170010.593000", "170010.593000", "170010.593000", "170010.593000", "170010.593000", "170010.593000", "170010.609000", "170010.609000", "170010.609000", "170010.609000", "170010.609000", "170010.609000", "170030.562000", "170030.562000", "170030.562000", "170030.562000", "170030.562000", "170030.562000", "170030.578000", "170030.578000", "170030.578000", "170030.578000", "170030.578000", "170030.578000", "170030.578000", "170030.593000", "170030.593000", "170030.593000", "170030.593000", "170030.593000", "170030.609000", "170030.609000", "170030.609000", "170030.609000", "170030.609000", "170030.609000", "170030.625000", "170050.562000", "170050.562000", "170050.562000", "170050.562000", "170050.562000", "170050.562000", "170050.578000", "170050.578000", "170050.578000", "170050.578000", "170050.578000", "170050.578000", "170050.578000", "170050.593000", "170050.593000", "170050.593000", "170050.593000", "170050.593000", "170050.593000", "170050.593000", "170050.609000", "170050.609000", "170050.609000", "170050.609000", "170050.609000", "170050.609000", "170056.093000", "170056.109000", "170056.109000", "170056.109000", "170056.109000", "170056.109000", "170056.109000"],
      "DataSetTrailingPadding": [
        "\u0000\u0000\u0000\u0000\u0000\u0000\u0000\u0000\u0000\u0000\u0000\u0000\u0000\u0000",
        "\u0000\u0000\u0000\u0000\u0000\u0000\u0000\u0000\u0000\u0000\u0000\u0000",
        "\u0000\u0000\u0000\u0000\u0000\u0000\u0000\u0000\u0000\u0000\u0000\u0000\u0000\u0000",
        "\u0000\u0000\u0000\u0000\u0000\u0000\u0000\u0000\u0000\u0000\u0000\u0000",
        "\u0000\u0000\u0000\u0000\u0000\u0000\u0000\u0000\u0000\u0000\u0000\u0000\u0000\u0000",
        "\u0000\u0000\u0000\u0000\u0000\u0000\u0000\u0000\u0000\u0000\u0000\u0000\u0000\u0000\u0000\u0000",
        "\u0000\u0000\u0000\u0000\u0000\u0000\u0000\u0000\u0000\u0000\u0000\u0000",
        "\u0000\u0000\u0000\u0000\u0000\u0000\u0000\u0000\u0000\u0000\u0000\u0000\u0000\u0000",
        "\u0000\u0000\u0000\u0000\u0000\u0000\u0000\u0000\u0000\u0000\u0000\u0000\u0000\u0000",
        "\u0000\u0000\u0000\u0000\u0000\u0000\u0000\u0000",
        "\u0000\u0000\u0000\u0000\u0000\u0000\u0000\u0000\u0000\u0000",
        "\u0000\u0000\u0000\u0000\u0000\u0000\u0000\u0000",
        "\u0000\u0000\u0000\u0000\u0000\u0000\u0000\u0000\u0000\u0000",
        "\u0000\u0000\u0000\u0000\u0000\u0000\u0000\u0000\u0000\u0000",
        "\u0000\u0000\u0000\u0000\u0000\u0000\u0000\u0000",
        "\u0000\u0000\u0000\u0000\u0000\u0000\u0000\u0000\u0000\u0000",
        "\u0000\u0000\u0000\u0000\u0000\u0000\u0000\u0000\u0000\u0000",
        "\u0000\u0000\u0000\u0000\u0000\u0000\u0000\u0000",
        "\u0000\u0000\u0000\u0000\u0000\u0000\u0000\u0000\u0000\u0000",
        "\u0000\u0000\u0000\u0000\u0000\u0000\u0000\u0000",
        "\u0000\u0000\u0000\u0000\u0000\u0000\u0000\u0000",
        "\u0000\u0000\u0000\u0000\u0000\u0000\u0000\u0000\u0000\u0000",
        "\u0000\u0000\u0000\u0000\u0000\u0000\u0000\u0000",
        "\u0000\u0000\u0000\u0000\u0000\u0000\u0000\u0000\u0000\u0000",
        "\u0000\u0000\u0000\u0000\u0000\u0000\u0000\u0000\u0000\u0000",
