{
  "AcquisitionMatrixPE": 104,
  "AcquisitionNumber": 1,
  "AcquisitionTime": "17:17:37.710000",
  "BandwidthPerPixelPhaseEncode": 13.935,
  "BaseResolution": 104,
  "CoilString": "C:HEA;HEP",
  "ConversionSoftware": "dcm2niix",
  "ConversionSoftwareVersion": "v1.0.20210317",
  "DerivedVendorReportedEchoSpacing": 0.000690017,
  "DeviceSerialNumber": "35450",
  "DwellTime": 2.5e-06,
  "EchoTime": 0.0348,
  "EffectiveEchoSpacing": 0.000690017,
  "FlipAngle": 55,
  "ImageComments": "Unaliased MB8/PE3 (remote)",
  "ImageOrientationPatientDICOM": [0.999935, -0.00133026, 0.0113247, -4.40094e-08, 0.993171, 0.116667],
  "ImageType": [
    "ORIGINAL",
    "PRIMARY",
    "M",
    "MB",
    "ND",
    "MOSAIC"
],
  "ImagingFrequency": 123.235,
  "InPlanePhaseEncodingDirectionDICOM": "COL",
  "InstitutionAddress": "Univeristy Ave. 197,Newark,North East,US,07102-1814",
  "InstitutionName": "RUBIC",
  "InstitutionalDepartmentName": "Department",
  "MRAcquisitionType": "2D",
  "MagneticFieldStrength": 3,
  "Manufacturer": "Siemens",
  "ManufacturersModelName": "TrioTim",
  "Modality": "MR",
  "MultibandAccelerationFactor": 8,
  "PartialFourier": 0.875,
  "PatientPosition": "HFS",
  "PercentPhaseFOV": 100,
  "PercentSampling": 100,
  "PhaseEncodingDirection": "j-",
  "PhaseEncodingSteps": 91,
  "PhaseResolution": 1,
  "PixelBandwidth": 1923,
  "ProcedureStepDescription": "Cole^Michael",
  "ProtocolName": "cmrr_mbep2d_bold_2mm_MB8_Task_8x",
  "PulseSequenceDetails": "%CustomerSeq%\\cmrr_mbep2d_bold",
  "ReceiveCoilName": "32Ch_Head",
  "ReconMatrixPE": 104,
  "RepetitionTime": 0.785,
  "SAR": 0.127054,
  "ScanOptions": "PFP\\FS",
  "ScanningSequence": "EP",
  "SequenceName": "epfid2d1_104",
  "SequenceVariant": "SK\\SS",
  "SeriesDescription": "cmrr_mbep2d_bold_2mm_MB8_Task_8x",
  "SeriesNumber": 27,
  "ShimSetting": [2104, -767, -7868, 150, 78, -729, -66, 91],
  "SliceThickness": 2,
  "SliceTiming": [0, 0.4375, 0.0875, 0.525, 0.175, 0.6125, 0.2625, 0.7, 0.35, 0, 0.4375, 0.0875, 0.525, 0.175, 0.6125, 0.2625, 0.7, 0.35, 0, 0.4375, 0.0875, 0.525, 0.175, 0.6125, 0.2625, 0.7, 0.35, 0, 0.4375, 0.0875, 0.525, 0.175, 0.6125, 0.2625, 0.7, 0.35, 0, 0.4375, 0.0875, 0.525, 0.175, 0.6125, 0.2625, 0.7, 0.35, 0, 0.4375, 0.0875, 0.525, 0.175, 0.6125, 0.2625, 0.7, 0.35, 0, 0.4375, 0.0875, 0.525, 0.175, 0.6125, 0.2625, 0.7, 0.35, 0, 0.4375, 0.0875, 0.525, 0.175, 0.6125, 0.2625, 0.7, 0.35],
  "SoftwareVersions": "syngo MR B19",
  "SpacingBetweenSlices": 2,
  "StationName": "MRC35450",
  "TaskName": "cpro",
  "TotalReadoutTime": 0.0710717,
  "TxRefAmp": 330.442,
  "dcmmeta_affine": [
    [-1.9998699426651, -8.801884376907765e-08, 0.022805076092481613, 106.56195831298828],
    [0.0026605206076055765, 1.9863420724868774, 0.23331955075263977, -84.34383392333984],
    [0.022649351507425308, -0.2333347201347351, 1.986212968826294, -72.2657699584961],
    [0.0, 0.0, 0.0, 1.0]
],
  "dcmmeta_reorient_transform": [
    [0.0, -1.0, 0.0, 103.0],
    [1.0, 0.0, 0.0, 0.0],
    [0.0, 0.0, 1.0, 0.0],
    [0.0, 0.0, 0.0, 1.0]
],
  "dcmmeta_shape": [104, 104, 72, 581],
  "dcmmeta_slice_dim": 2,
  "dcmmeta_version": 0.6,
  "global": {
    "const": {
      "AcquisitionMatrix": [104, 0, 0, 104],
      "AngioFlag": "N",
      "BitsAllocated": 16,
      "BitsStored": 12,
      "Columns": 936,
      "EchoNumbers": 1,
      "EchoTime": 34.8,
      "EchoTrainLength": 1,
      "FlipAngle": 55.0,
      "HighBit": 11,
      "ImageOrientationPatient": [0.99993498895057, -0.0013302602804, 0.01132467571341, -4.4009423e-08, 0.99317104642802, 0.11666735849012],
      "ImagePositionPatient": [-938.50782522936, -945.46093535263, -202.78861927085],
      "ImageType": [
        "ORIGINAL",
        "PRIMARY",
        "M",
        "MB",
        "ND",
        "MOSAIC"
],
      "ImagedNucleus": "1H",
      "ImagingFrequency": 123.23462,
      "InPlanePhaseEncodingDirection": "COL",
      "MRAcquisitionType": "2D",
      "MagneticFieldStrength": 3.0,
      "Manufacturer": "SIEMENS",
      "ManufacturerModelName": "TrioTim",
      "Modality": "MR",
      "NumberOfAverages": 1.0,
      "NumberOfPhaseEncodingSteps": 91,
      "PercentPhaseFieldOfView": 100.0,
      "PercentSampling": 100.0,
      "PerformedProcedureStepStartTime": "145037.515000",
      "PhotometricInterpretation": "MONOCHROME2",
      "PixelBandwidth": 1923.0,
      "PixelRepresentation": 0,
      "PixelSpacing": [2.0, 2.0],
      "ProtocolName": "cmrr_mbep2d_bold_2mm_MB8_Task_8x",
      "RepetitionTime": 785.0,
      "Rows": 936,
      "SAR": 0.1270536828108,
      "SamplesPerPixel": 1,
      "ScanOptions": [
        "PFP",
        "FS"
],
      "ScanningSequence": "EP",
      "SequenceName": "epfid2d1_104",
      "SequenceVariant": [
        "SK",
        "SS"
],
      "SeriesDescription": "cmrr_mbep2d_bold_2mm_MB8_Task_8x",
      "SeriesNumber": 27,
      "SeriesTime": "171810.578000",
      "SliceLocation": -80.392061250604,
      "SliceThickness": 2.0,
      "SmallestImagePixelValue": 0,
      "SoftwareVersions": "syngo MR B19",
      "SpacingBetweenSlices": 2.0000000256829,
      "SpecificCharacterSet": "ISO_IR 100",
      "StudyID": "1",
      "StudyTime": "145037.484000",
      "TransmitCoilName": "Body",
      "VariableFlipAngleFlag": "N",
      "WindowCenterWidthExplanation": "Algo1",
      "dBdt": 0.0},
    "slices": {}
  },
  "time": {
    "samples": {
      "AcquisitionNumber": [1, 2, 3, 4, 5, 6, 7, 8, 9, 10, 11, 12, 13, 14, 15, 16, 17, 18, 19, 20, 21, 22, 23, 24, 25, 26, 27, 28, 29, 30, 31, 32, 33, 34, 35, 36, 37, 38, 39, 40, 41, 42, 43, 44, 45, 46, 47, 48, 49, 50, 51, 52, 53, 54, 55, 56, 57, 58, 59, 60, 61, 62, 63, 64, 65, 66, 67, 68, 69, 70, 71, 72, 73, 74, 75, 76, 77, 78, 79, 80, 81, 82, 83, 84, 85, 86, 87, 88, 89, 90, 91, 92, 93, 94, 95, 96, 97, 98, 99, 100, 101, 102, 103, 104, 105, 106, 107, 108, 109, 110, 111, 112, 113, 114, 115, 116, 117, 118, 119, 120, 121, 122, 123, 124, 125, 126, 127, 128, 129, 130, 131, 132, 133, 134, 135, 136, 137, 138, 139, 140, 141, 142, 143, 144, 145, 146, 147, 148, 149, 150, 151, 152, 153, 154, 155, 156, 157, 158, 159, 160, 161, 162, 163, 164, 165, 166, 167, 168, 169, 170, 171, 172, 173, 174, 175, 176, 177, 178, 179, 180, 181, 182, 183, 184, 185, 186, 187, 188, 189, 190, 191, 192, 193, 194, 195, 196, 197, 198, 199, 200, 201, 202, 203, 204, 205, 206, 207, 208, 209, 210, 211, 212, 213, 214, 215, 216, 217, 218, 219, 220, 221, 222, 223, 224, 225, 226, 227, 228, 229, 230, 231, 232, 233, 234, 235, 236, 237, 238, 239, 240, 241, 242, 243, 244, 245, 246, 247, 248, 249, 250, 251, 252, 253, 254, 255, 256, 257, 258, 259, 260, 261, 262, 263, 264, 265, 266, 267, 268, 269, 270, 271, 272, 273, 274, 275, 276, 277, 278, 279, 280, 281, 282, 283, 284, 285, 286, 287, 288, 289, 290, 291, 292, 293, 294, 295, 296, 297, 298, 299, 300, 301, 302, 303, 304, 305, 306, 307, 308, 309, 310, 311, 312, 313, 314, 315, 316, 317, 318, 319, 320, 321, 322, 323, 324, 325, 326, 327, 328, 329, 330, 331, 332, 333, 334, 335, 336, 337, 338, 339, 340, 341, 342, 343, 344, 345, 346, 347, 348, 349, 350, 351, 352, 353, 354, 355, 356, 357, 358, 359, 360, 361, 362, 363, 364, 365, 366, 367, 368, 369, 370, 371, 372, 373, 374, 375, 376, 377, 378, 379, 380, 381, 382, 383, 384, 385, 386, 387, 388, 389, 390, 391, 392, 393, 394, 395, 396, 397, 398, 399, 400, 401, 402, 403, 404, 405, 406, 407, 408, 409, 410, 411, 412, 413, 414, 415, 416, 417, 418, 419, 420, 421, 422, 423, 424, 425, 426, 427, 428, 429, 430, 431, 432, 433, 434, 435, 436, 437, 438, 439, 440, 441, 442, 443, 444, 445, 446, 447, 448, 449, 450, 451, 452, 453, 454, 455, 456, 457, 458, 459, 460, 461, 462, 463, 464, 465, 466, 467, 468, 469, 470, 471, 472, 473, 474, 475, 476, 477, 478, 479, 480, 481, 482, 483, 484, 485, 486, 487, 488, 489, 490, 491, 492, 493, 494, 495, 496, 497, 498, 499, 500, 501, 502, 503, 504, 505, 506, 507, 508, 509, 510, 511, 512, 513, 514, 515, 516, 517, 518, 519, 520, 521, 522, 523, 524, 525, 526, 527, 528, 529, 530, 531, 532, 533, 534, 535, 536, 537, 538, 539, 540, 541, 542, 543, 544, 545, 546, 547, 548, 549, 550, 551, 552, 553, 554, 555, 556, 557, 558, 559, 560, 561, 562, 563, 564, 565, 566, 567, 568, 569, 570, 571, 572, 573, 574, 575, 576, 577, 578, 579, 580, 581],
      "AcquisitionTime": ["171737.710000", "171738.497500", "171739.287500", "171740.075000", "171740.862500", "171741.650000", "171742.440000", "171743.227500", "171744.015000", "171744.802500", "171745.592500", "171746.380000", "171747.167500", "171747.955000", "171748.745000", "171749.532500", "171750.320000", "171751.107500", "171751.897500", "171752.685000", "171753.472500", "171754.260000", "171755.050000", "171755.837500", "171756.625000", "171757.415000", "171758.202500", "171758.990000", "171759.777500", "171800.567500", "171801.355000", "171802.142500", "171802.930000", "171803.720000", "171804.507500", "171805.295000", "171806.082500", "171806.872500", "171807.660000", "171808.447500", "171809.235000", "171810.025000", "171810.812500", "171811.600000", "171812.387500", "171813.177500", "171813.965000", "171814.752500", "171815.542500", "171816.330000", "171817.117500", "171817.905000", "171818.695000", "171819.482500", "171820.270000", "171821.057500", "171821.847500", "171822.635000", "171823.422500", "171824.210000", "171825.000000", "171825.787500", "171826.575000", "171827.362500", "171828.152500", "171828.940000", "171829.727500", "171830.515000", "171831.305000", "171832.092500", "171832.880000", "171833.670000", "171834.457500", "171835.245000", "171836.032500", "171836.822500", "171837.610000", "171838.397500", "171839.185000", "171839.975000", "171840.762500", "171841.550000", "171842.337500", "171843.127500", "171843.915000", "171844.702500", "171845.490000", "171846.280000", "171847.067500", "171847.855000", "171848.642500", "171849.432500", "171850.220000", "171851.007500", "171851.797500", "171852.585000", "171853.372500", "171854.160000", "171854.950000", "171855.737500", "171856.525000", "171857.312500", "171858.102500", "171858.890000", "171859.677500", "171900.465000", "171901.255000", "171902.042500", "171902.830000", "171903.617500", "171904.407500", "171905.195000", "171905.982500", "171906.770000", "171907.560000", "171908.347500", "171909.135000", "171909.925000", "171910.712500", "171911.500000", "171912.287500", "171913.077500", "171913.865000", "171914.652500", "171915.440000", "171916.230000", "171917.017500", "171917.805000", "171918.592500", "171919.382500", "171920.170000", "171920.957500", "171921.745000", "171922.535000", "171923.322500", "171924.110000", "171924.897500", "171925.687500", "171926.475000", "171927.262500", "171928.052500", "171928.840000", "171929.627500", "171930.415000", "171931.205000", "171931.992500", "171932.780000", "171933.567500", "171934.357500", "171935.145000", "171935.932500", "171936.720000", "171937.510000", "171938.297500", "171939.085000", "171939.872500", "171940.662500", "171941.450000", "171942.237500", "171943.025000", "171943.815000", "171944.602500", "171945.390000", "171946.180000", "171946.967500", "171947.755000", "171948.542500", "171949.332500", "171950.120000", "171950.907500", "171951.695000", "171952.485000", "171953.272500", "171954.060000", "171954.847500", "171955.637500", "171956.425000", "171957.212500", "171958.000000", "171958.790000", "171959.577500", "172000.365000", "172001.155000", "172001.942500", "172002.730000", "172003.517500", "172004.307500", "172005.095000", "172005.882500", "172006.670000", "172007.460000", "172008.247500", "172009.035000", "172009.822500", "172010.612500", "172011.400000", "172012.187500", "172012.975000", "172013.765000", "172014.552500", "172015.340000", "172016.127500", "172016.917500", "172017.705000", "172018.492500", "172019.282500", "172020.070000", "172020.857500", "172021.645000", "172022.435000", "172023.222500", "172024.010000", "172024.797500", "172025.587500", "172026.375000", "172027.162500", "172027.950000", "172028.740000", "172029.527500", "172030.315000", "172031.102500", "172031.892500", "172032.680000", "172033.467500", "172034.255000", "172035.045000", "172035.832500", "172036.620000", "172037.410000", "172038.197500", "172038.985000", "172039.772500", "172040.562500", "172041.350000", "172042.137500", "172042.925000", "172043.715000", "172044.502500", "172045.290000", "172046.077500", "172046.867500", "172047.655000", "172048.442500", "172049.230000", "172050.020000", "172050.807500", "172051.595000", "172052.382500", "172053.172500", "172053.960000", "172054.747500", "172055.537500", "172056.325000", "172057.112500", "172057.900000", "172058.690000", "172059.477500", "172100.265000", "172101.052500", "172101.842500", "172102.630000", "172103.417500", "172104.205000", "172104.995000", "172105.782500", "172106.570000", "172107.357500", "172108.147500", "172108.935000", "172109.722500", "172110.510000", "172111.300000", "172112.087500", "172112.875000", "172113.665000", "172114.452500", "172115.240000", "172116.027500", "172116.817500", "172117.605000", "172118.392500", "172119.180000", "172119.970000", "172120.757500", "172121.545000", "172122.332500", "172123.122500", "172123.910000", "172124.697500", "172125.485000", "172126.275000", "172127.062500", "172127.850000", "172128.637500", "172129.427500", "172130.215000", "172131.002500", "172131.792500", "172132.580000", "172133.367500", "172134.155000", "172134.945000", "172135.732500", "172136.520000", "172137.307500", "172138.097500", "172138.885000", "172139.672500", "172140.460000", "172141.250000", "172142.037500", "172142.825000", "172143.612500", "172144.402500", "172145.190000", "172145.977500", "172146.765000", "172147.555000", "172148.342500", "172149.130000", "172149.920000", "172150.707500", "172151.495000", "172152.282500", "172153.072500", "172153.860000", "172154.647500", "172155.435000", "172156.225000", "172157.012500", "172157.800000", "172158.587500", "172159.377500", "172200.165000", "172200.952500", "172201.740000", "172202.530000", "172203.317500", "172204.105000", "172204.892500", "172205.682500", "172206.470000", "172207.257500", "172208.047500", "172208.835000", "172209.622500", "172210.410000", "172211.200000", "172211.987500", "172212.775000", "172213.562500", "172214.352500", "172215.140000", "172215.927500", "172216.715000", "172217.505000", "172218.292500", "172219.080000", "172219.867500", "172220.657500", "172221.445000", "172222.232500", "172223.020000", "172223.810000", "172224.597500", "172225.385000", "172226.175000", "172226.962500", "172227.750000", "172228.537500", "172229.327500", "172230.115000", "172230.902500", "172231.690000", "172232.480000", "172233.267500", "172234.055000", "172234.842500", "172235.632500", "172236.420000", "172237.207500", "172237.995000", "172238.785000", "172239.572500", "172240.360000", "172241.147500", "172241.937500", "172242.725000", "172243.512500", "172244.302500", "172245.090000", "172245.877500", "172246.665000", "172247.455000", "172248.242500", "172249.030000", "172249.817500", "172250.607500", "172251.395000", "172252.182500", "172252.970000", "172253.760000", "172254.547500", "172255.335000", "172256.122500", "172256.912500", "172257.700000", "172258.487500", "172259.275000", "172300.065000", "172300.852500", "172301.640000", "172302.430000", "172303.217500", "172304.005000", "172304.792500", "172305.582500", "172306.370000", "172307.157500", "172307.945000", "172308.735000", "172309.522500", "172310.310000", "172311.097500", "172311.887500", "172312.675000", "172313.462500", "172314.250000", "172315.040000", "172315.827500", "172316.615000", "172317.405000", "172318.192500", "172318.980000", "172319.767500", "172320.557500", "172321.345000", "172322.132500", "172322.920000", "172323.710000", "172324.497500", "172325.285000", "172326.072500", "172326.862500", "172327.650000", "172328.437500", "172329.225000", "172330.015000", "172330.802500", "172331.590000", "172332.377500", "172333.167500", "172333.955000", "172334.742500", "172335.532500", "172336.320000", "172337.107500", "172337.895000", "172338.685000", "172339.472500", "172340.260000", "172341.047500", "172341.837500", "172342.625000", "172343.412500", "172344.200000", "172344.990000", "172345.777500", "172346.565000", "172347.352500", "172348.142500", "172348.930000", "172349.717500", "172350.505000", "172351.295000", "172352.082500", "172352.870000", "172353.660000", "172354.447500", "172355.235000", "172356.022500", "172356.812500", "172357.600000", "172358.387500", "172359.175000", "172359.965000", "172400.752500", "172401.540000", "172402.327500", "172403.117500", "172403.905000", "172404.692500", "172405.480000", "172406.270000", "172407.057500", "172407.845000", "172408.632500", "172409.422500", "172410.210000", "172410.997500", "172411.787500", "172412.575000", "172413.362500", "172414.150000", "172414.940000", "172415.727500", "172416.515000", "172417.302500", "172418.092500", "172418.880000", "172419.667500", "172420.455000", "172421.245000", "172422.032500", "172422.820000", "172423.607500", "172424.397500", "172425.185000", "172425.972500", "172426.760000", "172427.550000", "172428.337500", "172429.125000", "172429.915000", "172430.702500", "172431.490000", "172432.277500", "172433.067500", "172433.855000", "172434.642500", "172435.430000", "172436.220000", "172437.007500", "172437.795000", "172438.582500", "172439.372500", "172440.160000", "172440.947500", "172441.735000", "172442.525000", "172443.312500", "172444.100000", "172444.887500", "172445.677500", "172446.465000", "172447.252500", "172448.042500", "172448.830000", "172449.617500", "172450.405000", "172451.195000", "172451.982500", "172452.770000", "172453.557500", "172454.347500", "172455.135000", "172455.922500", "172456.710000", "172457.500000", "172458.287500", "172459.075000", "172459.862500", "172500.652500", "172501.440000", "172502.227500", "172503.015000", "172503.805000", "172504.592500", "172505.380000", "172506.170000", "172506.957500", "172507.745000", "172508.532500", "172509.322500", "172510.110000", "172510.897500", "172511.685000", "172512.475000", "172513.262500", "172514.050000", "172514.837500"],
      "ContentTime": ["171810.578000", "171810.578000", "171810.578000", "171810.593000", "171810.593000", "171810.593000", "171810.593000", "171810.593000", "171810.593000", "171810.593000", "171810.609000", "171810.609000", "171810.609000", "171810.609000", "171810.609000", "171810.609000", "171810.609000", "171810.625000", "171810.625000", "171810.625000", "171810.625000", "171810.625000", "171810.625000", "171810.625000", "171810.640000", "171810.640000", "171810.640000", "171810.640000", "171810.656000", "171810.656000", "171810.656000", "171810.656000", "171810.656000", "171810.656000", "171810.671000", "171810.671000", "171810.671000", "171810.671000", "171830.562000", "171830.562000", "171830.562000", "171830.562000", "171830.562000", "171830.562000", "171830.578000", "171830.578000", "171830.578000", "171830.578000", "171830.578000", "171830.578000", "171830.578000", "171830.593000", "171830.593000", "171830.593000", "171830.593000", "171830.593000", "171830.593000", "171830.593000", "171830.609000", "171830.609000", "171830.609000", "171830.625000", "171830.625000", "171830.625000", "171850.562000", "171850.562000", "171850.562000", "171850.562000", "171850.562000", "171850.562000", "171850.578000", "171850.578000", "171850.578000", "171850.578000", "171850.578000", "171850.578000", "171850.578000", "171850.593000", "171850.593000", "171850.593000", "171850.593000", "171850.593000", "171850.609000", "171850.609000", "171850.609000", "171850.609000", "171850.609000", "171850.625000", "171850.625000", "171910.562000", "171910.562000", "171910.562000", "171910.562000", "171910.562000", "171910.562000", "171910.578000", "171910.578000", "171910.578000", "171910.578000", "171910.578000", "171910.578000", "171910.578000", "171910.593000", "171910.593000", "171910.593000", "171910.593000", "171910.593000", "171910.593000", "171910.593000", "171910.609000", "171910.609000", "171910.609000", "171910.609000", "171910.609000", "171910.609000", "171930.562000", "171930.562000", "171930.562000", "171930.562000", "171930.562000", "171930.562000", "171930.578000", "171930.578000", "171930.578000", "171930.578000", "171930.578000", "171930.593000", "171930.593000", "171930.593000", "171930.593000", "171930.593000", "171930.593000", "171930.593000", "171930.609000", "171930.609000", "171930.609000", "171930.609000", "171930.609000", "171930.609000", "171930.625000", "171950.562000", "171950.562000", "171950.562000", "171950.562000", "171950.562000", "171950.578000", "171950.578000", "171950.578000", "171950.578000", "171950.578000", "171950.578000", "171950.578000", "171950.593000", "171950.593000", "171950.593000", "171950.593000", "171950.593000", "171950.593000", "171950.593000", "171950.609000", "171950.609000", "171950.609000", "171950.609000", "171950.609000", "171950.609000", "171950.609000", "172010.562000", "172010.562000", "172010.562000", "172010.562000", "172010.562000", "172010.562000", "172010.578000", "172010.578000", "172010.578000", "172010.578000", "172010.578000", "172010.578000", "172010.578000", "172010.593000", "172010.593000", "172010.593000", "172010.593000", "172010.593000", "172010.593000", "172010.593000", "172010.609000", "172010.609000", "172010.609000", "172010.609000", "172010.609000", "172030.562000", "172030.562000", "172030.562000", "172030.562000", "172030.562000", "172030.562000", "172030.578000", "172030.578000", "172030.578000", "172030.578000", "172030.578000", "172030.578000", "172030.578000", "172030.593000", "172030.593000", "172030.593000", "172030.593000", "172030.593000", "172030.593000", "172030.593000", "172030.609000", "172030.609000", "172030.609000", "172030.609000", "172030.609000", "172030.609000", "172050.562000", "172050.562000", "172050.562000", "172050.562000", "172050.562000", "172050.562000", "172050.578000", "172050.578000", "172050.578000", "172050.578000", "172050.578000", "172050.578000", "172050.578000", "172050.593000", "172050.593000", "172050.593000", "172050.593000", "172050.593000", "172050.593000", "172050.593000", "172050.609000", "172050.609000", "172050.609000", "172050.609000", "172050.609000", "172110.562000", "172110.562000", "172110.562000", "172110.562000", "172110.562000", "172110.562000", "172110.578000", "172110.578000", "172110.578000", "172110.578000", "172110.578000", "172110.578000", "172110.578000", "172110.593000", "172110.593000", "172110.593000", "172110.593000", "172110.593000", "172110.593000", "172110.593000", "172110.609000", "172110.609000", "172110.609000", "172110.609000", "172110.609000", "172110.609000", "172130.562000", "172130.562000", "172130.562000", "172130.562000", "172130.562000", "172130.562000", "172130.578000", "172130.578000", "172130.578000", "172130.578000", "172130.578000", "172130.578000", "172130.578000", "172130.593000", "172130.593000", "172130.593000", "172130.593000", "172130.593000", "172130.593000", "172130.593000", "172130.609000", "172130.609000", "172130.609000", "172130.609000", "172130.609000", "172150.562000", "172150.562000", "172150.562000", "172150.562000", "172150.562000", "172150.562000", "172150.578000", "172150.578000", "172150.578000", "172150.578000", "172150.578000", "172150.578000", "172150.593000", "172150.593000", "172150.593000", "172150.593000", "172150.593000", "172150.609000", "172150.609000", "172150.609000", "172150.609000", "172150.609000", "172150.625000", "172150.625000", "172150.625000", "172150.625000", "172210.562000", "172210.562000", "172210.562000", "172210.562000", "172210.562000", "172210.562000", "172210.578000", "172210.578000", "172210.578000", "172210.578000", "172210.578000", "172210.578000", "172210.578000", "172210.593000", "172210.593000", "172210.593000", "172210.593000", "172210.593000", "172210.593000", "172210.593000", "172210.609000", "172210.609000", "172210.609000", "172210.609000", "172210.609000", "172230.562000", "172230.562000", "172230.562000", "172230.562000", "172230.562000", "172230.562000", "172230.578000", "172230.578000", "172230.578000", "172230.578000", "172230.578000", "172230.593000", "172230.593000", "172230.593000", "172230.593000", "172230.593000", "172230.593000", "172230.593000", "172230.609000", "172230.609000", "172230.609000", "172230.609000", "172230.609000", "172230.609000", "172230.609000", "172230.625000", "172250.562000", "172250.562000", "172250.562000", "172250.562000", "172250.562000", "172250.562000", "172250.578000", "172250.578000", "172250.578000", "172250.578000", "172250.578000", "172250.578000", "172250.578000", "172250.593000", "172250.593000", "172250.593000", "172250.593000", "172250.593000", "172250.593000", "172250.593000", "172250.609000", "172250.609000", "172250.609000", "172250.609000", "172250.609000", "172310.562000", "172310.562000", "172310.562000", "172310.562000", "172310.562000", "172310.562000", "172310.578000", "172310.578000", "172310.578000", "172310.578000", "172310.578000", "172310.578000", "172310.578000", "172310.593000", "172310.593000", "172310.593000", "172310.593000", "172310.593000", "172310.593000", "172310.593000", "172310.609000", "172310.609000", "172310.609000", "172310.609000", "172310.609000", "172310.609000", "172330.562000", "172330.562000", "172330.562000", "172330.562000", "172330.562000", "172330.562000", "172330.578000", "172330.578000", "172330.578000", "172330.578000", "172330.578000", "172330.578000", "172330.578000", "172330.593000", "172330.593000", "172330.593000", "172330.593000", "172330.593000", "172330.593000", "172330.593000", "172330.609000", "172330.609000", "172330.609000", "172330.609000", "172330.609000", "172350.562000", "172350.562000", "172350.562000", "172350.562000", "172350.562000", "172350.562000", "172350.578000", "172350.578000", "172350.578000", "172350.578000", "172350.578000", "172350.578000", "172350.578000", "172350.593000", "172350.593000", "172350.593000", "172350.593000", "172350.593000", "172350.593000", "172350.609000", "172350.609000", "172350.609000", "172350.609000", "172350.609000", "172350.609000", "172350.609000", "172410.562000", "172410.562000", "172410.562000", "172410.562000", "172410.562000", "172410.562000", "172410.578000", "172410.578000", "172410.578000", "172410.578000", "172410.578000", "172410.578000", "172410.578000", "172410.593000", "172410.593000", "172410.593000", "172410.593000", "172410.593000", "172410.593000", "172410.609000", "172410.609000", "172410.609000", "172410.609000", "172410.609000", "172410.609000", "172430.562000", "172430.562000", "172430.562000", "172430.562000", "172430.562000", "172430.562000", "172430.578000", "172430.578000", "172430.578000", "172430.578000", "172430.578000", "172430.593000", "172430.593000", "172430.593000", "172430.593000", "172430.593000", "172430.609000", "172430.609000", "172430.609000", "172430.609000", "172430.609000", "172430.609000", "172430.609000", "172430.625000", "172430.625000", "172430.625000", "172450.562000", "172450.562000", "172450.562000", "172450.562000", "172450.562000", "172450.562000", "172450.578000", "172450.578000", "172450.578000", "172450.578000", "172450.578000", "172450.578000", "172450.578000", "172450.593000", "172450.593000", "172450.593000", "172450.593000", "172450.593000", "172450.593000", "172450.593000", "172450.609000", "172450.609000", "172450.609000", "172450.609000", "172450.609000", "172510.562000", "172510.562000", "172510.562000", "172510.562000", "172510.562000", "172510.562000", "172510.578000", "172510.578000", "172510.578000", "172510.578000", "172510.578000", "172510.578000", "172510.578000", "172510.593000", "172510.593000", "172510.593000", "172510.593000", "172510.593000", "172510.593000", "172510.593000", "172510.609000", "172510.609000", "172510.609000", "172510.609000", "172510.609000", "172510.609000", "172516.062000", "172516.078000", "172516.078000", "172516.078000", "172516.078000", "172516.078000", "172516.093000"],
      "DataSetTrailingPadding": [
        "\u0000\u0000\u0000\u0000\u0000\u0000\u0000\u0000\u0000\u0000\u0000\u0000\u0000\u0000",
        "\u0000\u0000\u0000\u0000\u0000\u0000\u0000\u0000\u0000\u0000\u0000\u0000\u0000\u0000",
        "\u0000\u0000\u0000\u0000\u0000\u0000\u0000\u0000\u0000\u0000\u0000\u0000\u0000\u0000",
        "\u0000\u0000\u0000\u0000\u0000\u0000\u0000\u0000\u0000\u0000\u0000\u0000",
        "\u0000\u0000\u0000\u0000\u0000\u0000\u0000\u0000\u0000\u0000\u0000\u0000\u0000\u0000",
        "\u0000\u0000\u0000\u0000\u0000\u0000\u0000\u0000\u0000\u0000\u0000\u0000",
        "\u0000\u0000\u0000\u0000\u0000\u0000\u0000\u0000\u0000\u0000\u0000\u0000\u0000\u0000\u0000\u0000",
        "\u0000\u0000\u0000\u0000\u0000\u0000\u0000\u0000\u0000\u0000\u0000\u0000\u0000\u0000",
        "\u0000\u0000\u0000\u0000\u0000\u0000\u0000\u0000\u0000\u0000\u0000\u0000",
        "\u0000\u0000\u0000\u0000\u0000\u0000\u0000\u0000\u0000\u0000",
        "\u0000\u0000\u0000\u0000\u0000\u0000\u0000\u0000\u0000\u0000",
        "\u0000\u0000\u0000\u0000\u0000\u0000\u0000\u0000",
        "\u0000\u0000\u0000\u0000\u0000\u0000\u0000\u0000\u0000\u0000",
        "\u0000\u0000\u0000\u0000\u0000\u0000\u0000\u0000",
        "\u0000\u0000\u0000\u0000\u0000\u0000\u0000\u0000",
        "\u0000\u0000\u0000\u0000\u0000\u0000\u0000\u0000\u0000\u0000",
        "\u0000\u0000\u0000\u0000\u0000\u0000\u0000\u0000",
        "\u0000\u0000\u0000\u0000\u0000\u0000\u0000\u0000\u0000\u0000",
        "\u0000\u0000\u0000\u0000\u0000\u0000\u0000\u0000\u0000\u0000",
        "\u0000\u0000\u0000\u0000\u0000\u0000\u0000\u0000",
        "\u0000\u0000\u0000\u0000\u0000\u0000\u0000\u0000\u0000\u0000",
        "\u0000\u0000\u0000\u0000\u0000\u0000\u0000\u0000",
        "\u0000\u0000\u0000\u0000\u0000\u0000\u0000\u0000",
        "\u0000\u0000\u0000\u0000\u0000\u0000\u0000\u0000\u0000\u0000",
        "\u0000\u0000\u0000\u0000\u0000\u0000\u0000\u0000",
        "\u0000\u0000\u0000\u0000\u0000\u0000\u0000\u0000\u0000\u0000\u0000\u0000",
