{
  "AcquisitionMatrixPE": 104,
  "AcquisitionNumber": 1,
  "AcquisitionTime": "16:44:26.740000",
  "BandwidthPerPixelPhaseEncode": 13.935,
  "BaseResolution": 104,
  "CoilString": "C:HEA;HEP",
  "ConversionSoftware": "dcm2niix",
  "ConversionSoftwareVersion": "v1.0.20210317",
  "DerivedVendorReportedEchoSpacing": 0.000690017,
  "DeviceSerialNumber": "35450",
  "DwellTime": 2.5e-06,
  "EchoTime": 0.0348,
  "EffectiveEchoSpacing": 0.000690017,
  "FlipAngle": 55,
  "ImageComments": "Unaliased MB8/PE3 (remote)",
  "ImageOrientationPatientDICOM": [0.999935, -0.00133026, 0.0113247, -4.40094e-08, 0.993171, 0.116667],
  "ImageType": [
    "ORIGINAL",
    "PRIMARY",
    "M",
    "MB",
    "ND",
    "MOSAIC"
],
  "ImagingFrequency": 123.235,
  "InPlanePhaseEncodingDirectionDICOM": "COL",
  "InstitutionAddress": "Univeristy Ave. 197,Newark,North East,US,07102-1814",
  "InstitutionName": "RUBIC",
  "InstitutionalDepartmentName": "Department",
  "MRAcquisitionType": "2D",
  "MagneticFieldStrength": 3,
  "Manufacturer": "Siemens",
  "ManufacturersModelName": "TrioTim",
  "Modality": "MR",
  "MultibandAccelerationFactor": 8,
  "PartialFourier": 0.875,
  "PatientPosition": "HFS",
  "PercentPhaseFOV": 100,
  "PercentSampling": 100,
  "PhaseEncodingDirection": "j-",
  "PhaseEncodingSteps": 91,
  "PhaseResolution": 1,
  "PixelBandwidth": 1923,
  "ProcedureStepDescription": "Cole^Michael",
  "ProtocolName": "cmrr_mbep2d_bold_2mm_MB8_Task_8x",
  "PulseSequenceDetails": "%CustomerSeq%\\cmrr_mbep2d_bold",
  "ReceiveCoilName": "32Ch_Head",
  "ReconMatrixPE": 104,
  "RepetitionTime": 0.785,
  "SAR": 0.127054,
  "ScanOptions": "PFP\\FS",
  "ScanningSequence": "EP",
  "SequenceName": "epfid2d1_104",
  "SequenceVariant": "SK\\SS",
  "SeriesDescription": "cmrr_mbep2d_bold_2mm_MB8_Task_8x",
  "SeriesNumber": 19,
  "ShimSetting": [2104, -767, -7868, 150, 78, -729, -66, 91],
  "SliceThickness": 2,
  "SliceTiming": [0, 0.4375, 0.0875, 0.525, 0.175, 0.6125, 0.2625, 0.7, 0.35, 0, 0.4375, 0.0875, 0.525, 0.175, 0.6125, 0.2625, 0.7, 0.35, 0, 0.4375, 0.0875, 0.525, 0.175, 0.6125, 0.2625, 0.7, 0.35, 0, 0.4375, 0.0875, 0.525, 0.175, 0.6125, 0.2625, 0.7, 0.35, 0, 0.4375, 0.0875, 0.525, 0.175, 0.6125, 0.2625, 0.7, 0.35, 0, 0.4375, 0.0875, 0.525, 0.175, 0.6125, 0.2625, 0.7, 0.35, 0, 0.4375, 0.0875, 0.525, 0.175, 0.6125, 0.2625, 0.7, 0.35, 0, 0.4375, 0.0875, 0.525, 0.175, 0.6125, 0.2625, 0.7, 0.35],
  "SoftwareVersions": "syngo MR B19",
  "SpacingBetweenSlices": 2,
  "StationName": "MRC35450",
  "TaskName": "cpro",
  "TotalReadoutTime": 0.0710717,
  "TxRefAmp": 330.442,
  "dcmmeta_affine": [
    [-1.9998699426651, -8.801884376907765e-08, 0.022805076092481613, 106.56195831298828],
    [0.0026605206076055765, 1.9863420724868774, 0.23331955075263977, -84.34383392333984],
    [0.022649351507425308, -0.2333347201347351, 1.986212968826294, -72.2657699584961],
    [0.0, 0.0, 0.0, 1.0]
],
  "dcmmeta_reorient_transform": [
    [0.0, -1.0, 0.0, 103.0],
    [1.0, 0.0, 0.0, 0.0],
    [0.0, 0.0, 1.0, 0.0],
    [0.0, 0.0, 0.0, 1.0]
],
  "dcmmeta_shape": [104, 104, 72, 581],
  "dcmmeta_slice_dim": 2,
  "dcmmeta_version": 0.6,
  "global": {
    "const": {
      "AcquisitionMatrix": [104, 0, 0, 104],
      "AngioFlag": "N",
      "BitsAllocated": 16,
      "BitsStored": 12,
      "Columns": 936,
      "EchoNumbers": 1,
      "EchoTime": 34.8,
      "EchoTrainLength": 1,
      "FlipAngle": 55.0,
      "HighBit": 11,
      "ImageOrientationPatient": [0.99993498895057, -0.0013302602804, 0.01132467571341, -4.4009423e-08, 0.99317104642802, 0.11666735849012],
      "ImagePositionPatient": [-938.50782522936, -945.46093535263, -202.78861927085],
      "ImageType": [
        "ORIGINAL",
        "PRIMARY",
        "M",
        "MB",
        "ND",
        "MOSAIC"
],
      "ImagedNucleus": "1H",
      "ImagingFrequency": 123.23462,
      "InPlanePhaseEncodingDirection": "COL",
      "MRAcquisitionType": "2D",
      "MagneticFieldStrength": 3.0,
      "Manufacturer": "SIEMENS",
      "ManufacturerModelName": "TrioTim",
      "Modality": "MR",
      "NumberOfAverages": 1.0,
      "NumberOfPhaseEncodingSteps": 91,
      "PercentPhaseFieldOfView": 100.0,
      "PercentSampling": 100.0,
      "PerformedProcedureStepStartTime": "145037.515000",
      "PhotometricInterpretation": "MONOCHROME2",
      "PixelBandwidth": 1923.0,
      "PixelRepresentation": 0,
      "PixelSpacing": [2.0, 2.0],
      "ProtocolName": "cmrr_mbep2d_bold_2mm_MB8_Task_8x",
      "RepetitionTime": 785.0,
      "Rows": 936,
      "SAR": 0.1270536828108,
      "SamplesPerPixel": 1,
      "ScanOptions": [
        "PFP",
        "FS"
],
      "ScanningSequence": "EP",
      "SequenceName": "epfid2d1_104",
      "SequenceVariant": [
        "SK",
        "SS"
],
      "SeriesDescription": "cmrr_mbep2d_bold_2mm_MB8_Task_8x",
      "SeriesNumber": 19,
      "SeriesTime": "164448.171000",
      "SliceLocation": -80.392061250604,
      "SliceThickness": 2.0,
      "SmallestImagePixelValue": 0,
      "SoftwareVersions": "syngo MR B19",
      "SpacingBetweenSlices": 2.0000000256829,
      "SpecificCharacterSet": "ISO_IR 100",
      "StudyID": "1",
      "StudyTime": "145037.484000",
      "TransmitCoilName": "Body",
      "VariableFlipAngleFlag": "N",
      "WindowCenterWidthExplanation": "Algo1",
      "dBdt": 0.0},
    "slices": {}
  },
  "time": {
    "samples": {
      "AcquisitionNumber": [1, 2, 3, 4, 5, 6, 7, 8, 9, 10, 11, 12, 13, 14, 15, 16, 17, 18, 19, 20, 21, 22, 23, 24, 25, 26, 27, 28, 29, 30, 31, 32, 33, 34, 35, 36, 37, 38, 39, 40, 41, 42, 43, 44, 45, 46, 47, 48, 49, 50, 51, 52, 53, 54, 55, 56, 57, 58, 59, 60, 61, 62, 63, 64, 65, 66, 67, 68, 69, 70, 71, 72, 73, 74, 75, 76, 77, 78, 79, 80, 81, 82, 83, 84, 85, 86, 87, 88, 89, 90, 91, 92, 93, 94, 95, 96, 97, 98, 99, 100, 101, 102, 103, 104, 105, 106, 107, 108, 109, 110, 111, 112, 113, 114, 115, 116, 117, 118, 119, 120, 121, 122, 123, 124, 125, 126, 127, 128, 129, 130, 131, 132, 133, 134, 135, 136, 137, 138, 139, 140, 141, 142, 143, 144, 145, 146, 147, 148, 149, 150, 151, 152, 153, 154, 155, 156, 157, 158, 159, 160, 161, 162, 163, 164, 165, 166, 167, 168, 169, 170, 171, 172, 173, 174, 175, 176, 177, 178, 179, 180, 181, 182, 183, 184, 185, 186, 187, 188, 189, 190, 191, 192, 193, 194, 195, 196, 197, 198, 199, 200, 201, 202, 203, 204, 205, 206, 207, 208, 209, 210, 211, 212, 213, 214, 215, 216, 217, 218, 219, 220, 221, 222, 223, 224, 225, 226, 227, 228, 229, 230, 231, 232, 233, 234, 235, 236, 237, 238, 239, 240, 241, 242, 243, 244, 245, 246, 247, 248, 249, 250, 251, 252, 253, 254, 255, 256, 257, 258, 259, 260, 261, 262, 263, 264, 265, 266, 267, 268, 269, 270, 271, 272, 273, 274, 275, 276, 277, 278, 279, 280, 281, 282, 283, 284, 285, 286, 287, 288, 289, 290, 291, 292, 293, 294, 295, 296, 297, 298, 299, 300, 301, 302, 303, 304, 305, 306, 307, 308, 309, 310, 311, 312, 313, 314, 315, 316, 317, 318, 319, 320, 321, 322, 323, 324, 325, 326, 327, 328, 329, 330, 331, 332, 333, 334, 335, 336, 337, 338, 339, 340, 341, 342, 343, 344, 345, 346, 347, 348, 349, 350, 351, 352, 353, 354, 355, 356, 357, 358, 359, 360, 361, 362, 363, 364, 365, 366, 367, 368, 369, 370, 371, 372, 373, 374, 375, 376, 377, 378, 379, 380, 381, 382, 383, 384, 385, 386, 387, 388, 389, 390, 391, 392, 393, 394, 395, 396, 397, 398, 399, 400, 401, 402, 403, 404, 405, 406, 407, 408, 409, 410, 411, 412, 413, 414, 415, 416, 417, 418, 419, 420, 421, 422, 423, 424, 425, 426, 427, 428, 429, 430, 431, 432, 433, 434, 435, 436, 437, 438, 439, 440, 441, 442, 443, 444, 445, 446, 447, 448, 449, 450, 451, 452, 453, 454, 455, 456, 457, 458, 459, 460, 461, 462, 463, 464, 465, 466, 467, 468, 469, 470, 471, 472, 473, 474, 475, 476, 477, 478, 479, 480, 481, 482, 483, 484, 485, 486, 487, 488, 489, 490, 491, 492, 493, 494, 495, 496, 497, 498, 499, 500, 501, 502, 503, 504, 505, 506, 507, 508, 509, 510, 511, 512, 513, 514, 515, 516, 517, 518, 519, 520, 521, 522, 523, 524, 525, 526, 527, 528, 529, 530, 531, 532, 533, 534, 535, 536, 537, 538, 539, 540, 541, 542, 543, 544, 545, 546, 547, 548, 549, 550, 551, 552, 553, 554, 555, 556, 557, 558, 559, 560, 561, 562, 563, 564, 565, 566, 567, 568, 569, 570, 571, 572, 573, 574, 575, 576, 577, 578, 579, 580, 581],
      "AcquisitionTime": ["164426.740000", "164427.527500", "164428.315000", "164429.105000", "164429.892500", "164430.680000", "164431.470000", "164432.257500", "164433.045000", "164433.832500", "164434.622500", "164435.410000", "164436.197500", "164436.985000", "164437.775000", "164438.562500", "164439.350000", "164440.137500", "164440.927500", "164441.715000", "164442.502500", "164443.290000", "164444.080000", "164444.867500", "164445.655000", "164446.442500", "164447.232500", "164448.020000", "164448.807500", "164449.597500", "164450.385000", "164451.172500", "164451.960000", "164452.750000", "164453.537500", "164454.325000", "164455.112500", "164455.902500", "164456.690000", "164457.477500", "164458.265000", "164459.055000", "164459.842500", "164500.630000", "164501.417500", "164502.207500", "164502.995000", "164503.782500", "164504.570000", "164505.360000", "164506.147500", "164506.935000", "164507.725000", "164508.512500", "164509.300000", "164510.087500", "164510.877500", "164511.665000", "164512.452500", "164513.240000", "164514.030000", "164514.817500", "164515.605000", "164516.392500", "164517.182500", "164517.970000", "164518.757500", "164519.545000", "164520.335000", "164521.122500", "164521.910000", "164522.697500", "164523.487500", "164524.275000", "164525.062500", "164525.852500", "164526.640000", "164527.427500", "164528.215000", "164529.005000", "164529.792500", "164530.580000", "164531.367500", "164532.157500", "164532.945000", "164533.732500", "164534.520000", "164535.310000", "164536.097500", "164536.885000", "164537.672500", "164538.462500", "164539.250000", "164540.037500", "164540.825000", "164541.615000", "164542.402500", "164543.190000", "164543.980000", "164544.767500", "164545.555000", "164546.342500", "164547.132500", "164547.920000", "164548.707500", "164549.495000", "164550.285000", "164551.072500", "164551.860000", "164552.647500", "164553.437500", "164554.225000", "164555.012500", "164555.800000", "164556.590000", "164557.377500", "164558.165000", "164558.952500", "164559.742500", "164600.530000", "164601.317500", "164602.107500", "164602.895000", "164603.682500", "164604.470000", "164605.260000", "164606.047500", "164606.835000", "164607.622500", "164608.412500", "164609.200000", "164609.987500", "164610.775000", "164611.565000", "164612.352500", "164613.140000", "164613.927500", "164614.717500", "164615.505000", "164616.292500", "164617.082500", "164617.870000", "164618.657500", "164619.445000", "164620.235000", "164621.022500", "164621.810000", "164622.597500", "164623.387500", "164624.175000", "164624.962500", "164625.750000", "164626.540000", "164627.327500", "164628.115000", "164628.902500", "164629.692500", "164630.480000", "164631.267500", "164632.055000", "164632.845000", "164633.632500", "164634.420000", "164635.210000", "164635.997500", "164636.785000", "164637.572500", "164638.362500", "164639.150000", "164639.937500", "164640.725000", "164641.515000", "164642.302500", "164643.090000", "164643.877500", "164644.667500", "164645.455000", "164646.242500", "164647.030000", "164647.820000", "164648.607500", "164649.395000", "164650.182500", "164650.972500", "164651.760000", "164652.547500", "164653.337500", "164654.125000", "164654.912500", "164655.700000", "164656.490000", "164657.277500", "164658.065000", "164658.852500", "164659.642500", "164700.430000", "164701.217500", "164702.005000", "164702.795000", "164703.582500", "164704.370000", "164705.157500", "164705.947500", "164706.735000", "164707.522500", "164708.310000", "164709.100000", "164709.887500", "164710.675000", "164711.465000", "164712.252500", "164713.040000", "164713.827500", "164714.617500", "164715.405000", "164716.192500", "164716.980000", "164717.770000", "164718.557500", "164719.345000", "164720.132500", "164720.922500", "164721.710000", "164722.497500", "164723.285000", "164724.075000", "164724.862500", "164725.650000", "164726.437500", "164727.227500", "164728.015000", "164728.802500", "164729.592500", "164730.380000", "164731.167500", "164731.955000", "164732.745000", "164733.532500", "164734.320000", "164735.107500", "164735.897500", "164736.685000", "164737.472500", "164738.260000", "164739.050000", "164739.837500", "164740.625000", "164741.412500", "164742.202500", "164742.990000", "164743.777500", "164744.565000", "164745.355000", "164746.142500", "164746.930000", "164747.720000", "164748.507500", "164749.295000", "164750.082500", "164750.872500", "164751.660000", "164752.447500", "164753.235000", "164754.025000", "164754.812500", "164755.600000", "164756.387500", "164757.177500", "164757.965000", "164758.752500", "164759.540000", "164800.330000", "164801.117500", "164801.905000", "164802.692500", "164803.482500", "164804.270000", "164805.057500", "164805.847500", "164806.635000", "164807.422500", "164808.210000", "164809.000000", "164809.787500", "164810.575000", "164811.362500", "164812.152500", "164812.940000", "164813.727500", "164814.515000", "164815.305000", "164816.092500", "164816.880000", "164817.667500", "164818.457500", "164819.245000", "164820.032500", "164820.820000", "164821.610000", "164822.397500", "164823.185000", "164823.975000", "164824.762500", "164825.550000", "164826.337500", "164827.127500", "164827.915000", "164828.702500", "164829.490000", "164830.280000", "164831.067500", "164831.855000", "164832.642500", "164833.432500", "164834.220000", "164835.007500", "164835.795000", "164836.585000", "164837.372500", "164838.160000", "164838.947500", "164839.737500", "164840.525000", "164841.312500", "164842.102500", "164842.890000", "164843.677500", "164844.465000", "164845.255000", "164846.042500", "164846.830000", "164847.617500", "164848.407500", "164849.195000", "164849.982500", "164850.770000", "164851.560000", "164852.347500", "164853.135000", "164853.922500", "164854.712500", "164855.500000", "164856.287500", "164857.075000", "164857.865000", "164858.652500", "164859.440000", "164900.230000", "164901.017500", "164901.805000", "164902.592500", "164903.382500", "164904.170000", "164904.957500", "164905.745000", "164906.535000", "164907.322500", "164908.110000", "164908.897500", "164909.687500", "164910.475000", "164911.262500", "164912.050000", "164912.840000", "164913.627500", "164914.415000", "164915.202500", "164915.992500", "164916.780000", "164917.567500", "164918.357500", "164919.145000", "164919.932500", "164920.720000", "164921.510000", "164922.297500", "164923.085000", "164923.872500", "164924.662500", "164925.450000", "164926.237500", "164927.025000", "164927.815000", "164928.602500", "164929.390000", "164930.177500", "164930.967500", "164931.755000", "164932.542500", "164933.332500", "164934.120000", "164934.907500", "164935.695000", "164936.485000", "164937.272500", "164938.060000", "164938.847500", "164939.637500", "164940.425000", "164941.212500", "164942.000000", "164942.790000", "164943.577500", "164944.365000", "164945.152500", "164945.942500", "164946.730000", "164947.517500", "164948.305000", "164949.095000", "164949.882500", "164950.670000", "164951.460000", "164952.247500", "164953.035000", "164953.822500", "164954.612500", "164955.400000", "164956.187500", "164956.975000", "164957.765000", "164958.552500", "164959.340000", "165000.127500", "165000.917500", "165001.705000", "165002.492500", "165003.280000", "165004.070000", "165004.857500", "165005.645000", "165006.432500", "165007.222500", "165008.010000", "165008.797500", "165009.587500", "165010.375000", "165011.162500", "165011.950000", "165012.740000", "165013.527500", "165014.315000", "165015.102500", "165015.892500", "165016.680000", "165017.467500", "165018.255000", "165019.045000", "165019.832500", "165020.620000", "165021.407500", "165022.197500", "165022.985000", "165023.772500", "165024.560000", "165025.350000", "165026.137500", "165026.925000", "165027.715000", "165028.502500", "165029.290000", "165030.077500", "165030.867500", "165031.655000", "165032.442500", "165033.230000", "165034.020000", "165034.807500", "165035.595000", "165036.382500", "165037.172500", "165037.960000", "165038.747500", "165039.535000", "165040.325000", "165041.112500", "165041.900000", "165042.687500", "165043.477500", "165044.265000", "165045.052500", "165045.842500", "165046.630000", "165047.417500", "165048.205000", "165048.995000", "165049.782500", "165050.570000", "165051.357500", "165052.147500", "165052.935000", "165053.722500", "165054.510000", "165055.300000", "165056.087500", "165056.875000", "165057.662500", "165058.452500", "165059.240000", "165100.027500", "165100.815000", "165101.605000", "165102.392500", "165103.180000", "165103.970000", "165104.757500", "165105.545000", "165106.332500", "165107.122500", "165107.910000", "165108.697500", "165109.485000", "165110.275000", "165111.062500", "165111.850000", "165112.637500", "165113.427500", "165114.215000", "165115.002500", "165115.790000", "165116.580000", "165117.367500", "165118.155000", "165118.942500", "165119.732500", "165120.520000", "165121.307500", "165122.097500", "165122.885000", "165123.672500", "165124.460000", "165125.250000", "165126.037500", "165126.825000", "165127.612500", "165128.402500", "165129.190000", "165129.977500", "165130.765000", "165131.555000", "165132.342500", "165133.130000", "165133.917500", "165134.707500", "165135.495000", "165136.282500", "165137.070000", "165137.860000", "165138.647500", "165139.435000", "165140.225000", "165141.012500", "165141.800000", "165142.587500", "165143.377500", "165144.165000", "165144.952500", "165145.740000", "165146.530000", "165147.317500", "165148.105000", "165148.892500", "165149.682500", "165150.470000", "165151.257500", "165152.045000", "165152.835000", "165153.622500", "165154.410000", "165155.197500", "165155.987500", "165156.775000", "165157.562500", "165158.352500", "165159.140000", "165159.927500", "165200.715000", "165201.505000", "165202.292500", "165203.080000", "165203.867500"],
      "ContentTime": ["164448.171000", "164448.171000", "164448.187000", "164448.187000", "164448.187000", "164448.187000", "164448.187000", "164448.187000", "164448.203000", "164448.203000", "164448.203000", "164448.203000", "164448.203000", "164448.218000", "164448.218000", "164448.218000", "164448.218000", "164448.218000", "164448.265000", "164448.265000", "164448.265000", "164448.265000", "164448.265000", "164508.156000", "164508.156000", "164508.156000", "164508.156000", "164508.156000", "164508.156000", "164508.171000", "164508.171000", "164508.171000", "164508.171000", "164508.171000", "164508.171000", "164508.171000", "164508.187000", "164508.187000", "164508.187000", "164508.187000", "164508.187000", "164508.187000", "164508.203000", "164508.203000", "164508.203000", "164508.203000", "164508.203000", "164508.203000", "164508.218000", "164528.156000", "164528.156000", "164528.156000", "164528.156000", "164528.156000", "164528.156000", "164528.171000", "164528.171000", "164528.171000", "164528.171000", "164528.171000", "164528.171000", "164528.171000", "164528.187000", "164528.187000", "164528.187000", "164528.187000", "164528.187000", "164528.203000", "164528.203000", "164528.203000", "164528.203000", "164528.203000", "164528.203000", "164528.203000", "164548.156000", "164548.156000", "164548.156000", "164548.156000", "164548.156000", "164548.156000", "164548.171000", "164548.171000", "164548.171000", "164548.171000", "164548.171000", "164548.171000", "164548.171000", "164548.187000", "164548.187000", "164548.187000", "164548.187000", "164548.187000", "164548.187000", "164548.187000", "164548.203000", "164548.203000", "164548.203000", "164548.203000", "164548.203000", "164548.203000", "164608.156000", "164608.156000", "164608.156000", "164608.156000", "164608.156000", "164608.156000", "164608.171000", "164608.171000", "164608.171000", "164608.171000", "164608.171000", "164608.171000", "164608.171000", "164608.187000", "164608.187000", "164608.187000", "164608.187000", "164608.187000", "164608.187000", "164608.187000", "164608.203000", "164608.203000", "164608.203000", "164608.203000", "164608.203000", "164628.156000", "164628.156000", "164628.156000", "164628.156000", "164628.156000", "164628.156000", "164628.171000", "164628.171000", "164628.171000", "164628.171000", "164628.171000", "164628.171000", "164628.171000", "164628.187000", "164628.187000", "164628.187000", "164628.187000", "164628.187000", "164628.187000", "164628.187000", "164628.203000", "164628.203000", "164628.203000", "164628.203000", "164628.203000", "164628.203000", "164648.156000", "164648.156000", "164648.156000", "164648.156000", "164648.156000", "164648.171000", "164648.171000", "164648.171000", "164648.171000", "164648.171000", "164648.171000", "164648.187000", "164648.187000", "164648.187000", "164648.187000", "164648.187000", "164648.203000", "164648.203000", "164648.203000", "164648.203000", "164648.203000", "164648.203000", "164648.203000", "164648.218000", "164648.218000", "164708.156000", "164708.156000", "164708.156000", "164708.156000", "164708.156000", "164708.156000", "164708.171000", "164708.171000", "164708.171000", "164708.171000", "164708.171000", "164708.171000", "164708.171000", "164708.187000", "164708.187000", "164708.187000", "164708.187000", "164708.187000", "164708.187000", "164708.187000", "164708.203000", "164708.203000", "164708.203000", "164708.203000", "164708.203000", "164708.203000", "164728.156000", "164728.156000", "164728.156000", "164728.156000", "164728.156000", "164728.156000", "164728.171000", "164728.171000", "164728.171000", "164728.171000", "164728.171000", "164728.171000", "164728.171000", "164728.187000", "164728.187000", "164728.187000", "164728.187000", "164728.187000", "164728.187000", "164728.187000", "164728.203000", "164728.203000", "164728.203000", "164728.203000", "164728.203000", "164748.156000", "164748.156000", "164748.156000", "164748.156000", "164748.156000", "164748.156000", "164748.171000", "164748.171000", "164748.171000", "164748.171000", "164748.171000", "164748.171000", "164748.171000", "164748.187000", "164748.187000", "164748.187000", "164748.187000", "164748.187000", "164748.187000", "164748.187000", "164748.203000", "164748.203000", "164748.203000", "164748.203000", "164748.203000", "164748.203000", "164808.156000", "164808.156000", "164808.156000", "164808.156000", "164808.156000", "164808.156000", "164808.171000", "164808.171000", "164808.171000", "164808.171000", "164808.171000", "164808.171000", "164808.171000", "164808.187000", "164808.187000", "164808.187000", "164808.187000", "164808.187000", "164808.187000", "164808.187000", "164808.203000", "164808.203000", "164808.203000", "164808.203000", "164808.203000", "164828.156000", "164828.156000", "164828.156000", "164828.156000", "164828.156000", "164828.156000", "164828.171000", "164828.171000", "164828.171000", "164828.171000", "164828.171000", "164828.171000", "164828.171000", "164828.187000", "164828.187000", "164828.187000", "164828.187000", "164828.187000", "164828.187000", "164828.187000", "164828.203000", "164828.203000", "164828.203000", "164828.203000", "164828.203000", "164828.203000", "164848.156000", "164848.156000", "164848.156000", "164848.156000", "164848.156000", "164848.156000", "164848.171000", "164848.171000", "164848.171000", "164848.171000", "164848.171000", "164848.171000", "164848.171000", "164848.187000", "164848.187000", "164848.187000", "164848.187000", "164848.187000", "164848.187000", "164848.187000", "164848.203000", "164848.203000", "164848.203000", "164848.203000", "164848.203000", "164908.156000", "164908.156000", "164908.156000", "164908.156000", "164908.156000", "164908.156000", "164908.171000", "164908.171000", "164908.171000", "164908.171000", "164908.171000", "164908.171000", "164908.171000", "164908.187000", "164908.187000", "164908.187000", "164908.187000", "164908.187000", "164908.187000", "164908.187000", "164908.203000", "164908.203000", "164908.203000", "164908.203000", "164908.203000", "164908.218000", "164928.156000", "164928.156000", "164928.156000", "164928.156000", "164928.156000", "164928.156000", "164928.171000", "164928.171000", "164928.171000", "164928.171000", "164928.171000", "164928.171000", "164928.171000", "164928.187000", "164928.187000", "164928.187000", "164928.187000", "164928.187000", "164928.187000", "164928.187000", "164928.203000", "164928.203000", "164928.203000", "164928.203000", "164928.203000", "164948.156000", "164948.156000", "164948.156000", "164948.156000", "164948.156000", "164948.156000", "164948.171000", "164948.171000", "164948.171000", "164948.171000", "164948.171000", "164948.171000", "164948.171000", "164948.187000", "164948.187000", "164948.187000", "164948.187000", "164948.187000", "164948.203000", "164948.203000", "164948.203000", "164948.203000", "164948.203000", "164948.203000", "164948.218000", "164948.218000", "165008.156000", "165008.156000", "165008.156000", "165008.156000", "165008.156000", "165008.156000", "165008.171000", "165008.171000", "165008.171000", "165008.171000", "165008.171000", "165008.171000", "165008.171000", "165008.187000", "165008.187000", "165008.187000", "165008.187000", "165008.187000", "165008.187000", "165008.187000", "165008.203000", "165008.203000", "165008.203000", "165008.203000", "165008.203000", "165028.156000", "165028.156000", "165028.156000", "165028.156000", "165028.156000", "165028.156000", "165028.171000", "165028.171000", "165028.171000", "165028.171000", "165028.171000", "165028.171000", "165028.171000", "165028.187000", "165028.187000", "165028.187000", "165028.187000", "165028.187000", "165028.187000", "165028.187000", "165028.203000", "165028.203000", "165028.203000", "165028.203000", "165028.203000", "165028.203000", "165048.156000", "165048.156000", "165048.156000", "165048.156000", "165048.156000", "165048.156000", "165048.171000", "165048.171000", "165048.171000", "165048.171000", "165048.171000", "165048.187000", "165048.187000", "165048.187000", "165048.187000", "165048.187000", "165048.187000", "165048.187000", "165048.203000", "165048.203000", "165048.203000", "165048.203000", "165048.203000", "165048.203000", "165048.203000", "165108.156000", "165108.156000", "165108.156000", "165108.156000", "165108.171000", "165108.171000", "165108.171000", "165108.171000", "165108.171000", "165108.187000", "165108.187000", "165108.187000", "165108.187000", "165108.203000", "165108.203000", "165108.203000", "165108.203000", "165108.203000", "165108.218000", "165108.218000", "165108.218000", "165108.218000", "165108.218000", "165108.218000", "165108.218000", "165128.156000", "165128.156000", "165128.156000", "165128.156000", "165128.156000", "165128.156000", "165128.171000", "165128.171000", "165128.171000", "165128.171000", "165128.171000", "165128.187000", "165128.187000", "165128.187000", "165128.187000", "165128.187000", "165128.187000", "165128.187000", "165128.203000", "165128.203000", "165128.203000", "165128.203000", "165128.203000", "165128.203000", "165128.203000", "165128.218000", "165148.156000", "165148.156000", "165148.156000", "165148.156000", "165148.156000", "165148.156000", "165148.171000", "165148.171000", "165148.171000", "165148.171000", "165148.171000", "165148.187000", "165148.187000", "165148.187000", "165148.187000", "165148.187000", "165148.187000", "165148.203000", "165148.203000", "165148.203000", "165148.203000", "165148.203000", "165148.218000", "165148.218000", "165148.218000", "165205.562000", "165205.578000", "165205.578000", "165205.578000", "165205.578000", "165205.609000", "165205.609000", "165205.609000", "165205.609000", "165205.609000", "165205.609000", "165205.625000", "165205.625000", "165205.625000", "165205.625000", "165205.625000", "165205.625000", "165205.625000", "165205.640000", "165205.640000", "165205.640000", "165205.640000", "165205.640000"],
      "DataSetTrailingPadding": [
        "\u0000\u0000\u0000\u0000\u0000\u0000\u0000\u0000\u0000\u0000\u0000\u0000\u0000\u0000",
        "\u0000\u0000\u0000\u0000\u0000\u0000\u0000\u0000\u0000\u0000\u0000\u0000\u0000\u0000",
        "\u0000\u0000\u0000\u0000\u0000\u0000\u0000\u0000\u0000\u0000\u0000\u0000",
        "\u0000\u0000\u0000\u0000\u0000\u0000\u0000\u0000\u0000\u0000\u0000\u0000",
        "\u0000\u0000\u0000\u0000\u0000\u0000\u0000\u0000\u0000\u0000\u0000\u0000\u0000\u0000",
        "\u0000\u0000\u0000\u0000\u0000\u0000\u0000\u0000\u0000\u0000\u0000\u0000",
        "\u0000\u0000\u0000\u0000\u0000\u0000\u0000\u0000\u0000\u0000\u0000\u0000\u0000\u0000\u0000\u0000",
        "\u0000\u0000\u0000\u0000\u0000\u0000\u0000\u0000\u0000\u0000\u0000\u0000\u0000\u0000",
        "\u0000\u0000\u0000\u0000\u0000\u0000\u0000\u0000\u0000\u0000\u0000\u0000",
        "\u0000\u0000\u0000\u0000\u0000\u0000\u0000\u0000\u0000\u0000",
        "\u0000\u0000\u0000\u0000\u0000\u0000\u0000\u0000",
        "\u0000\u0000\u0000\u0000\u0000\u0000\u0000\u0000",
        "\u0000\u0000\u0000\u0000\u0000\u0000\u0000\u0000\u0000\u0000",
        "\u0000\u0000\u0000\u0000\u0000\u0000\u0000\u0000",
        "\u0000\u0000\u0000\u0000\u0000\u0000\u0000\u0000",
        "\u0000\u0000\u0000\u0000\u0000\u0000\u0000\u0000\u0000\u0000",
        "\u0000\u0000\u0000\u0000\u0000\u0000\u0000\u0000",
        "\u0000\u0000\u0000\u0000\u0000\u0000\u0000\u0000\u0000\u0000",
        "\u0000\u0000\u0000\u0000\u0000\u0000\u0000\u0000\u0000\u0000",
        "\u0000\u0000\u0000\u0000\u0000\u0000\u0000\u0000",
        "\u0000\u0000\u0000\u0000\u0000\u0000\u0000\u0000\u0000\u0000",
        "\u0000\u0000\u0000\u0000\u0000\u0000\u0000\u0000",
        "\u0000\u0000\u0000\u0000\u0000\u0000\u0000\u0000",
        "\u0000\u0000\u0000\u0000\u0000\u0000\u0000\u0000\u0000\u0000",
        "\u0000\u0000\u0000\u0000\u0000\u0000\u0000\u0000",
        "\u0000\u0000\u0000\u0000\u0000\u0000\u0000\u0000\u0000\u0000",
