{
  "AcquisitionMatrixPE": 104,
  "AcquisitionNumber": 1,
  "AcquisitionTime": "16:27:20.707500",
  "BandwidthPerPixelPhaseEncode": 13.935,
  "BaseResolution": 104,
  "CoilString": "C:HEA;HEP",
  "ConversionSoftware": "dcm2niix",
  "ConversionSoftwareVersion": "v1.0.20210317",
  "DerivedVendorReportedEchoSpacing": 0.000690017,
  "DeviceSerialNumber": "35450",
  "DwellTime": 2.5e-06,
  "EchoTime": 0.0348,
  "EffectiveEchoSpacing": 0.000690017,
  "FlipAngle": 55,
  "ImageComments": "Unaliased MB8/PE3 (remote)",
  "ImageOrientationPatientDICOM": [0.999935, -0.00133026, 0.0113247, -4.40094e-08, 0.993171, 0.116667],
  "ImageType": [
    "ORIGINAL",
    "PRIMARY",
    "M",
    "MB",
    "ND",
    "MOSAIC"
],
  "ImagingFrequency": 123.235,
  "InPlanePhaseEncodingDirectionDICOM": "COL",
  "InstitutionAddress": "Univeristy Ave. 197,Newark,North East,US,07102-1814",
  "InstitutionName": "RUBIC",
  "InstitutionalDepartmentName": "Department",
  "MRAcquisitionType": "2D",
  "MagneticFieldStrength": 3,
  "Manufacturer": "Siemens",
  "ManufacturersModelName": "TrioTim",
  "Modality": "MR",
  "MultibandAccelerationFactor": 8,
  "PartialFourier": 0.875,
  "PatientPosition": "HFS",
  "PercentPhaseFOV": 100,
  "PercentSampling": 100,
  "PhaseEncodingDirection": "j-",
  "PhaseEncodingSteps": 91,
  "PhaseResolution": 1,
  "PixelBandwidth": 1923,
  "ProcedureStepDescription": "Cole^Michael",
  "ProtocolName": "cmrr_mbep2d_bold_2mm_MB8_Task_8x",
  "PulseSequenceDetails": "%CustomerSeq%\\cmrr_mbep2d_bold",
  "ReceiveCoilName": "32Ch_Head",
  "ReconMatrixPE": 104,
  "RepetitionTime": 0.785,
  "SAR": 0.127054,
  "ScanOptions": "PFP\\FS",
  "ScanningSequence": "EP",
  "SequenceName": "epfid2d1_104",
  "SequenceVariant": "SK\\SS",
  "SeriesDescription": "cmrr_mbep2d_bold_2mm_MB8_Task_8x",
  "SeriesNumber": 15,
  "ShimSetting": [2104, -767, -7868, 150, 78, -729, -66, 91],
  "SliceThickness": 2,
  "SliceTiming": [0, 0.4375, 0.0875, 0.525, 0.175, 0.6125, 0.2625, 0.7, 0.35, 0, 0.4375, 0.0875, 0.525, 0.175, 0.6125, 0.2625, 0.7, 0.35, 0, 0.4375, 0.0875, 0.525, 0.175, 0.6125, 0.2625, 0.7, 0.35, 0, 0.4375, 0.0875, 0.525, 0.175, 0.6125, 0.2625, 0.7, 0.35, 0, 0.4375, 0.0875, 0.525, 0.175, 0.6125, 0.2625, 0.7, 0.35, 0, 0.4375, 0.0875, 0.525, 0.175, 0.6125, 0.2625, 0.7, 0.35, 0, 0.4375, 0.0875, 0.525, 0.175, 0.6125, 0.2625, 0.7, 0.35, 0, 0.4375, 0.0875, 0.525, 0.175, 0.6125, 0.2625, 0.7, 0.35],
  "SoftwareVersions": "syngo MR B19",
  "SpacingBetweenSlices": 2,
  "StationName": "MRC35450",
  "TaskName": "cpro",
  "TotalReadoutTime": 0.0710717,
  "TxRefAmp": 330.442,
  "dcmmeta_affine": [
    [-1.9998699426651, -8.801884376907765e-08, 0.022805076092481613, 106.56195831298828],
    [0.0026605206076055765, 1.9863420724868774, 0.23331955075263977, -84.34383392333984],
    [0.022649351507425308, -0.2333347201347351, 1.986212968826294, -72.2657699584961],
    [0.0, 0.0, 0.0, 1.0]
],
  "dcmmeta_reorient_transform": [
    [0.0, -1.0, 0.0, 103.0],
    [1.0, 0.0, 0.0, 0.0],
    [0.0, 0.0, 1.0, 0.0],
    [0.0, 0.0, 0.0, 1.0]
],
  "dcmmeta_shape": [104, 104, 72, 581],
  "dcmmeta_slice_dim": 2,
  "dcmmeta_version": 0.6,
  "global": {
    "const": {
      "AcquisitionMatrix": [104, 0, 0, 104],
      "AngioFlag": "N",
      "BitsAllocated": 16,
      "BitsStored": 12,
      "Columns": 936,
      "EchoNumbers": 1,
      "EchoTime": 34.8,
      "EchoTrainLength": 1,
      "FlipAngle": 55.0,
      "HighBit": 11,
      "ImageOrientationPatient": [0.99993498895057, -0.0013302602804, 0.01132467571341, -4.4009423e-08, 0.99317104642802, 0.11666735849012],
      "ImagePositionPatient": [-938.50782522936, -945.46093535263, -202.78861927085],
      "ImageType": [
        "ORIGINAL",
        "PRIMARY",
        "M",
        "MB",
        "ND",
        "MOSAIC"
],
      "ImagedNucleus": "1H",
      "ImagingFrequency": 123.23462,
      "InPlanePhaseEncodingDirection": "COL",
      "MRAcquisitionType": "2D",
      "MagneticFieldStrength": 3.0,
      "Manufacturer": "SIEMENS",
      "ManufacturerModelName": "TrioTim",
      "Modality": "MR",
      "NumberOfAverages": 1.0,
      "NumberOfPhaseEncodingSteps": 91,
      "PercentPhaseFieldOfView": 100.0,
      "PercentSampling": 100.0,
      "PerformedProcedureStepStartTime": "145037.515000",
      "PhotometricInterpretation": "MONOCHROME2",
      "PixelBandwidth": 1923.0,
      "PixelRepresentation": 0,
      "PixelSpacing": [2.0, 2.0],
      "ProtocolName": "cmrr_mbep2d_bold_2mm_MB8_Task_8x",
      "RepetitionTime": 785.0,
      "Rows": 936,
      "SAR": 0.1270536828108,
      "SamplesPerPixel": 1,
      "ScanOptions": [
        "PFP",
        "FS"
],
      "ScanningSequence": "EP",
      "SequenceName": "epfid2d1_104",
      "SequenceVariant": [
        "SK",
        "SS"
],
      "SeriesDescription": "cmrr_mbep2d_bold_2mm_MB8_Task_8x",
      "SeriesNumber": 15,
      "SeriesTime": "162750.593000",
      "SliceLocation": -80.392061250604,
      "SliceThickness": 2.0,
      "SmallestImagePixelValue": 0,
      "SoftwareVersions": "syngo MR B19",
      "SpacingBetweenSlices": 2.0000000256829,
      "SpecificCharacterSet": "ISO_IR 100",
      "StudyID": "1",
      "StudyTime": "145037.484000",
      "TransmitCoilName": "Body",
      "VariableFlipAngleFlag": "N",
      "WindowCenterWidthExplanation": "Algo1",
      "dBdt": 0.0},
    "slices": {}
  },
  "time": {
    "samples": {
      "AcquisitionNumber": [1, 2, 3, 4, 5, 6, 7, 8, 9, 10, 11, 12, 13, 14, 15, 16, 17, 18, 19, 20, 21, 22, 23, 24, 25, 26, 27, 28, 29, 30, 31, 32, 33, 34, 35, 36, 37, 38, 39, 40, 41, 42, 43, 44, 45, 46, 47, 48, 49, 50, 51, 52, 53, 54, 55, 56, 57, 58, 59, 60, 61, 62, 63, 64, 65, 66, 67, 68, 69, 70, 71, 72, 73, 74, 75, 76, 77, 78, 79, 80, 81, 82, 83, 84, 85, 86, 87, 88, 89, 90, 91, 92, 93, 94, 95, 96, 97, 98, 99, 100, 101, 102, 103, 104, 105, 106, 107, 108, 109, 110, 111, 112, 113, 114, 115, 116, 117, 118, 119, 120, 121, 122, 123, 124, 125, 126, 127, 128, 129, 130, 131, 132, 133, 134, 135, 136, 137, 138, 139, 140, 141, 142, 143, 144, 145, 146, 147, 148, 149, 150, 151, 152, 153, 154, 155, 156, 157, 158, 159, 160, 161, 162, 163, 164, 165, 166, 167, 168, 169, 170, 171, 172, 173, 174, 175, 176, 177, 178, 179, 180, 181, 182, 183, 184, 185, 186, 187, 188, 189, 190, 191, 192, 193, 194, 195, 196, 197, 198, 199, 200, 201, 202, 203, 204, 205, 206, 207, 208, 209, 210, 211, 212, 213, 214, 215, 216, 217, 218, 219, 220, 221, 222, 223, 224, 225, 226, 227, 228, 229, 230, 231, 232, 233, 234, 235, 236, 237, 238, 239, 240, 241, 242, 243, 244, 245, 246, 247, 248, 249, 250, 251, 252, 253, 254, 255, 256, 257, 258, 259, 260, 261, 262, 263, 264, 265, 266, 267, 268, 269, 270, 271, 272, 273, 274, 275, 276, 277, 278, 279, 280, 281, 282, 283, 284, 285, 286, 287, 288, 289, 290, 291, 292, 293, 294, 295, 296, 297, 298, 299, 300, 301, 302, 303, 304, 305, 306, 307, 308, 309, 310, 311, 312, 313, 314, 315, 316, 317, 318, 319, 320, 321, 322, 323, 324, 325, 326, 327, 328, 329, 330, 331, 332, 333, 334, 335, 336, 337, 338, 339, 340, 341, 342, 343, 344, 345, 346, 347, 348, 349, 350, 351, 352, 353, 354, 355, 356, 357, 358, 359, 360, 361, 362, 363, 364, 365, 366, 367, 368, 369, 370, 371, 372, 373, 374, 375, 376, 377, 378, 379, 380, 381, 382, 383, 384, 385, 386, 387, 388, 389, 390, 391, 392, 393, 394, 395, 396, 397, 398, 399, 400, 401, 402, 403, 404, 405, 406, 407, 408, 409, 410, 411, 412, 413, 414, 415, 416, 417, 418, 419, 420, 421, 422, 423, 424, 425, 426, 427, 428, 429, 430, 431, 432, 433, 434, 435, 436, 437, 438, 439, 440, 441, 442, 443, 444, 445, 446, 447, 448, 449, 450, 451, 452, 453, 454, 455, 456, 457, 458, 459, 460, 461, 462, 463, 464, 465, 466, 467, 468, 469, 470, 471, 472, 473, 474, 475, 476, 477, 478, 479, 480, 481, 482, 483, 484, 485, 486, 487, 488, 489, 490, 491, 492, 493, 494, 495, 496, 497, 498, 499, 500, 501, 502, 503, 504, 505, 506, 507, 508, 509, 510, 511, 512, 513, 514, 515, 516, 517, 518, 519, 520, 521, 522, 523, 524, 525, 526, 527, 528, 529, 530, 531, 532, 533, 534, 535, 536, 537, 538, 539, 540, 541, 542, 543, 544, 545, 546, 547, 548, 549, 550, 551, 552, 553, 554, 555, 556, 557, 558, 559, 560, 561, 562, 563, 564, 565, 566, 567, 568, 569, 570, 571, 572, 573, 574, 575, 576, 577, 578, 579, 580, 581],
      "AcquisitionTime": ["162720.707500", "162721.497500", "162722.285000", "162723.072500", "162723.860000", "162724.650000", "162725.437500", "162726.225000", "162727.012500", "162727.802500", "162728.590000", "162729.377500", "162730.165000", "162730.955000", "162731.742500", "162732.530000", "162733.317500", "162734.107500", "162734.895000", "162735.682500", "162736.470000", "162737.260000", "162738.047500", "162738.835000", "162739.625000", "162740.412500", "162741.200000", "162741.987500", "162742.777500", "162743.565000", "162744.352500", "162745.140000", "162745.930000", "162746.717500", "162747.505000", "162748.292500", "162749.082500", "162749.870000", "162750.657500", "162751.445000", "162752.235000", "162753.022500", "162753.810000", "162754.597500", "162755.387500", "162756.175000", "162756.962500", "162757.752500", "162758.540000", "162759.327500", "162800.115000", "162800.905000", "162801.692500", "162802.480000", "162803.267500", "162804.057500", "162804.845000", "162805.632500", "162806.420000", "162807.210000", "162807.997500", "162808.785000", "162809.572500", "162810.362500", "162811.150000", "162811.937500", "162812.725000", "162813.515000", "162814.302500", "162815.090000", "162815.880000", "162816.667500", "162817.455000", "162818.242500", "162819.032500", "162819.820000", "162820.607500", "162821.395000", "162822.185000", "162822.972500", "162823.760000", "162824.547500", "162825.337500", "162826.125000", "162826.912500", "162827.700000", "162828.490000", "162829.277500", "162830.065000", "162830.852500", "162831.642500", "162832.430000", "162833.217500", "162834.007500", "162834.795000", "162835.582500", "162836.370000", "162837.160000", "162837.947500", "162838.735000", "162839.522500", "162840.312500", "162841.100000", "162841.887500", "162842.675000", "162843.465000", "162844.252500", "162845.040000", "162845.827500", "162846.617500", "162847.405000", "162848.192500", "162848.980000", "162849.770000", "162850.557500", "162851.345000", "162852.135000", "162852.922500", "162853.710000", "162854.497500", "162855.287500", "162856.075000", "162856.862500", "162857.650000", "162858.440000", "162859.227500", "162900.015000", "162900.802500", "162901.592500", "162902.380000", "162903.167500", "162903.955000", "162904.745000", "162905.532500", "162906.320000", "162907.107500", "162907.897500", "162908.685000", "162909.472500", "162910.262500", "162911.050000", "162911.837500", "162912.625000", "162913.415000", "162914.202500", "162914.990000", "162915.777500", "162916.567500", "162917.355000", "162918.142500", "162918.930000", "162919.720000", "162920.507500", "162921.295000", "162922.082500", "162922.872500", "162923.660000", "162924.447500", "162925.235000", "162926.025000", "162926.812500", "162927.600000", "162928.390000", "162929.177500", "162929.965000", "162930.752500", "162931.542500", "162932.330000", "162933.117500", "162933.905000", "162934.695000", "162935.482500", "162936.270000", "162937.057500", "162937.847500", "162938.635000", "162939.422500", "162940.210000", "162941.000000", "162941.787500", "162942.575000", "162943.362500", "162944.152500", "162944.940000", "162945.727500", "162946.517500", "162947.305000", "162948.092500", "162948.880000", "162949.670000", "162950.457500", "162951.245000", "162952.032500", "162952.822500", "162953.610000", "162954.397500", "162955.185000", "162955.975000", "162956.762500", "162957.550000", "162958.337500", "162959.127500", "162959.915000", "163000.702500", "163001.492500", "163002.280000", "163003.067500", "163003.855000", "163004.645000", "163005.432500", "163006.220000", "163007.007500", "163007.797500", "163008.585000", "163009.372500", "163010.160000", "163010.950000", "163011.737500", "163012.525000", "163013.312500", "163014.102500", "163014.890000", "163015.677500", "163016.465000", "163017.255000", "163018.042500", "163018.830000", "163019.620000", "163020.407500", "163021.195000", "163021.982500", "163022.772500", "163023.560000", "163024.347500", "163025.135000", "163025.925000", "163026.712500", "163027.500000", "163028.287500", "163029.077500", "163029.865000", "163030.652500", "163031.440000", "163032.230000", "163033.017500", "163033.805000", "163034.592500", "163035.382500", "163036.170000", "163036.957500", "163037.747500", "163038.535000", "163039.322500", "163040.110000", "163040.900000", "163041.687500", "163042.475000", "163043.262500", "163044.052500", "163044.840000", "163045.627500", "163046.415000", "163047.205000", "163047.992500", "163048.780000", "163049.567500", "163050.357500", "163051.145000", "163051.932500", "163052.720000", "163053.510000", "163054.297500", "163055.085000", "163055.875000", "163056.662500", "163057.450000", "163058.237500", "163059.027500", "163059.815000", "163100.602500", "163101.390000", "163102.180000", "163102.967500", "163103.755000", "163104.542500", "163105.332500", "163106.120000", "163106.907500", "163107.695000", "163108.485000", "163109.272500", "163110.060000", "163110.847500", "163111.637500", "163112.425000", "163113.212500", "163114.002500", "163114.790000", "163115.577500", "163116.365000", "163117.155000", "163117.942500", "163118.730000", "163119.517500", "163120.307500", "163121.095000", "163121.882500", "163122.670000", "163123.460000", "163124.247500", "163125.035000", "163125.822500", "163126.612500", "163127.400000", "163128.187500", "163128.975000", "163129.765000", "163130.552500", "163131.340000", "163132.130000", "163132.917500", "163133.705000", "163134.492500", "163135.282500", "163136.070000", "163136.857500", "163137.645000", "163138.435000", "163139.222500", "163140.010000", "163140.797500", "163141.587500", "163142.375000", "163143.162500", "163143.950000", "163144.740000", "163145.527500", "163146.315000", "163147.102500", "163147.892500", "163148.680000", "163149.467500", "163150.257500", "163151.045000", "163151.832500", "163152.620000", "163153.410000", "163154.197500", "163154.985000", "163155.772500", "163156.562500", "163157.350000", "163158.137500", "163158.925000", "163159.715000", "163200.502500", "163201.290000", "163202.077500", "163202.867500", "163203.655000", "163204.442500", "163205.230000", "163206.020000", "163206.807500", "163207.595000", "163208.385000", "163209.172500", "163209.960000", "163210.747500", "163211.537500", "163212.325000", "163213.112500", "163213.900000", "163214.690000", "163215.477500", "163216.265000", "163217.052500", "163217.842500", "163218.630000", "163219.417500", "163220.205000", "163220.995000", "163221.782500", "163222.570000", "163223.357500", "163224.147500", "163224.935000", "163225.722500", "163226.512500", "163227.300000", "163228.087500", "163228.875000", "163229.665000", "163230.452500", "163231.240000", "163232.027500", "163232.817500", "163233.605000", "163234.392500", "163235.180000", "163235.970000", "163236.757500", "163237.545000", "163238.332500", "163239.122500", "163239.910000", "163240.697500", "163241.485000", "163242.275000", "163243.062500", "163243.850000", "163244.640000", "163245.427500", "163246.215000", "163247.002500", "163247.792500", "163248.580000", "163249.367500", "163250.155000", "163250.945000", "163251.732500", "163252.520000", "163253.307500", "163254.097500", "163254.885000", "163255.672500", "163256.460000", "163257.250000", "163258.037500", "163258.825000", "163259.612500", "163300.402500", "163301.190000", "163301.977500", "163302.767500", "163303.555000", "163304.342500", "163305.130000", "163305.920000", "163306.707500", "163307.495000", "163308.282500", "163309.072500", "163309.860000", "163310.647500", "163311.435000", "163312.225000", "163313.012500", "163313.800000", "163314.587500", "163315.377500", "163316.165000", "163316.952500", "163317.742500", "163318.530000", "163319.317500", "163320.105000", "163320.895000", "163321.682500", "163322.470000", "163323.257500", "163324.047500", "163324.835000", "163325.622500", "163326.410000", "163327.200000", "163327.987500", "163328.775000", "163329.562500", "163330.352500", "163331.140000", "163331.927500", "163332.715000", "163333.505000", "163334.292500", "163335.080000", "163335.870000", "163336.657500", "163337.445000", "163338.232500", "163339.022500", "163339.810000", "163340.597500", "163341.385000", "163342.175000", "163342.962500", "163343.750000", "163344.537500", "163345.327500", "163346.115000", "163346.902500", "163347.690000", "163348.480000", "163349.267500", "163350.055000", "163350.842500", "163351.632500", "163352.420000", "163353.207500", "163353.997500", "163354.785000", "163355.572500", "163356.360000", "163357.150000", "163357.937500", "163358.725000", "163359.512500", "163400.302500", "163401.090000", "163401.877500", "163402.665000", "163403.455000", "163404.242500", "163405.030000", "163405.817500", "163406.607500", "163407.395000", "163408.182500", "163408.970000", "163409.760000", "163410.547500", "163411.335000", "163412.125000", "163412.912500", "163413.700000", "163414.487500", "163415.277500", "163416.065000", "163416.852500", "163417.640000", "163418.430000", "163419.217500", "163420.005000", "163420.792500", "163421.582500", "163422.370000", "163423.157500", "163423.945000", "163424.735000", "163425.522500", "163426.310000", "163427.097500", "163427.887500", "163428.675000", "163429.462500", "163430.252500", "163431.040000", "163431.827500", "163432.615000", "163433.405000", "163434.192500", "163434.980000", "163435.767500", "163436.557500", "163437.345000", "163438.132500", "163438.920000", "163439.710000", "163440.497500", "163441.285000", "163442.072500", "163442.862500", "163443.650000", "163444.437500", "163445.225000", "163446.015000", "163446.802500", "163447.590000", "163448.380000", "163449.167500", "163449.955000", "163450.742500", "163451.532500", "163452.320000", "163453.107500", "163453.895000", "163454.685000", "163455.472500", "163456.260000", "163457.047500", "163457.837500"],
      "ContentTime": ["162750.593000", "162750.593000", "162750.593000", "162750.593000", "162750.609000", "162750.609000", "162750.609000", "162750.609000", "162750.609000", "162750.609000", "162750.609000", "162750.625000", "162750.625000", "162750.625000", "162750.625000", "162750.625000", "162750.625000", "162750.625000", "162750.640000", "162750.640000", "162750.640000", "162750.640000", "162750.640000", "162750.640000", "162750.640000", "162750.656000", "162750.656000", "162750.656000", "162750.656000", "162750.656000", "162750.656000", "162750.656000", "162750.671000", "162750.671000", "162750.671000", "162810.562000", "162810.562000", "162810.562000", "162810.562000", "162810.562000", "162810.562000", "162810.578000", "162810.578000", "162810.578000", "162810.578000", "162810.578000", "162810.578000", "162810.578000", "162810.593000", "162810.593000", "162810.593000", "162810.593000", "162810.593000", "162810.593000", "162810.593000", "162810.609000", "162810.609000", "162810.609000", "162810.609000", "162810.609000", "162830.562000", "162830.562000", "162830.562000", "162830.562000", "162830.562000", "162830.562000", "162830.578000", "162830.578000", "162830.578000", "162830.578000", "162830.578000", "162830.578000", "162830.578000", "162830.593000", "162830.593000", "162830.593000", "162830.593000", "162830.593000", "162830.609000", "162830.609000", "162830.609000", "162830.609000", "162830.609000", "162830.609000", "162830.609000", "162830.625000", "162850.562000", "162850.562000", "162850.562000", "162850.562000", "162850.562000", "162850.562000", "162850.578000", "162850.578000", "162850.578000", "162850.578000", "162850.578000", "162850.578000", "162850.578000", "162850.593000", "162850.593000", "162850.593000", "162850.593000", "162850.593000", "162850.593000", "162850.593000", "162850.609000", "162850.609000", "162850.609000", "162850.609000", "162850.609000", "162910.562000", "162910.562000", "162910.562000", "162910.562000", "162910.562000", "162910.562000", "162910.578000", "162910.578000", "162910.578000", "162910.578000", "162910.578000", "162910.578000", "162910.578000", "162910.593000", "162910.593000", "162910.593000", "162910.593000", "162910.593000", "162910.593000", "162910.593000", "162910.609000", "162910.609000", "162910.609000", "162910.609000", "162910.609000", "162910.609000", "162930.562000", "162930.562000", "162930.562000", "162930.562000", "162930.562000", "162930.562000", "162930.578000", "162930.578000", "162930.578000", "162930.578000", "162930.578000", "162930.578000", "162930.578000", "162930.593000", "162930.593000", "162930.593000", "162930.593000", "162930.593000", "162930.593000", "162930.593000", "162930.609000", "162930.609000", "162930.609000", "162930.609000", "162930.609000", "162950.562000", "162950.562000", "162950.562000", "162950.562000", "162950.562000", "162950.562000", "162950.578000", "162950.578000", "162950.578000", "162950.578000", "162950.578000", "162950.578000", "162950.578000", "162950.593000", "162950.593000", "162950.593000", "162950.593000", "162950.593000", "162950.593000", "162950.593000", "162950.609000", "162950.609000", "162950.609000", "162950.609000", "162950.609000", "162950.609000", "163010.562000", "163010.562000", "163010.562000", "163010.562000", "163010.562000", "163010.562000", "163010.578000", "163010.578000", "163010.578000", "163010.578000", "163010.578000", "163010.593000", "163010.593000", "163010.593000", "163010.593000", "163010.593000", "163010.593000", "163010.593000", "163010.609000", "163010.609000", "163010.609000", "163010.609000", "163010.609000", "163010.609000", "163010.609000", "163030.562000", "163030.562000", "163030.562000", "163030.562000", "163030.562000", "163030.562000", "163030.578000", "163030.578000", "163030.578000", "163030.578000", "163030.578000", "163030.578000", "163030.578000", "163030.593000", "163030.593000", "163030.593000", "163030.593000", "163030.593000", "163030.593000", "163030.593000", "163030.609000", "163030.609000", "163030.609000", "163030.609000", "163030.609000", "163030.609000", "163050.562000", "163050.562000", "163050.562000", "163050.562000", "163050.562000", "163050.562000", "163050.578000", "163050.578000", "163050.578000", "163050.578000", "163050.578000", "163050.578000", "163050.578000", "163050.593000", "163050.593000", "163050.593000", "163050.593000", "163050.593000", "163050.593000", "163050.593000", "163050.609000", "163050.609000", "163050.609000", "163050.609000", "163050.609000", "163110.562000", "163110.562000", "163110.562000", "163110.562000", "163110.562000", "163110.562000", "163110.578000", "163110.578000", "163110.578000", "163110.578000", "163110.578000", "163110.578000", "163110.578000", "163110.593000", "163110.593000", "163110.593000", "163110.593000", "163110.593000", "163110.593000", "163110.593000", "163110.609000", "163110.609000", "163110.609000", "163110.609000", "163110.609000", "163110.609000", "163130.562000", "163130.562000", "163130.562000", "163130.562000", "163130.562000", "163130.562000", "163130.578000", "163130.578000", "163130.578000", "163130.578000", "163130.578000", "163130.578000", "163130.578000", "163130.593000", "163130.593000", "163130.593000", "163130.593000", "163130.593000", "163130.593000", "163130.593000", "163130.609000", "163130.609000", "163130.609000", "163130.609000", "163130.609000", "163150.562000", "163150.562000", "163150.562000", "163150.562000", "163150.562000", "163150.562000", "163150.578000", "163150.578000", "163150.578000", "163150.578000", "163150.578000", "163150.578000", "163150.578000", "163150.593000", "163150.593000", "163150.593000", "163150.593000", "163150.593000", "163150.593000", "163150.593000", "163150.609000", "163150.609000", "163150.609000", "163150.609000", "163150.609000", "163150.609000", "163210.562000", "163210.562000", "163210.562000", "163210.562000", "163210.562000", "163210.562000", "163210.578000", "163210.578000", "163210.578000", "163210.578000", "163210.578000", "163210.578000", "163210.578000", "163210.593000", "163210.593000", "163210.593000", "163210.593000", "163210.593000", "163210.593000", "163210.609000", "163210.609000", "163210.609000", "163210.609000", "163210.609000", "163210.609000", "163230.562000", "163230.562000", "163230.562000", "163230.562000", "163230.562000", "163230.562000", "163230.578000", "163230.578000", "163230.578000", "163230.578000", "163230.578000", "163230.578000", "163230.578000", "163230.593000", "163230.593000", "163230.593000", "163230.593000", "163230.593000", "163230.593000", "163230.593000", "163230.609000", "163230.609000", "163230.609000", "163230.609000", "163230.609000", "163230.609000", "163250.562000", "163250.562000", "163250.562000", "163250.562000", "163250.562000", "163250.562000", "163250.578000", "163250.578000", "163250.578000", "163250.578000", "163250.578000", "163250.578000", "163250.578000", "163250.593000", "163250.593000", "163250.593000", "163250.593000", "163250.593000", "163250.593000", "163250.609000", "163250.609000", "163250.609000", "163250.609000", "163250.609000", "163250.609000", "163310.562000", "163310.562000", "163310.562000", "163310.562000", "163310.562000", "163310.562000", "163310.578000", "163310.578000", "163310.578000", "163310.578000", "163310.578000", "163310.578000", "163310.578000", "163310.593000", "163310.593000", "163310.593000", "163310.593000", "163310.593000", "163310.593000", "163310.593000", "163310.609000", "163310.609000", "163310.609000", "163310.609000", "163310.609000", "163310.609000", "163330.562000", "163330.562000", "163330.562000", "163330.562000", "163330.562000", "163330.562000", "163330.578000", "163330.578000", "163330.578000", "163330.578000", "163330.578000", "163330.578000", "163330.578000", "163330.593000", "163330.593000", "163330.593000", "163330.593000", "163330.593000", "163330.593000", "163330.593000", "163330.609000", "163330.609000", "163330.609000", "163330.609000", "163330.609000", "163350.562000", "163350.562000", "163350.562000", "163350.562000", "163350.562000", "163350.578000", "163350.578000", "163350.578000", "163350.578000", "163350.578000", "163350.593000", "163350.593000", "163350.593000", "163350.593000", "163350.593000", "163350.593000", "163350.593000", "163350.609000", "163350.609000", "163350.609000", "163350.609000", "163350.609000", "163350.609000", "163350.609000", "163350.625000", "163410.562000", "163410.562000", "163410.562000", "163410.562000", "163410.562000", "163410.562000", "163410.578000", "163410.578000", "163410.578000", "163410.578000", "163410.578000", "163410.578000", "163410.578000", "163410.593000", "163410.593000", "163410.593000", "163410.593000", "163410.593000", "163410.609000", "163410.609000", "163410.609000", "163410.609000", "163410.609000", "163410.609000", "163410.625000", "163410.625000", "163430.562000", "163430.562000", "163430.562000", "163430.562000", "163430.562000", "163430.562000", "163430.578000", "163430.578000", "163430.578000", "163430.578000", "163430.578000", "163430.578000", "163430.593000", "163430.593000", "163430.593000", "163430.593000", "163430.593000", "163430.593000", "163430.593000", "163430.609000", "163430.609000", "163430.609000", "163430.609000", "163430.609000", "163430.625000", "163450.562000", "163450.562000", "163450.562000", "163450.562000", "163450.562000", "163450.578000", "163450.578000", "163450.578000", "163450.578000", "163450.578000", "163450.578000", "163450.593000", "163450.593000", "163450.593000", "163450.593000", "163450.593000", "163450.593000", "163450.593000", "163450.609000", "163450.609000", "163450.609000", "163450.609000", "163450.609000", "163450.609000", "163450.625000", "163450.625000", "163458.968000", "163458.968000", "163458.968000", "163458.968000", "163458.984000", "163458.984000", "163458.984000", "163458.984000", "163458.984000", "163458.984000", "163458.984000"],
      "DataSetTrailingPadding": [
        "\u0000\u0000\u0000\u0000\u0000\u0000\u0000\u0000\u0000\u0000\u0000\u0000\u0000\u0000",
        "\u0000\u0000\u0000\u0000\u0000\u0000\u0000\u0000\u0000\u0000\u0000\u0000\u0000\u0000\u0000\u0000",
        "\u0000\u0000\u0000\u0000\u0000\u0000\u0000\u0000\u0000\u0000\u0000\u0000\u0000\u0000",
        "\u0000\u0000\u0000\u0000\u0000\u0000\u0000\u0000\u0000\u0000\u0000\u0000",
        "\u0000\u0000\u0000\u0000\u0000\u0000\u0000\u0000\u0000\u0000\u0000\u0000\u0000\u0000",
        "\u0000\u0000\u0000\u0000\u0000\u0000\u0000\u0000\u0000\u0000\u0000\u0000\u0000\u0000",
        "\u0000\u0000\u0000\u0000\u0000\u0000\u0000\u0000\u0000\u0000\u0000\u0000",
        "\u0000\u0000\u0000\u0000\u0000\u0000\u0000\u0000\u0000\u0000\u0000\u0000\u0000\u0000",
        "\u0000\u0000\u0000\u0000\u0000\u0000\u0000\u0000\u0000\u0000\u0000\u0000",
        "\u0000\u0000\u0000\u0000\u0000\u0000\u0000\u0000",
        "\u0000\u0000\u0000\u0000\u0000\u0000\u0000\u0000\u0000\u0000",
        "\u0000\u0000\u0000\u0000\u0000\u0000\u0000\u0000",
        "\u0000\u0000\u0000\u0000\u0000\u0000\u0000\u0000\u0000\u0000",
        "\u0000\u0000\u0000\u0000\u0000\u0000\u0000\u0000\u0000\u0000",
        "\u0000\u0000\u0000\u0000\u0000\u0000\u0000\u0000",
        "\u0000\u0000\u0000\u0000\u0000\u0000\u0000\u0000\u0000\u0000",
        "\u0000\u0000\u0000\u0000\u0000\u0000\u0000\u0000",
        "\u0000\u0000\u0000\u0000\u0000\u0000\u0000\u0000",
        "\u0000\u0000\u0000\u0000\u0000\u0000\u0000\u0000\u0000\u0000",
        "\u0000\u0000\u0000\u0000\u0000\u0000\u0000\u0000",
        "\u0000\u0000\u0000\u0000\u0000\u0000\u0000\u0000\u0000\u0000",
        "\u0000\u0000\u0000\u0000\u0000\u0000\u0000\u0000\u0000\u0000",
        "\u0000\u0000\u0000\u0000\u0000\u0000\u0000\u0000",
        "\u0000\u0000\u0000\u0000\u0000\u0000\u0000\u0000\u0000\u0000",
        "\u0000\u0000\u0000\u0000\u0000\u0000\u0000\u0000\u0000\u0000",
        "\u0000\u0000\u0000\u0000\u0000\u0000\u0000\u0000",
