{
  "AcquisitionMatrixPE": 104,
  "AcquisitionNumber": 1,
  "AcquisitionTime": "11:29:58.702500",
  "BandwidthPerPixelPhaseEncode": 13.935,
  "BaseResolution": 104,
  "CoilString": "C:HEA;HEP",
  "ConversionSoftware": "dcm2niix",
  "ConversionSoftwareVersion": "v1.0.20210317",
  "DerivedVendorReportedEchoSpacing": 0.000690017,
  "DeviceSerialNumber": "35450",
  "DwellTime": 2.5e-06,
  "EchoTime": 0.0348,
  "EffectiveEchoSpacing": 0.000690017,
  "FlipAngle": 55,
  "ImageComments": "Unaliased MB8/PE3 (remote)",
  "ImageOrientationPatientDICOM": [0.999611, 0.00450508, 0.0275156, 5.548e-08, 0.98686, -0.161578],
  "ImageType": [
    "ORIGINAL",
    "PRIMARY",
    "M",
    "MB",
    "ND",
    "MOSAIC"
],
  "ImagingFrequency": 123.234,
  "InPlanePhaseEncodingDirectionDICOM": "COL",
  "InstitutionAddress": "Univeristy Ave. 197,Newark,North East,US,07102-1814",
  "InstitutionName": "RUBIC",
  "InstitutionalDepartmentName": "Department",
  "MRAcquisitionType": "2D",
  "MagneticFieldStrength": 3,
  "Manufacturer": "Siemens",
  "ManufacturersModelName": "TrioTim",
  "Modality": "MR",
  "MultibandAccelerationFactor": 8,
  "PartialFourier": 0.875,
  "PatientPosition": "HFS",
  "PercentPhaseFOV": 100,
  "PercentSampling": 100,
  "PhaseEncodingDirection": "j-",
  "PhaseEncodingSteps": 91,
  "PhaseResolution": 1,
  "PixelBandwidth": 1923,
  "ProcedureStepDescription": "Cole^Michael",
  "ProtocolName": "cmrr_mbep2d_bold_2mm_MB8_Task_8x",
  "PulseSequenceDetails": "%CustomerSeq%\\cmrr_mbep2d_bold",
  "ReceiveCoilName": "32Ch_Head",
  "ReconMatrixPE": 104,
  "RepetitionTime": 0.785,
  "SAR": 0.113675,
  "ScanOptions": "PFP\\FS",
  "ScanningSequence": "EP",
  "SequenceName": "epfid2d1_104",
  "SequenceVariant": "SK\\SS",
  "SeriesDescription": "cmrr_mbep2d_bold_2mm_MB8_Task_8x",
  "SeriesNumber": 15,
  "ShimSetting": [2133, -382, -7257, 249, -54, -117, 193, -64],
  "SliceThickness": 2,
  "SliceTiming": [0, 0.4375, 0.0875, 0.525, 0.175, 0.6125, 0.2625, 0.7, 0.35, 0, 0.4375, 0.0875, 0.525, 0.175, 0.6125, 0.2625, 0.7, 0.35, 0, 0.4375, 0.0875, 0.525, 0.175, 0.6125, 0.2625, 0.7, 0.35, 0, 0.4375, 0.0875, 0.525, 0.175, 0.6125, 0.2625, 0.7, 0.35, 0, 0.4375, 0.0875, 0.525, 0.175, 0.6125, 0.2625, 0.7, 0.35, 0, 0.4375, 0.0875, 0.525, 0.175, 0.6125, 0.2625, 0.7, 0.35, 0, 0.4375, 0.0875, 0.525, 0.175, 0.6125, 0.2625, 0.7, 0.35, 0, 0.4375, 0.0875, 0.525, 0.175, 0.6125, 0.2625, 0.7, 0.35],
  "SoftwareVersions": "syngo MR B19",
  "SpacingBetweenSlices": 2,
  "StationName": "MRC35450",
  "TaskName": "cpro",
  "TotalReadoutTime": 0.0710717,
  "TxRefAmp": 323.484,
  "dcmmeta_affine": [
    [-1.9992223978042603, 1.1095998075916214e-07, 0.055764004588127136, 103.5031967163086],
    [-0.009010154753923416, 1.9737197160720825, -0.32303136587142944, -78.4134750366211],
    [0.05503127723932266, 0.3231569826602936, 1.9729523658752441, -112.22648620605469],
    [0.0, 0.0, 0.0, 1.0]
],
  "dcmmeta_reorient_transform": [
    [0.0, -1.0, 0.0, 103.0],
    [1.0, 0.0, 0.0, 0.0],
    [0.0, 0.0, 1.0, 0.0],
    [0.0, 0.0, 0.0, 1.0]
],
  "dcmmeta_shape": [104, 104, 72, 581],
  "dcmmeta_slice_dim": 2,
  "dcmmeta_version": 0.6,
  "global": {
    "const": {
      "AcquisitionMatrix": [104, 0, 0, 104],
      "AngioFlag": "N",
      "BitsAllocated": 16,
      "BitsStored": 12,
      "Columns": 936,
      "EchoNumbers": 1,
      "EchoTime": 34.8,
      "EchoTrainLength": 1,
      "FlipAngle": 55.0,
      "HighBit": 11,
      "ImageOrientationPatient": [0.99961122138447, 0.00450507738034, 0.0275156384633, 5.5479991e-08, 0.98685986306492, -0.1615784969341],
      "ImagePositionPatient": [-935.17978958961, -949.69528468096, 32.598985431054],
      "ImageType": [
        "ORIGINAL",
        "PRIMARY",
        "M",
        "MB",
        "ND",
        "MOSAIC"
],
      "ImagedNucleus": "1H",
      "ImagingFrequency": 123.234455,
      "InPlanePhaseEncodingDirection": "COL",
      "MRAcquisitionType": "2D",
      "MagneticFieldStrength": 3.0,
      "Manufacturer": "SIEMENS",
      "ManufacturerModelName": "TrioTim",
      "Modality": "MR",
      "NumberOfAverages": 1.0,
      "NumberOfPhaseEncodingSteps": 91,
      "PercentPhaseFieldOfView": 100.0,
      "PercentSampling": 100.0,
      "PerformedProcedureStepStartTime": "101825.703000",
      "PhotometricInterpretation": "MONOCHROME2",
      "PixelBandwidth": 1923.0,
      "PixelRepresentation": 0,
      "PixelSpacing": [2.0, 2.0],
      "ProtocolName": "cmrr_mbep2d_bold_2mm_MB8_Task_8x",
      "RepetitionTime": 785.0,
      "Rows": 936,
      "SAR": 0.11367459511211,
      "SamplesPerPixel": 1,
      "ScanOptions": [
        "PFP",
        "FS"
],
      "ScanningSequence": "EP",
      "SequenceName": "epfid2d1_104",
      "SequenceVariant": [
        "SK",
        "SS"
],
      "SeriesDescription": "cmrr_mbep2d_bold_2mm_MB8_Task_8x",
      "SeriesNumber": 15,
      "SeriesTime": "113021.703000",
      "SliceLocation": -95.157871300125,
      "SliceThickness": 2.0,
      "SmallestImagePixelValue": 0,
      "SoftwareVersions": "syngo MR B19",
      "SpacingBetweenSlices": 1.9999999607303,
      "SpecificCharacterSet": "ISO_IR 100",
      "StudyID": "1",
      "StudyTime": "101825.578000",
      "TransmitCoilName": "Body",
      "VariableFlipAngleFlag": "N",
      "WindowCenterWidthExplanation": "Algo1",
      "dBdt": 0.0},
    "slices": {}
  },
  "time": {
    "samples": {
      "AcquisitionNumber": [1, 2, 3, 4, 5, 6, 7, 8, 9, 10, 11, 12, 13, 14, 15, 16, 17, 18, 19, 20, 21, 22, 23, 24, 25, 26, 27, 28, 29, 30, 31, 32, 33, 34, 35, 36, 37, 38, 39, 40, 41, 42, 43, 44, 45, 46, 47, 48, 49, 50, 51, 52, 53, 54, 55, 56, 57, 58, 59, 60, 61, 62, 63, 64, 65, 66, 67, 68, 69, 70, 71, 72, 73, 74, 75, 76, 77, 78, 79, 80, 81, 82, 83, 84, 85, 86, 87, 88, 89, 90, 91, 92, 93, 94, 95, 96, 97, 98, 99, 100, 101, 102, 103, 104, 105, 106, 107, 108, 109, 110, 111, 112, 113, 114, 115, 116, 117, 118, 119, 120, 121, 122, 123, 124, 125, 126, 127, 128, 129, 130, 131, 132, 133, 134, 135, 136, 137, 138, 139, 140, 141, 142, 143, 144, 145, 146, 147, 148, 149, 150, 151, 152, 153, 154, 155, 156, 157, 158, 159, 160, 161, 162, 163, 164, 165, 166, 167, 168, 169, 170, 171, 172, 173, 174, 175, 176, 177, 178, 179, 180, 181, 182, 183, 184, 185, 186, 187, 188, 189, 190, 191, 192, 193, 194, 195, 196, 197, 198, 199, 200, 201, 202, 203, 204, 205, 206, 207, 208, 209, 210, 211, 212, 213, 214, 215, 216, 217, 218, 219, 220, 221, 222, 223, 224, 225, 226, 227, 228, 229, 230, 231, 232, 233, 234, 235, 236, 237, 238, 239, 240, 241, 242, 243, 244, 245, 246, 247, 248, 249, 250, 251, 252, 253, 254, 255, 256, 257, 258, 259, 260, 261, 262, 263, 264, 265, 266, 267, 268, 269, 270, 271, 272, 273, 274, 275, 276, 277, 278, 279, 280, 281, 282, 283, 284, 285, 286, 287, 288, 289, 290, 291, 292, 293, 294, 295, 296, 297, 298, 299, 300, 301, 302, 303, 304, 305, 306, 307, 308, 309, 310, 311, 312, 313, 314, 315, 316, 317, 318, 319, 320, 321, 322, 323, 324, 325, 326, 327, 328, 329, 330, 331, 332, 333, 334, 335, 336, 337, 338, 339, 340, 341, 342, 343, 344, 345, 346, 347, 348, 349, 350, 351, 352, 353, 354, 355, 356, 357, 358, 359, 360, 361, 362, 363, 364, 365, 366, 367, 368, 369, 370, 371, 372, 373, 374, 375, 376, 377, 378, 379, 380, 381, 382, 383, 384, 385, 386, 387, 388, 389, 390, 391, 392, 393, 394, 395, 396, 397, 398, 399, 400, 401, 402, 403, 404, 405, 406, 407, 408, 409, 410, 411, 412, 413, 414, 415, 416, 417, 418, 419, 420, 421, 422, 423, 424, 425, 426, 427, 428, 429, 430, 431, 432, 433, 434, 435, 436, 437, 438, 439, 440, 441, 442, 443, 444, 445, 446, 447, 448, 449, 450, 451, 452, 453, 454, 455, 456, 457, 458, 459, 460, 461, 462, 463, 464, 465, 466, 467, 468, 469, 470, 471, 472, 473, 474, 475, 476, 477, 478, 479, 480, 481, 482, 483, 484, 485, 486, 487, 488, 489, 490, 491, 492, 493, 494, 495, 496, 497, 498, 499, 500, 501, 502, 503, 504, 505, 506, 507, 508, 509, 510, 511, 512, 513, 514, 515, 516, 517, 518, 519, 520, 521, 522, 523, 524, 525, 526, 527, 528, 529, 530, 531, 532, 533, 534, 535, 536, 537, 538, 539, 540, 541, 542, 543, 544, 545, 546, 547, 548, 549, 550, 551, 552, 553, 554, 555, 556, 557, 558, 559, 560, 561, 562, 563, 564, 565, 566, 567, 568, 569, 570, 571, 572, 573, 574, 575, 576, 577, 578, 579, 580, 581],
      "AcquisitionTime": ["112958.702500", "112959.490000", "113000.277500", "113001.065000", "113001.855000", "113002.642500", "113003.430000", "113004.217500", "113005.007500", "113005.795000", "113006.582500", "113007.370000", "113008.160000", "113008.947500", "113009.735000", "113010.522500", "113011.312500", "113012.100000", "113012.887500", "113013.675000", "113014.465000", "113015.252500", "113016.040000", "113016.830000", "113017.617500", "113018.405000", "113019.192500", "113019.982500", "113020.770000", "113021.557500", "113022.345000", "113023.135000", "113023.922500", "113024.710000", "113025.497500", "113026.287500", "113027.075000", "113027.862500", "113028.650000", "113029.440000", "113030.227500", "113031.015000", "113031.802500", "113032.592500", "113033.380000", "113034.167500", "113034.957500", "113035.745000", "113036.532500", "113037.320000", "113038.110000", "113038.897500", "113039.685000", "113040.472500", "113041.262500", "113042.050000", "113042.837500", "113043.625000", "113044.415000", "113045.202500", "113045.990000", "113046.777500", "113047.567500", "113048.355000", "113049.142500", "113049.932500", "113050.720000", "113051.507500", "113052.295000", "113053.085000", "113053.872500", "113054.660000", "113055.447500", "113056.237500", "113057.025000", "113057.812500", "113058.600000", "113059.390000", "113100.177500", "113100.965000", "113101.752500", "113102.542500", "113103.330000", "113104.117500", "113104.905000", "113105.695000", "113106.482500", "113107.270000", "113108.060000", "113108.847500", "113109.635000", "113110.422500", "113111.212500", "113112.000000", "113112.787500", "113113.575000", "113114.365000", "113115.152500", "113115.940000", "113116.727500", "113117.517500", "113118.305000", "113119.092500", "113119.880000", "113120.670000", "113121.457500", "113122.245000", "113123.032500", "113123.822500", "113124.610000", "113125.397500", "113126.187500", "113126.975000", "113127.762500", "113128.550000", "113129.340000", "113130.127500", "113130.915000", "113131.702500", "113132.492500", "113133.280000", "113134.067500", "113134.855000", "113135.645000", "113136.432500", "113137.220000", "113138.007500", "113138.797500", "113139.585000", "113140.372500", "113141.160000", "113141.950000", "113142.737500", "113143.525000", "113144.315000", "113145.102500", "113145.890000", "113146.677500", "113147.467500", "113148.255000", "113149.042500", "113149.830000", "113150.620000", "113151.407500", "113152.195000", "113152.982500", "113153.772500", "113154.560000", "113155.347500", "113156.135000", "113156.925000", "113157.712500", "113158.500000", "113159.287500", "113200.077500", "113200.865000", "113201.652500", "113202.442500", "113203.230000", "113204.017500", "113204.805000", "113205.595000", "113206.382500", "113207.170000", "113207.957500", "113208.747500", "113209.535000", "113210.322500", "113211.110000", "113211.900000", "113212.687500", "113213.475000", "113214.262500", "113215.052500", "113215.840000", "113216.627500", "113217.415000", "113218.205000", "113218.992500", "113219.780000", "113220.570000", "113221.357500", "113222.145000", "113222.932500", "113223.722500", "113224.510000", "113225.297500", "113226.085000", "113226.875000", "113227.662500", "113228.450000", "113229.237500", "113230.027500", "113230.815000", "113231.602500", "113232.390000", "113233.180000", "113233.967500", "113234.755000", "113235.542500", "113236.332500", "113237.120000", "113237.907500", "113238.697500", "113239.485000", "113240.272500", "113241.060000", "113241.850000", "113242.637500", "113243.425000", "113244.212500", "113245.002500", "113245.790000", "113246.577500", "113247.365000", "113248.155000", "113248.942500", "113249.730000", "113250.517500", "113251.307500", "113252.095000", "113252.882500", "113253.670000", "113254.460000", "113255.247500", "113256.035000", "113256.825000", "113257.612500", "113258.400000", "113259.187500", "113259.977500", "113300.765000", "113301.552500", "113302.340000", "113303.130000", "113303.917500", "113304.705000", "113305.492500", "113306.282500", "113307.070000", "113307.857500", "113308.645000", "113309.435000", "113310.222500", "113311.010000", "113311.797500", "113312.587500", "113313.375000", "113314.162500", "113314.952500", "113315.740000", "113316.527500", "113317.315000", "113318.105000", "113318.892500", "113319.680000", "113320.467500", "113321.257500", "113322.045000", "113322.832500", "113323.620000", "113324.410000", "113325.197500", "113325.985000", "113326.772500", "113327.562500", "113328.350000", "113329.137500", "113329.925000", "113330.715000", "113331.502500", "113332.290000", "113333.080000", "113333.867500", "113334.655000", "113335.442500", "113336.232500", "113337.020000", "113337.807500", "113338.595000", "113339.385000", "113340.172500", "113340.960000", "113341.747500", "113342.537500", "113343.325000", "113344.112500", "113344.900000", "113345.690000", "113346.477500", "113347.265000", "113348.052500", "113348.842500", "113349.630000", "113350.417500", "113351.207500", "113351.995000", "113352.782500", "113353.570000", "113354.360000", "113355.147500", "113355.935000", "113356.722500", "113357.512500", "113358.300000", "113359.087500", "113359.875000", "113400.665000", "113401.452500", "113402.240000", "113403.027500", "113403.817500", "113404.605000", "113405.392500", "113406.182500", "113406.970000", "113407.757500", "113408.545000", "113409.335000", "113410.122500", "113410.910000", "113411.697500", "113412.487500", "113413.275000", "113414.062500", "113414.850000", "113415.640000", "113416.427500", "113417.215000", "113418.002500", "113418.792500", "113419.580000", "113420.367500", "113421.155000", "113421.945000", "113422.732500", "113423.520000", "113424.310000", "113425.097500", "113425.885000", "113426.672500", "113427.462500", "113428.250000", "113429.037500", "113429.825000", "113430.615000", "113431.402500", "113432.190000", "113432.977500", "113433.767500", "113434.555000", "113435.342500", "113436.130000", "113436.920000", "113437.707500", "113438.495000", "113439.282500", "113440.072500", "113440.860000", "113441.647500", "113442.437500", "113443.225000", "113444.012500", "113444.800000", "113445.590000", "113446.377500", "113447.165000", "113447.952500", "113448.742500", "113449.530000", "113450.317500", "113451.105000", "113451.895000", "113452.682500", "113453.470000", "113454.257500", "113455.047500", "113455.835000", "113456.622500", "113457.410000", "113458.200000", "113458.987500", "113459.775000", "113500.565000", "113501.352500", "113502.140000", "113502.927500", "113503.717500", "113504.505000", "113505.292500", "113506.080000", "113506.870000", "113507.657500", "113508.445000", "113509.232500", "113510.022500", "113510.810000", "113511.597500", "113512.385000", "113513.175000", "113513.962500", "113514.750000", "113515.537500", "113516.327500", "113517.115000", "113517.902500", "113518.692500", "113519.480000", "113520.267500", "113521.055000", "113521.845000", "113522.632500", "113523.420000", "113524.207500", "113524.997500", "113525.785000", "113526.572500", "113527.360000", "113528.150000", "113528.937500", "113529.725000", "113530.512500", "113531.302500", "113532.090000", "113532.877500", "113533.665000", "113534.455000", "113535.242500", "113536.030000", "113536.820000", "113537.607500", "113538.395000", "113539.182500", "113539.972500", "113540.760000", "113541.547500", "113542.335000", "113543.125000", "113543.912500", "113544.700000", "113545.487500", "113546.277500", "113547.065000", "113547.852500", "113548.640000", "113549.430000", "113550.217500", "113551.005000", "113551.792500", "113552.582500", "113553.370000", "113554.157500", "113554.947500", "113555.735000", "113556.522500", "113557.310000", "113558.100000", "113558.887500", "113559.675000", "113600.462500", "113601.252500", "113602.040000", "113602.827500", "113603.615000", "113604.405000", "113605.192500", "113605.980000", "113606.767500", "113607.557500", "113608.345000", "113609.132500", "113609.920000", "113610.710000", "113611.497500", "113612.285000", "113613.075000", "113613.862500", "113614.650000", "113615.437500", "113616.227500", "113617.015000", "113617.802500", "113618.590000", "113619.380000", "113620.167500", "113620.955000", "113621.742500", "113622.532500", "113623.320000", "113624.107500", "113624.895000", "113625.685000", "113626.472500", "113627.260000", "113628.047500", "113628.837500", "113629.625000", "113630.412500", "113631.202500", "113631.990000", "113632.777500", "113633.565000", "113634.355000", "113635.142500", "113635.930000", "113636.717500", "113637.507500", "113638.295000", "113639.082500", "113639.870000", "113640.660000", "113641.447500", "113642.235000", "113643.022500", "113643.812500", "113644.600000", "113645.387500", "113646.175000", "113646.965000", "113647.752500", "113648.540000", "113649.330000", "113650.117500", "113650.905000", "113651.692500", "113652.482500", "113653.270000", "113654.057500", "113654.845000", "113655.635000", "113656.422500", "113657.210000", "113657.997500", "113658.787500", "113659.575000", "113700.362500", "113701.150000", "113701.940000", "113702.727500", "113703.515000", "113704.302500", "113705.092500", "113705.880000", "113706.667500", "113707.457500", "113708.245000", "113709.032500", "113709.820000", "113710.610000", "113711.397500", "113712.185000", "113712.972500", "113713.762500", "113714.550000", "113715.337500", "113716.125000", "113716.915000", "113717.702500", "113718.490000", "113719.277500", "113720.067500", "113720.855000", "113721.642500", "113722.432500", "113723.220000", "113724.007500", "113724.795000", "113725.585000", "113726.372500", "113727.160000", "113727.947500", "113728.737500", "113729.525000", "113730.312500", "113731.100000", "113731.890000", "113732.677500", "113733.465000", "113734.252500", "113735.042500", "113735.830000"],
      "ContentTime": ["113021.703000", "113021.718000", "113021.718000", "113021.718000", "113021.718000", "113021.718000", "113021.718000", "113021.718000", "113021.718000", "113021.734000", "113021.734000", "113021.734000", "113021.734000", "113021.734000", "113021.734000", "113021.734000", "113021.750000", "113021.750000", "113021.750000", "113021.750000", "113021.750000", "113021.750000", "113021.750000", "113021.750000", "113021.765000", "113021.765000", "113041.687000", "113041.687000", "113041.687000", "113041.687000", "113041.687000", "113041.703000", "113041.703000", "113041.703000", "113041.703000", "113041.703000", "113041.703000", "113041.703000", "113041.703000", "113041.718000", "113041.718000", "113041.718000", "113041.718000", "113041.718000", "113041.718000", "113041.718000", "113041.734000", "113041.734000", "113041.734000", "113041.734000", "113041.734000", "113041.734000", "113101.687000", "113101.687000", "113101.687000", "113101.687000", "113101.687000", "113101.703000", "113101.703000", "113101.703000", "113101.703000", "113101.703000", "113101.703000", "113101.703000", "113101.703000", "113101.718000", "113101.718000", "113101.718000", "113101.718000", "113101.718000", "113101.718000", "113101.718000", "113101.734000", "113101.734000", "113101.734000", "113101.734000", "113101.734000", "113121.687000", "113121.687000", "113121.687000", "113121.687000", "113121.687000", "113121.703000", "113121.703000", "113121.703000", "113121.703000", "113121.703000", "113121.703000", "113121.703000", "113121.703000", "113121.718000", "113121.718000", "113121.718000", "113121.718000", "113121.718000", "113121.718000", "113121.718000", "113121.734000", "113121.734000", "113121.734000", "113121.734000", "113121.734000", "113121.734000", "113141.687000", "113141.687000", "113141.687000", "113141.687000", "113141.687000", "113141.703000", "113141.703000", "113141.703000", "113141.703000", "113141.703000", "113141.703000", "113141.703000", "113141.718000", "113141.718000", "113141.718000", "113141.718000", "113141.718000", "113141.718000", "113141.718000", "113141.718000", "113141.734000", "113141.734000", "113141.734000", "113141.734000", "113141.734000", "113201.687000", "113201.687000", "113201.687000", "113201.687000", "113201.687000", "113201.703000", "113201.703000", "113201.703000", "113201.703000", "113201.703000", "113201.703000", "113201.703000", "113201.703000", "113201.718000", "113201.718000", "113201.718000", "113201.718000", "113201.718000", "113201.718000", "113201.718000", "113201.718000", "113201.734000", "113201.734000", "113201.734000", "113201.734000", "113201.734000", "113221.687000", "113221.687000", "113221.687000", "113221.687000", "113221.687000", "113221.703000", "113221.703000", "113221.703000", "113221.703000", "113221.703000", "113221.703000", "113221.703000", "113221.718000", "113221.718000", "113221.718000", "113221.718000", "113221.718000", "113221.718000", "113221.718000", "113221.718000", "113221.734000", "113221.734000", "113221.734000", "113221.734000", "113221.734000", "113241.687000", "113241.687000", "113241.687000", "113241.687000", "113241.687000", "113241.703000", "113241.703000", "113241.703000", "113241.703000", "113241.703000", "113241.703000", "113241.703000", "113241.703000", "113241.718000", "113241.718000", "113241.718000", "113241.718000", "113241.718000", "113241.718000", "113241.718000", "113241.734000", "113241.734000", "113241.734000", "113241.734000", "113241.734000", "113241.734000", "113301.687000", "113301.687000", "113301.687000", "113301.703000", "113301.703000", "113301.703000", "113301.703000", "113301.703000", "113301.703000", "113301.703000", "113301.718000", "113301.718000", "113301.718000", "113301.718000", "113301.718000", "113301.718000", "113301.718000", "113301.718000", "113301.734000", "113301.734000", "113301.734000", "113301.734000", "113301.734000", "113301.734000", "113301.734000", "113321.687000", "113321.687000", "113321.687000", "113321.687000", "113321.687000", "113321.703000", "113321.703000", "113321.703000", "113321.703000", "113321.703000", "113321.703000", "113321.703000", "113321.703000", "113321.718000", "113321.718000", "113321.718000", "113321.718000", "113321.718000", "113321.718000", "113321.718000", "113321.734000", "113321.734000", "113321.734000", "113321.734000", "113321.734000", "113321.734000", "113341.687000", "113341.687000", "113341.687000", "113341.687000", "113341.687000", "113341.703000", "113341.703000", "113341.703000", "113341.703000", "113341.703000", "113341.703000", "113341.703000", "113341.703000", "113341.718000", "113341.718000", "113341.718000", "113341.718000", "113341.718000", "113341.718000", "113341.718000", "113341.718000", "113341.734000", "113341.734000", "113341.734000", "113341.734000", "113401.687000", "113401.687000", "113401.687000", "113401.687000", "113401.687000", "113401.703000", "113401.703000", "113401.703000", "113401.703000", "113401.703000", "113401.703000", "113401.703000", "113401.703000", "113401.718000", "113401.718000", "113401.718000", "113401.718000", "113401.718000", "113401.718000", "113401.718000", "113401.734000", "113401.734000", "113401.734000", "113401.734000", "113401.734000", "113401.734000", "113421.687000", "113421.687000", "113421.687000", "113421.687000", "113421.687000", "113421.703000", "113421.703000", "113421.703000", "113421.703000", "113421.703000", "113421.703000", "113421.703000", "113421.718000", "113421.718000", "113421.718000", "113421.718000", "113421.718000", "113421.718000", "113421.718000", "113421.718000", "113421.734000", "113421.734000", "113421.734000", "113421.734000", "113421.734000", "113441.687000", "113441.687000", "113441.687000", "113441.687000", "113441.687000", "113441.703000", "113441.703000", "113441.703000", "113441.703000", "113441.703000", "113441.703000", "113441.703000", "113441.703000", "113441.718000", "113441.718000", "113441.718000", "113441.718000", "113441.718000", "113441.718000", "113441.718000", "113441.734000", "113441.734000", "113441.734000", "113441.734000", "113441.734000", "113441.734000", "113501.687000", "113501.687000", "113501.687000", "113501.687000", "113501.687000", "113501.703000", "113501.703000", "113501.703000", "113501.703000", "113501.703000", "113501.703000", "113501.703000", "113501.718000", "113501.718000", "113501.718000", "113501.718000", "113501.718000", "113501.718000", "113501.718000", "113501.718000", "113501.734000", "113501.734000", "113501.734000", "113501.734000", "113501.734000", "113521.687000", "113521.687000", "113521.687000", "113521.687000", "113521.687000", "113521.703000", "113521.703000", "113521.703000", "113521.703000", "113521.703000", "113521.703000", "113521.703000", "113521.703000", "113521.718000", "113521.718000", "113521.718000", "113521.718000", "113521.718000", "113521.718000", "113521.718000", "113521.718000", "113521.734000", "113521.734000", "113521.734000", "113521.734000", "113521.734000", "113541.687000", "113541.687000", "113541.687000", "113541.687000", "113541.687000", "113541.703000", "113541.703000", "113541.703000", "113541.703000", "113541.703000", "113541.703000", "113541.703000", "113541.703000", "113541.718000", "113541.718000", "113541.718000", "113541.718000", "113541.718000", "113541.718000", "113541.718000", "113541.734000", "113541.734000", "113541.734000", "113541.734000", "113541.734000", "113601.687000", "113601.687000", "113601.687000", "113601.687000", "113601.687000", "113601.703000", "113601.703000", "113601.703000", "113601.703000", "113601.703000", "113601.703000", "113601.703000", "113601.703000", "113601.718000", "113601.718000", "113601.718000", "113601.718000", "113601.718000", "113601.718000", "113601.718000", "113601.734000", "113601.734000", "113601.734000", "113601.734000", "113601.734000", "113601.734000", "113621.687000", "113621.687000", "113621.687000", "113621.687000", "113621.687000", "113621.703000", "113621.703000", "113621.703000", "113621.703000", "113621.703000", "113621.703000", "113621.703000", "113621.718000", "113621.718000", "113621.718000", "113621.718000", "113621.718000", "113621.718000", "113621.718000", "113621.718000", "113621.734000", "113621.734000", "113621.734000", "113621.734000", "113621.734000", "113641.687000", "113641.687000", "113641.687000", "113641.687000", "113641.687000", "113641.703000", "113641.703000", "113641.703000", "113641.703000", "113641.703000", "113641.703000", "113641.703000", "113641.703000", "113641.718000", "113641.718000", "113641.718000", "113641.718000", "113641.718000", "113641.718000", "113641.718000", "113641.734000", "113641.734000", "113641.734000", "113641.734000", "113641.734000", "113641.734000", "113701.687000", "113701.687000", "113701.687000", "113701.687000", "113701.687000", "113701.703000", "113701.703000", "113701.703000", "113701.703000", "113701.703000", "113701.703000", "113701.703000", "113701.703000", "113701.718000", "113701.718000", "113701.718000", "113701.718000", "113701.718000", "113701.718000", "113701.718000", "113701.718000", "113701.734000", "113701.734000", "113701.734000", "113701.734000", "113721.687000", "113721.687000", "113721.687000", "113721.687000", "113721.687000", "113721.703000", "113721.703000", "113721.703000", "113721.703000", "113721.703000", "113721.703000", "113721.703000", "113721.703000", "113721.718000", "113721.718000", "113721.718000", "113721.718000", "113721.718000", "113721.718000", "113721.718000", "113721.734000", "113721.734000", "113721.734000", "113721.734000", "113721.734000", "113736.703000", "113736.703000", "113736.703000", "113736.703000", "113736.703000", "113736.703000", "113736.703000", "113736.718000", "113736.718000", "113736.718000", "113736.718000", "113736.718000", "113736.718000", "113736.718000", "113736.734000", "113736.734000", "113736.734000", "113736.734000", "113736.734000", "113736.734000"],
