{
  "AcquisitionMatrixPE": 104,
  "AcquisitionNumber": 1,
  "AcquisitionTime": "12:02:28.727500",
  "BandwidthPerPixelPhaseEncode": 13.935,
  "BaseResolution": 104,
  "CoilString": "C:HEA;HEP",
  "ConversionSoftware": "dcm2niix",
  "ConversionSoftwareVersion": "v1.0.20210317",
  "DerivedVendorReportedEchoSpacing": 0.000690017,
  "DeviceSerialNumber": "35450",
  "DwellTime": 2.5e-06,
  "EchoTime": 0.0348,
  "EffectiveEchoSpacing": 0.000690017,
  "FlipAngle": 55,
  "ImageComments": "Unaliased MB8/PE3 (remote)",
  "ImageOrientationPatientDICOM": [0.999611, 0.00450508, 0.0275156, 5.548e-08, 0.98686, -0.161578],
  "ImageType": [
    "ORIGINAL",
    "PRIMARY",
    "M",
    "MB",
    "ND",
    "MOSAIC"
],
  "ImagingFrequency": 123.234,
  "InPlanePhaseEncodingDirectionDICOM": "COL",
  "InstitutionAddress": "Univeristy Ave. 197,Newark,North East,US,07102-1814",
  "InstitutionName": "RUBIC",
  "InstitutionalDepartmentName": "Department",
  "MRAcquisitionType": "2D",
  "MagneticFieldStrength": 3,
  "Manufacturer": "Siemens",
  "ManufacturersModelName": "TrioTim",
  "Modality": "MR",
  "MultibandAccelerationFactor": 8,
  "PartialFourier": 0.875,
  "PatientPosition": "HFS",
  "PercentPhaseFOV": 100,
  "PercentSampling": 100,
  "PhaseEncodingDirection": "j-",
  "PhaseEncodingSteps": 91,
  "PhaseResolution": 1,
  "PixelBandwidth": 1923,
  "ProcedureStepDescription": "Cole^Michael",
  "ProtocolName": "cmrr_mbep2d_bold_2mm_MB8_Task_8x",
  "PulseSequenceDetails": "%CustomerSeq%\\cmrr_mbep2d_bold",
  "ReceiveCoilName": "32Ch_Head",
  "ReconMatrixPE": 104,
  "RepetitionTime": 0.785,
  "SAR": 0.113675,
  "ScanOptions": "PFP\\FS",
  "ScanningSequence": "EP",
  "SequenceName": "epfid2d1_104",
  "SequenceVariant": "SK\\SS",
  "SeriesDescription": "cmrr_mbep2d_bold_2mm_MB8_Task_8x",
  "SeriesNumber": 23,
  "ShimSetting": [2133, -382, -7257, 249, -54, -117, 193, -64],
  "SliceThickness": 2,
  "SliceTiming": [0, 0.4375, 0.0875, 0.525, 0.175, 0.6125, 0.2625, 0.7, 0.35, 0, 0.4375, 0.0875, 0.525, 0.175, 0.6125, 0.2625, 0.7, 0.35, 0, 0.4375, 0.0875, 0.525, 0.175, 0.6125, 0.2625, 0.7, 0.35, 0, 0.4375, 0.0875, 0.525, 0.175, 0.6125, 0.2625, 0.7, 0.35, 0, 0.4375, 0.0875, 0.525, 0.175, 0.6125, 0.2625, 0.7, 0.35, 0, 0.4375, 0.0875, 0.525, 0.175, 0.6125, 0.2625, 0.7, 0.35, 0, 0.4375, 0.0875, 0.525, 0.175, 0.6125, 0.2625, 0.7, 0.35, 0, 0.4375, 0.0875, 0.525, 0.175, 0.6125, 0.2625, 0.7, 0.35],
  "SoftwareVersions": "syngo MR B19",
  "SpacingBetweenSlices": 2,
  "StationName": "MRC35450",
  "TaskName": "cpro",
  "TotalReadoutTime": 0.0710717,
  "TxRefAmp": 323.484,
  "dcmmeta_affine": [
    [-1.9992223978042603, 1.1095998075916214e-07, 0.055764004588127136, 103.5031967163086],
    [-0.009010154753923416, 1.9737197160720825, -0.32303136587142944, -78.4134750366211],
    [0.05503127723932266, 0.3231569826602936, 1.9729523658752441, -112.22648620605469],
    [0.0, 0.0, 0.0, 1.0]
],
  "dcmmeta_reorient_transform": [
    [0.0, -1.0, 0.0, 103.0],
    [1.0, 0.0, 0.0, 0.0],
    [0.0, 0.0, 1.0, 0.0],
    [0.0, 0.0, 0.0, 1.0]
],
  "dcmmeta_shape": [104, 104, 72, 581],
  "dcmmeta_slice_dim": 2,
  "dcmmeta_version": 0.6,
  "global": {
    "const": {
      "AcquisitionMatrix": [104, 0, 0, 104],
      "AngioFlag": "N",
      "BitsAllocated": 16,
      "BitsStored": 12,
      "Columns": 936,
      "EchoNumbers": 1,
      "EchoTime": 34.8,
      "EchoTrainLength": 1,
      "FlipAngle": 55.0,
      "HighBit": 11,
      "ImageOrientationPatient": [0.99961122138447, 0.00450507738034, 0.0275156384633, 5.5479991e-08, 0.98685986306492, -0.1615784969341],
      "ImagePositionPatient": [-935.17978958961, -949.69528468096, 32.598985431054],
      "ImageType": [
        "ORIGINAL",
        "PRIMARY",
        "M",
        "MB",
        "ND",
        "MOSAIC"
],
      "ImagedNucleus": "1H",
      "ImagingFrequency": 123.234455,
      "InPlanePhaseEncodingDirection": "COL",
      "MRAcquisitionType": "2D",
      "MagneticFieldStrength": 3.0,
      "Manufacturer": "SIEMENS",
      "ManufacturerModelName": "TrioTim",
      "Modality": "MR",
      "NumberOfAverages": 1.0,
      "NumberOfPhaseEncodingSteps": 91,
      "PercentPhaseFieldOfView": 100.0,
      "PercentSampling": 100.0,
      "PerformedProcedureStepStartTime": "101825.703000",
      "PhotometricInterpretation": "MONOCHROME2",
      "PixelBandwidth": 1923.0,
      "PixelRepresentation": 0,
      "PixelSpacing": [2.0, 2.0],
      "ProtocolName": "cmrr_mbep2d_bold_2mm_MB8_Task_8x",
      "RepetitionTime": 785.0,
      "Rows": 936,
      "SAR": 0.11367459511211,
      "SamplesPerPixel": 1,
      "ScanOptions": [
        "PFP",
        "FS"
],
      "ScanningSequence": "EP",
      "SequenceName": "epfid2d1_104",
      "SequenceVariant": [
        "SK",
        "SS"
],
      "SeriesDescription": "cmrr_mbep2d_bold_2mm_MB8_Task_8x",
      "SeriesNumber": 23,
      "SeriesTime": "120301.718000",
      "SliceLocation": -95.157871300125,
      "SliceThickness": 2.0,
      "SmallestImagePixelValue": 0,
      "SoftwareVersions": "syngo MR B19",
      "SpacingBetweenSlices": 1.9999999607303,
      "SpecificCharacterSet": "ISO_IR 100",
      "StudyID": "1",
      "StudyTime": "101825.578000",
      "TransmitCoilName": "Body",
      "VariableFlipAngleFlag": "N",
      "WindowCenterWidthExplanation": "Algo1",
      "dBdt": 0.0},
    "slices": {}
  },
  "time": {
    "samples": {
      "AcquisitionNumber": [1, 2, 3, 4, 5, 6, 7, 8, 9, 10, 11, 12, 13, 14, 15, 16, 17, 18, 19, 20, 21, 22, 23, 24, 25, 26, 27, 28, 29, 30, 31, 32, 33, 34, 35, 36, 37, 38, 39, 40, 41, 42, 43, 44, 45, 46, 47, 48, 49, 50, 51, 52, 53, 54, 55, 56, 57, 58, 59, 60, 61, 62, 63, 64, 65, 66, 67, 68, 69, 70, 71, 72, 73, 74, 75, 76, 77, 78, 79, 80, 81, 82, 83, 84, 85, 86, 87, 88, 89, 90, 91, 92, 93, 94, 95, 96, 97, 98, 99, 100, 101, 102, 103, 104, 105, 106, 107, 108, 109, 110, 111, 112, 113, 114, 115, 116, 117, 118, 119, 120, 121, 122, 123, 124, 125, 126, 127, 128, 129, 130, 131, 132, 133, 134, 135, 136, 137, 138, 139, 140, 141, 142, 143, 144, 145, 146, 147, 148, 149, 150, 151, 152, 153, 154, 155, 156, 157, 158, 159, 160, 161, 162, 163, 164, 165, 166, 167, 168, 169, 170, 171, 172, 173, 174, 175, 176, 177, 178, 179, 180, 181, 182, 183, 184, 185, 186, 187, 188, 189, 190, 191, 192, 193, 194, 195, 196, 197, 198, 199, 200, 201, 202, 203, 204, 205, 206, 207, 208, 209, 210, 211, 212, 213, 214, 215, 216, 217, 218, 219, 220, 221, 222, 223, 224, 225, 226, 227, 228, 229, 230, 231, 232, 233, 234, 235, 236, 237, 238, 239, 240, 241, 242, 243, 244, 245, 246, 247, 248, 249, 250, 251, 252, 253, 254, 255, 256, 257, 258, 259, 260, 261, 262, 263, 264, 265, 266, 267, 268, 269, 270, 271, 272, 273, 274, 275, 276, 277, 278, 279, 280, 281, 282, 283, 284, 285, 286, 287, 288, 289, 290, 291, 292, 293, 294, 295, 296, 297, 298, 299, 300, 301, 302, 303, 304, 305, 306, 307, 308, 309, 310, 311, 312, 313, 314, 315, 316, 317, 318, 319, 320, 321, 322, 323, 324, 325, 326, 327, 328, 329, 330, 331, 332, 333, 334, 335, 336, 337, 338, 339, 340, 341, 342, 343, 344, 345, 346, 347, 348, 349, 350, 351, 352, 353, 354, 355, 356, 357, 358, 359, 360, 361, 362, 363, 364, 365, 366, 367, 368, 369, 370, 371, 372, 373, 374, 375, 376, 377, 378, 379, 380, 381, 382, 383, 384, 385, 386, 387, 388, 389, 390, 391, 392, 393, 394, 395, 396, 397, 398, 399, 400, 401, 402, 403, 404, 405, 406, 407, 408, 409, 410, 411, 412, 413, 414, 415, 416, 417, 418, 419, 420, 421, 422, 423, 424, 425, 426, 427, 428, 429, 430, 431, 432, 433, 434, 435, 436, 437, 438, 439, 440, 441, 442, 443, 444, 445, 446, 447, 448, 449, 450, 451, 452, 453, 454, 455, 456, 457, 458, 459, 460, 461, 462, 463, 464, 465, 466, 467, 468, 469, 470, 471, 472, 473, 474, 475, 476, 477, 478, 479, 480, 481, 482, 483, 484, 485, 486, 487, 488, 489, 490, 491, 492, 493, 494, 495, 496, 497, 498, 499, 500, 501, 502, 503, 504, 505, 506, 507, 508, 509, 510, 511, 512, 513, 514, 515, 516, 517, 518, 519, 520, 521, 522, 523, 524, 525, 526, 527, 528, 529, 530, 531, 532, 533, 534, 535, 536, 537, 538, 539, 540, 541, 542, 543, 544, 545, 546, 547, 548, 549, 550, 551, 552, 553, 554, 555, 556, 557, 558, 559, 560, 561, 562, 563, 564, 565, 566, 567, 568, 569, 570, 571, 572, 573, 574, 575, 576, 577, 578, 579, 580, 581],
      "AcquisitionTime": ["120228.727500", "120229.515000", "120230.302500", "120231.090000", "120231.880000", "120232.667500", "120233.455000", "120234.242500", "120235.032500", "120235.820000", "120236.607500", "120237.395000", "120238.185000", "120238.972500", "120239.760000", "120240.547500", "120241.337500", "120242.125000", "120242.912500", "120243.702500", "120244.490000", "120245.277500", "120246.065000", "120246.855000", "120247.642500", "120248.430000", "120249.217500", "120250.007500", "120250.795000", "120251.582500", "120252.370000", "120253.160000", "120253.947500", "120254.735000", "120255.522500", "120256.312500", "120257.100000", "120257.887500", "120258.675000", "120259.465000", "120300.252500", "120301.040000", "120301.830000", "120302.617500", "120303.405000", "120304.192500", "120304.982500", "120305.770000", "120306.557500", "120307.345000", "120308.135000", "120308.922500", "120309.710000", "120310.497500", "120311.287500", "120312.075000", "120312.862500", "120313.650000", "120314.440000", "120315.227500", "120316.015000", "120316.802500", "120317.592500", "120318.380000", "120319.167500", "120319.957500", "120320.745000", "120321.532500", "120322.320000", "120323.110000", "120323.897500", "120324.685000", "120325.472500", "120326.262500", "120327.050000", "120327.837500", "120328.625000", "120329.415000", "120330.202500", "120330.990000", "120331.777500", "120332.567500", "120333.355000", "120334.142500", "120334.930000", "120335.720000", "120336.507500", "120337.295000", "120338.085000", "120338.872500", "120339.660000", "120340.447500", "120341.237500", "120342.025000", "120342.812500", "120343.600000", "120344.390000", "120345.177500", "120345.965000", "120346.752500", "120347.542500", "120348.330000", "120349.117500", "120349.905000", "120350.695000", "120351.482500", "120352.270000", "120353.060000", "120353.847500", "120354.635000", "120355.422500", "120356.212500", "120357.000000", "120357.787500", "120358.575000", "120359.365000", "120400.152500", "120400.940000", "120401.727500", "120402.517500", "120403.305000", "120404.092500", "120404.880000", "120405.670000", "120406.457500", "120407.245000", "120408.032500", "120408.822500", "120409.610000", "120410.397500", "120411.187500", "120411.975000", "120412.762500", "120413.550000", "120414.340000", "120415.127500", "120415.915000", "120416.702500", "120417.492500", "120418.280000", "120419.067500", "120419.855000", "120420.645000", "120421.432500", "120422.220000", "120423.007500", "120423.797500", "120424.585000", "120425.372500", "120426.160000", "120426.950000", "120427.737500", "120428.525000", "120429.315000", "120430.102500", "120430.890000", "120431.677500", "120432.467500", "120433.255000", "120434.042500", "120434.830000", "120435.620000", "120436.407500", "120437.195000", "120437.982500", "120438.772500", "120439.560000", "120440.347500", "120441.135000", "120441.925000", "120442.712500", "120443.500000", "120444.287500", "120445.077500", "120445.865000", "120446.652500", "120447.442500", "120448.230000", "120449.017500", "120449.805000", "120450.595000", "120451.382500", "120452.170000", "120452.957500", "120453.747500", "120454.535000", "120455.322500", "120456.110000", "120456.900000", "120457.687500", "120458.475000", "120459.262500", "120500.052500", "120500.840000", "120501.627500", "120502.415000", "120503.205000", "120503.992500", "120504.780000", "120505.570000", "120506.357500", "120507.145000", "120507.932500", "120508.722500", "120509.510000", "120510.297500", "120511.085000", "120511.875000", "120512.662500", "120513.450000", "120514.237500", "120515.027500", "120515.815000", "120516.602500", "120517.390000", "120518.180000", "120518.967500", "120519.755000", "120520.542500", "120521.332500", "120522.120000", "120522.907500", "120523.697500", "120524.485000", "120525.272500", "120526.060000", "120526.850000", "120527.637500", "120528.425000", "120529.212500", "120530.002500", "120530.790000", "120531.577500", "120532.365000", "120533.155000", "120533.942500", "120534.730000", "120535.517500", "120536.307500", "120537.095000", "120537.882500", "120538.670000", "120539.460000", "120540.247500", "120541.035000", "120541.825000", "120542.612500", "120543.400000", "120544.187500", "120544.977500", "120545.765000", "120546.552500", "120547.340000", "120548.130000", "120548.917500", "120549.705000", "120550.492500", "120551.282500", "120552.070000", "120552.857500", "120553.645000", "120554.435000", "120555.222500", "120556.010000", "120556.797500", "120557.587500", "120558.375000", "120559.162500", "120559.952500", "120600.740000", "120601.527500", "120602.315000", "120603.105000", "120603.892500", "120604.680000", "120605.467500", "120606.257500", "120607.045000", "120607.832500", "120608.620000", "120609.410000", "120610.197500", "120610.985000", "120611.772500", "120612.562500", "120613.350000", "120614.137500", "120614.925000", "120615.715000", "120616.502500", "120617.290000", "120618.080000", "120618.867500", "120619.655000", "120620.442500", "120621.232500", "120622.020000", "120622.807500", "120623.595000", "120624.385000", "120625.172500", "120625.960000", "120626.747500", "120627.537500", "120628.325000", "120629.112500", "120629.900000", "120630.690000", "120631.477500", "120632.265000", "120633.052500", "120633.842500", "120634.630000", "120635.417500", "120636.207500", "120636.995000", "120637.782500", "120638.570000", "120639.360000", "120640.147500", "120640.935000", "120641.722500", "120642.512500", "120643.300000", "120644.087500", "120644.875000", "120645.665000", "120646.452500", "120647.240000", "120648.027500", "120648.817500", "120649.605000", "120650.392500", "120651.180000", "120651.970000", "120652.757500", "120653.545000", "120654.335000", "120655.122500", "120655.910000", "120656.697500", "120657.487500", "120658.275000", "120659.062500", "120659.850000", "120700.640000", "120701.427500", "120702.215000", "120703.002500", "120703.792500", "120704.580000", "120705.367500", "120706.155000", "120706.945000", "120707.732500", "120708.520000", "120709.310000", "120710.097500", "120710.885000", "120711.672500", "120712.462500", "120713.250000", "120714.037500", "120714.825000", "120715.615000", "120716.402500", "120717.190000", "120717.977500", "120718.767500", "120719.555000", "120720.342500", "120721.130000", "120721.920000", "120722.707500", "120723.495000", "120724.282500", "120725.072500", "120725.860000", "120726.647500", "120727.437500", "120728.225000", "120729.012500", "120729.800000", "120730.590000", "120731.377500", "120732.165000", "120732.952500", "120733.742500", "120734.530000", "120735.317500", "120736.105000", "120736.895000", "120737.682500", "120738.470000", "120739.257500", "120740.047500", "120740.835000", "120741.622500", "120742.410000", "120743.200000", "120743.987500", "120744.775000", "120745.565000", "120746.352500", "120747.140000", "120747.927500", "120748.717500", "120749.505000", "120750.292500", "120751.080000", "120751.870000", "120752.657500", "120753.445000", "120754.232500", "120755.022500", "120755.810000", "120756.597500", "120757.385000", "120758.175000", "120758.962500", "120759.750000", "120800.537500", "120801.327500", "120802.115000", "120802.902500", "120803.692500", "120804.480000", "120805.267500", "120806.055000", "120806.845000", "120807.632500", "120808.420000", "120809.207500", "120809.997500", "120810.785000", "120811.572500", "120812.360000", "120813.150000", "120813.937500", "120814.725000", "120815.512500", "120816.302500", "120817.090000", "120817.877500", "120818.665000", "120819.455000", "120820.242500", "120821.030000", "120821.820000", "120822.607500", "120823.395000", "120824.182500", "120824.972500", "120825.760000", "120826.547500", "120827.335000", "120828.125000", "120828.912500", "120829.700000", "120830.487500", "120831.277500", "120832.065000", "120832.852500", "120833.640000", "120834.430000", "120835.217500", "120836.005000", "120836.792500", "120837.582500", "120838.370000", "120839.157500", "120839.947500", "120840.735000", "120841.522500", "120842.310000", "120843.100000", "120843.887500", "120844.675000", "120845.462500", "120846.252500", "120847.040000", "120847.827500", "120848.615000", "120849.405000", "120850.192500", "120850.980000", "120851.767500", "120852.557500", "120853.345000", "120854.132500", "120854.920000", "120855.710000", "120856.497500", "120857.285000", "120858.075000", "120858.862500", "120859.650000", "120900.437500", "120901.227500", "120902.015000", "120902.802500", "120903.590000", "120904.380000", "120905.167500", "120905.955000", "120906.742500", "120907.532500", "120908.320000", "120909.107500", "120909.895000", "120910.685000", "120911.472500", "120912.260000", "120913.047500", "120913.837500", "120914.625000", "120915.412500", "120916.202500", "120916.990000", "120917.777500", "120918.565000", "120919.355000", "120920.142500", "120920.930000", "120921.717500", "120922.507500", "120923.295000", "120924.082500", "120924.870000", "120925.660000", "120926.447500", "120927.235000", "120928.022500", "120928.812500", "120929.600000", "120930.387500", "120931.175000", "120931.965000", "120932.752500", "120933.540000", "120934.330000", "120935.117500", "120935.905000", "120936.692500", "120937.482500", "120938.270000", "120939.057500", "120939.845000", "120940.635000", "120941.422500", "120942.210000", "120942.997500", "120943.787500", "120944.575000", "120945.362500", "120946.150000", "120946.940000", "120947.727500", "120948.515000", "120949.302500", "120950.092500", "120950.880000", "120951.667500", "120952.457500", "120953.245000", "120954.032500", "120954.820000", "120955.610000", "120956.397500", "120957.185000", "120957.972500", "120958.762500", "120959.550000", "121000.337500", "121001.125000", "121001.915000", "121002.702500", "121003.490000", "121004.277500", "121005.067500", "121005.855000"],
      "ContentTime": ["120301.718000", "120301.718000", "120301.734000", "120301.734000", "120301.734000", "120301.734000", "120301.734000", "120301.734000", "120301.734000", "120301.750000", "120301.750000", "120301.750000", "120301.750000", "120301.750000", "120301.750000", "120301.750000", "120301.750000", "120301.765000", "120301.765000", "120301.765000", "120301.765000", "120301.765000", "120301.765000", "120301.765000", "120301.781000", "120301.781000", "120301.781000", "120301.781000", "120301.781000", "120301.781000", "120301.781000", "120301.781000", "120301.796000", "120301.796000", "120301.796000", "120301.796000", "120301.796000", "120301.796000", "120321.703000", "120321.703000", "120321.703000", "120321.703000", "120321.703000", "120321.718000", "120321.734000", "120321.734000", "120321.750000", "120321.750000", "120321.750000", "120321.750000", "120321.750000", "120321.750000", "120321.750000", "120321.750000", "120321.765000", "120321.765000", "120321.765000", "120321.765000", "120321.765000", "120321.765000", "120321.765000", "120321.781000", "120321.781000", "120341.703000", "120341.703000", "120341.703000", "120341.703000", "120341.703000", "120341.718000", "120341.718000", "120341.718000", "120341.718000", "120341.718000", "120341.718000", "120341.718000", "120341.734000", "120341.734000", "120341.734000", "120341.734000", "120341.734000", "120341.734000", "120341.734000", "120341.734000", "120341.750000", "120341.750000", "120341.750000", "120341.750000", "120341.750000", "120341.750000", "120401.703000", "120401.703000", "120401.703000", "120401.703000", "120401.703000", "120401.718000", "120401.718000", "120401.718000", "120401.718000", "120401.718000", "120401.718000", "120401.718000", "120401.718000", "120401.734000", "120401.734000", "120401.734000", "120401.734000", "120401.734000", "120401.734000", "120401.734000", "120401.750000", "120401.750000", "120401.750000", "120401.750000", "120401.750000", "120421.703000", "120421.703000", "120421.703000", "120421.703000", "120421.703000", "120421.718000", "120421.718000", "120421.718000", "120421.718000", "120421.718000", "120421.718000", "120421.718000", "120421.718000", "120421.734000", "120421.734000", "120421.734000", "120421.734000", "120421.734000", "120421.734000", "120421.734000", "120421.750000", "120421.750000", "120421.750000", "120421.750000", "120421.750000", "120421.750000", "120441.703000", "120441.703000", "120441.703000", "120441.703000", "120441.703000", "120441.718000", "120441.718000", "120441.718000", "120441.718000", "120441.718000", "120441.718000", "120441.734000", "120441.734000", "120441.734000", "120441.734000", "120441.734000", "120441.734000", "120441.734000", "120441.734000", "120441.750000", "120441.750000", "120441.750000", "120441.750000", "120441.750000", "120441.750000", "120501.703000", "120501.703000", "120501.703000", "120501.703000", "120501.703000", "120501.718000", "120501.718000", "120501.718000", "120501.718000", "120501.718000", "120501.718000", "120501.718000", "120501.718000", "120501.734000", "120501.734000", "120501.734000", "120501.734000", "120501.734000", "120501.734000", "120501.734000", "120501.750000", "120501.750000", "120501.750000", "120501.750000", "120501.750000", "120501.750000", "120521.703000", "120521.703000", "120521.703000", "120521.703000", "120521.703000", "120521.718000", "120521.718000", "120521.718000", "120521.718000", "120521.718000", "120521.718000", "120521.718000", "120521.734000", "120521.734000", "120521.734000", "120521.734000", "120521.734000", "120521.734000", "120521.734000", "120521.750000", "120521.750000", "120521.750000", "120521.750000", "120521.750000", "120521.750000", "120541.703000", "120541.703000", "120541.703000", "120541.703000", "120541.703000", "120541.718000", "120541.718000", "120541.718000", "120541.734000", "120541.734000", "120541.734000", "120541.734000", "120541.734000", "120541.734000", "120541.734000", "120541.750000", "120541.750000", "120541.750000", "120541.750000", "120541.750000", "120541.750000", "120541.750000", "120541.750000", "120541.765000", "120541.765000", "120541.765000", "120601.703000", "120601.703000", "120601.703000", "120601.703000", "120601.703000", "120601.718000", "120601.718000", "120601.718000", "120601.718000", "120601.718000", "120601.718000", "120601.718000", "120601.734000", "120601.734000", "120601.734000", "120601.734000", "120601.734000", "120601.734000", "120601.734000", "120601.734000", "120601.750000", "120601.750000", "120601.750000", "120601.750000", "120601.750000", "120621.703000", "120621.703000", "120621.703000", "120621.703000", "120621.703000", "120621.718000", "120621.718000", "120621.718000", "120621.718000", "120621.718000", "120621.718000", "120621.718000", "120621.718000", "120621.734000", "120621.734000", "120621.734000", "120621.734000", "120621.734000", "120621.734000", "120621.734000", "120621.734000", "120621.750000", "120621.750000", "120621.750000", "120621.750000", "120621.750000", "120641.703000", "120641.703000", "120641.703000", "120641.703000", "120641.703000", "120641.718000", "120641.718000", "120641.718000", "120641.718000", "120641.718000", "120641.718000", "120641.718000", "120641.734000", "120641.734000", "120641.734000", "120641.734000", "120641.734000", "120641.734000", "120641.734000", "120641.734000", "120641.750000", "120641.750000", "120641.750000", "120641.750000", "120641.750000", "120701.703000", "120701.703000", "120701.703000", "120701.703000", "120701.703000", "120701.718000", "120701.718000", "120701.718000", "120701.718000", "120701.718000", "120701.718000", "120701.718000", "120701.734000", "120701.734000", "120701.734000", "120701.734000", "120701.734000", "120701.734000", "120701.734000", "120701.734000", "120701.750000", "120701.750000", "120701.750000", "120701.750000", "120701.750000", "120701.750000", "120721.703000", "120721.703000", "120721.703000", "120721.703000", "120721.703000", "120721.718000", "120721.718000", "120721.718000", "120721.718000", "120721.718000", "120721.718000", "120721.718000", "120721.718000", "120721.734000", "120721.734000", "120721.734000", "120721.734000", "120721.734000", "120721.734000", "120721.734000", "120721.734000", "120721.750000", "120721.750000", "120721.750000", "120721.750000", "120741.703000", "120741.703000", "120741.703000", "120741.703000", "120741.703000", "120741.718000", "120741.718000", "120741.718000", "120741.718000", "120741.718000", "120741.718000", "120741.718000", "120741.718000", "120741.734000", "120741.734000", "120741.734000", "120741.734000", "120741.734000", "120741.734000", "120741.734000", "120741.734000", "120741.750000", "120741.750000", "120741.750000", "120741.750000", "120741.750000", "120801.703000", "120801.703000", "120801.703000", "120801.703000", "120801.703000", "120801.718000", "120801.718000", "120801.718000", "120801.718000", "120801.718000", "120801.718000", "120801.718000", "120801.734000", "120801.734000", "120801.734000", "120801.734000", "120801.734000", "120801.734000", "120801.734000", "120801.734000", "120801.750000", "120801.750000", "120801.750000", "120801.750000", "120801.750000", "120821.703000", "120821.703000", "120821.703000", "120821.703000", "120821.703000", "120821.718000", "120821.718000", "120821.718000", "120821.718000", "120821.718000", "120821.718000", "120821.718000", "120821.734000", "120821.734000", "120821.734000", "120821.734000", "120821.734000", "120821.734000", "120821.734000", "120821.734000", "120821.750000", "120821.750000", "120821.750000", "120821.750000", "120821.750000", "120821.750000", "120841.703000", "120841.703000", "120841.703000", "120841.703000", "120841.703000", "120841.718000", "120841.718000", "120841.718000", "120841.718000", "120841.718000", "120841.718000", "120841.718000", "120841.718000", "120841.734000", "120841.734000", "120841.734000", "120841.734000", "120841.734000", "120841.734000", "120841.734000", "120841.750000", "120841.750000", "120841.750000", "120841.750000", "120841.750000", "120901.703000", "120901.703000", "120901.703000", "120901.703000", "120901.703000", "120901.718000", "120901.718000", "120901.718000", "120901.718000", "120901.718000", "120901.718000", "120901.718000", "120901.718000", "120901.734000", "120901.734000", "120901.734000", "120901.734000", "120901.734000", "120901.734000", "120901.734000", "120901.750000", "120901.750000", "120901.750000", "120901.750000", "120901.750000", "120901.750000", "120921.703000", "120921.703000", "120921.703000", "120921.703000", "120921.703000", "120921.718000", "120921.718000", "120921.718000", "120921.718000", "120921.718000", "120921.718000", "120921.718000", "120921.718000", "120921.734000", "120921.734000", "120921.734000", "120921.734000", "120921.734000", "120921.734000", "120921.734000", "120921.750000", "120921.750000", "120921.750000", "120921.750000", "120921.750000", "120941.703000", "120941.703000", "120941.703000", "120941.703000", "120941.703000", "120941.718000", "120941.718000", "120941.718000", "120941.718000", "120941.718000", "120941.718000", "120941.718000", "120941.734000", "120941.734000", "120941.734000", "120941.734000", "120941.734000", "120941.734000", "120941.734000", "120941.734000", "120941.750000", "120941.750000", "120941.750000", "120941.750000", "120941.750000", "120941.750000", "121001.703000", "121001.703000", "121001.703000", "121001.703000", "121001.703000", "121001.718000", "121001.718000", "121001.718000", "121001.718000", "121001.718000", "121001.718000", "121001.718000", "121001.718000", "121001.734000", "121001.734000", "121001.734000", "121001.734000", "121001.734000", "121001.734000", "121001.734000", "121001.750000", "121001.750000", "121001.750000", "121001.750000", "121001.750000", "121007.609000", "121007.609000", "121007.609000", "121007.609000", "121007.609000", "121007.609000", "121007.609000", "121007.625000"],
