{
  "AcquisitionMatrixPE": 104,
  "AcquisitionNumber": 1,
  "AcquisitionTime": "11:46:33.742500",
  "BandwidthPerPixelPhaseEncode": 13.935,
  "BaseResolution": 104,
  "CoilString": "C:HEA;HEP",
  "ConversionSoftware": "dcm2niix",
  "ConversionSoftwareVersion": "v1.0.20210317",
  "DerivedVendorReportedEchoSpacing": 0.000690017,
  "DeviceSerialNumber": "35450",
  "DwellTime": 2.5e-06,
  "EchoTime": 0.0348,
  "EffectiveEchoSpacing": 0.000690017,
  "FlipAngle": 55,
  "ImageComments": "Unaliased MB8/PE3 (remote)",
  "ImageOrientationPatientDICOM": [0.999611, 0.00450508, 0.0275156, 5.548e-08, 0.98686, -0.161578],
  "ImageType": [
    "ORIGINAL",
    "PRIMARY",
    "M",
    "MB",
    "ND",
    "MOSAIC"
],
  "ImagingFrequency": 123.234,
  "InPlanePhaseEncodingDirectionDICOM": "COL",
  "InstitutionAddress": "Univeristy Ave. 197,Newark,North East,US,07102-1814",
  "InstitutionName": "RUBIC",
  "InstitutionalDepartmentName": "Department",
  "MRAcquisitionType": "2D",
  "MagneticFieldStrength": 3,
  "Manufacturer": "Siemens",
  "ManufacturersModelName": "TrioTim",
  "Modality": "MR",
  "MultibandAccelerationFactor": 8,
  "PartialFourier": 0.875,
  "PatientPosition": "HFS",
  "PercentPhaseFOV": 100,
  "PercentSampling": 100,
  "PhaseEncodingDirection": "j-",
  "PhaseEncodingSteps": 91,
  "PhaseResolution": 1,
  "PixelBandwidth": 1923,
  "ProcedureStepDescription": "Cole^Michael",
  "ProtocolName": "cmrr_mbep2d_bold_2mm_MB8_Task_8x",
  "PulseSequenceDetails": "%CustomerSeq%\\cmrr_mbep2d_bold",
  "ReceiveCoilName": "32Ch_Head",
  "ReconMatrixPE": 104,
  "RepetitionTime": 0.785,
  "SAR": 0.113675,
  "ScanOptions": "PFP\\FS",
  "ScanningSequence": "EP",
  "SequenceName": "epfid2d1_104",
  "SequenceVariant": "SK\\SS",
  "SeriesDescription": "cmrr_mbep2d_bold_2mm_MB8_Task_8x",
  "SeriesNumber": 19,
  "ShimSetting": [2133, -382, -7257, 249, -54, -117, 193, -64],
  "SliceThickness": 2,
  "SliceTiming": [0, 0.4375, 0.0875, 0.525, 0.175, 0.6125, 0.2625, 0.7, 0.35, 0, 0.4375, 0.0875, 0.525, 0.175, 0.6125, 0.2625, 0.7, 0.35, 0, 0.4375, 0.0875, 0.525, 0.175, 0.6125, 0.2625, 0.7, 0.35, 0, 0.4375, 0.0875, 0.525, 0.175, 0.6125, 0.2625, 0.7, 0.35, 0, 0.4375, 0.0875, 0.525, 0.175, 0.6125, 0.2625, 0.7, 0.35, 0, 0.4375, 0.0875, 0.525, 0.175, 0.6125, 0.2625, 0.7, 0.35, 0, 0.4375, 0.0875, 0.525, 0.175, 0.6125, 0.2625, 0.7, 0.35, 0, 0.4375, 0.0875, 0.525, 0.175, 0.6125, 0.2625, 0.7, 0.35],
  "SoftwareVersions": "syngo MR B19",
  "SpacingBetweenSlices": 2,
  "StationName": "MRC35450",
  "TaskName": "cpro",
  "TotalReadoutTime": 0.0710717,
  "TxRefAmp": 323.484,
  "dcmmeta_affine": [
    [-1.9992223978042603, 1.1095998075916214e-07, 0.055764004588127136, 103.5031967163086],
    [-0.009010154753923416, 1.9737197160720825, -0.32303136587142944, -78.4134750366211],
    [0.05503127723932266, 0.3231569826602936, 1.9729523658752441, -112.22648620605469],
    [0.0, 0.0, 0.0, 1.0]
],
  "dcmmeta_reorient_transform": [
    [0.0, -1.0, 0.0, 103.0],
    [1.0, 0.0, 0.0, 0.0],
    [0.0, 0.0, 1.0, 0.0],
    [0.0, 0.0, 0.0, 1.0]
],
  "dcmmeta_shape": [104, 104, 72, 581],
  "dcmmeta_slice_dim": 2,
  "dcmmeta_version": 0.6,
  "global": {
    "const": {
      "AcquisitionMatrix": [104, 0, 0, 104],
      "AngioFlag": "N",
      "BitsAllocated": 16,
      "BitsStored": 12,
      "Columns": 936,
      "EchoNumbers": 1,
      "EchoTime": 34.8,
      "EchoTrainLength": 1,
      "FlipAngle": 55.0,
      "HighBit": 11,
      "ImageOrientationPatient": [0.99961122138447, 0.00450507738034, 0.0275156384633, 5.5479991e-08, 0.98685986306492, -0.1615784969341],
      "ImagePositionPatient": [-935.17978958961, -949.69528468096, 32.598985431054],
      "ImageType": [
        "ORIGINAL",
        "PRIMARY",
        "M",
        "MB",
        "ND",
        "MOSAIC"
],
      "ImagedNucleus": "1H",
      "ImagingFrequency": 123.234455,
      "InPlanePhaseEncodingDirection": "COL",
      "MRAcquisitionType": "2D",
      "MagneticFieldStrength": 3.0,
      "Manufacturer": "SIEMENS",
      "ManufacturerModelName": "TrioTim",
      "Modality": "MR",
      "NumberOfAverages": 1.0,
      "NumberOfPhaseEncodingSteps": 91,
      "PercentPhaseFieldOfView": 100.0,
      "PercentSampling": 100.0,
      "PerformedProcedureStepStartTime": "101825.703000",
      "PhotometricInterpretation": "MONOCHROME2",
      "PixelBandwidth": 1923.0,
      "PixelRepresentation": 0,
      "PixelSpacing": [2.0, 2.0],
      "ProtocolName": "cmrr_mbep2d_bold_2mm_MB8_Task_8x",
      "RepetitionTime": 785.0,
      "Rows": 936,
      "SAR": 0.11367459511211,
      "SamplesPerPixel": 1,
      "ScanOptions": [
        "PFP",
        "FS"
],
      "ScanningSequence": "EP",
      "SequenceName": "epfid2d1_104",
      "SequenceVariant": [
        "SK",
        "SS"
],
      "SeriesDescription": "cmrr_mbep2d_bold_2mm_MB8_Task_8x",
      "SeriesNumber": 19,
      "SeriesTime": "114700.421000",
      "SliceLocation": -95.157871300125,
      "SliceThickness": 2.0,
      "SmallestImagePixelValue": 0,
      "SoftwareVersions": "syngo MR B19",
      "SpacingBetweenSlices": 1.9999999607303,
      "SpecificCharacterSet": "ISO_IR 100",
      "StudyID": "1",
      "StudyTime": "101825.578000",
      "TransmitCoilName": "Body",
      "VariableFlipAngleFlag": "N",
      "WindowCenterWidthExplanation": "Algo1",
      "dBdt": 0.0},
    "slices": {}
  },
  "time": {
    "samples": {
      "AcquisitionNumber": [1, 2, 3, 4, 5, 6, 7, 8, 9, 10, 11, 12, 13, 14, 15, 16, 17, 18, 19, 20, 21, 22, 23, 24, 25, 26, 27, 28, 29, 30, 31, 32, 33, 34, 35, 36, 37, 38, 39, 40, 41, 42, 43, 44, 45, 46, 47, 48, 49, 50, 51, 52, 53, 54, 55, 56, 57, 58, 59, 60, 61, 62, 63, 64, 65, 66, 67, 68, 69, 70, 71, 72, 73, 74, 75, 76, 77, 78, 79, 80, 81, 82, 83, 84, 85, 86, 87, 88, 89, 90, 91, 92, 93, 94, 95, 96, 97, 98, 99, 100, 101, 102, 103, 104, 105, 106, 107, 108, 109, 110, 111, 112, 113, 114, 115, 116, 117, 118, 119, 120, 121, 122, 123, 124, 125, 126, 127, 128, 129, 130, 131, 132, 133, 134, 135, 136, 137, 138, 139, 140, 141, 142, 143, 144, 145, 146, 147, 148, 149, 150, 151, 152, 153, 154, 155, 156, 157, 158, 159, 160, 161, 162, 163, 164, 165, 166, 167, 168, 169, 170, 171, 172, 173, 174, 175, 176, 177, 178, 179, 180, 181, 182, 183, 184, 185, 186, 187, 188, 189, 190, 191, 192, 193, 194, 195, 196, 197, 198, 199, 200, 201, 202, 203, 204, 205, 206, 207, 208, 209, 210, 211, 212, 213, 214, 215, 216, 217, 218, 219, 220, 221, 222, 223, 224, 225, 226, 227, 228, 229, 230, 231, 232, 233, 234, 235, 236, 237, 238, 239, 240, 241, 242, 243, 244, 245, 246, 247, 248, 249, 250, 251, 252, 253, 254, 255, 256, 257, 258, 259, 260, 261, 262, 263, 264, 265, 266, 267, 268, 269, 270, 271, 272, 273, 274, 275, 276, 277, 278, 279, 280, 281, 282, 283, 284, 285, 286, 287, 288, 289, 290, 291, 292, 293, 294, 295, 296, 297, 298, 299, 300, 301, 302, 303, 304, 305, 306, 307, 308, 309, 310, 311, 312, 313, 314, 315, 316, 317, 318, 319, 320, 321, 322, 323, 324, 325, 326, 327, 328, 329, 330, 331, 332, 333, 334, 335, 336, 337, 338, 339, 340, 341, 342, 343, 344, 345, 346, 347, 348, 349, 350, 351, 352, 353, 354, 355, 356, 357, 358, 359, 360, 361, 362, 363, 364, 365, 366, 367, 368, 369, 370, 371, 372, 373, 374, 375, 376, 377, 378, 379, 380, 381, 382, 383, 384, 385, 386, 387, 388, 389, 390, 391, 392, 393, 394, 395, 396, 397, 398, 399, 400, 401, 402, 403, 404, 405, 406, 407, 408, 409, 410, 411, 412, 413, 414, 415, 416, 417, 418, 419, 420, 421, 422, 423, 424, 425, 426, 427, 428, 429, 430, 431, 432, 433, 434, 435, 436, 437, 438, 439, 440, 441, 442, 443, 444, 445, 446, 447, 448, 449, 450, 451, 452, 453, 454, 455, 456, 457, 458, 459, 460, 461, 462, 463, 464, 465, 466, 467, 468, 469, 470, 471, 472, 473, 474, 475, 476, 477, 478, 479, 480, 481, 482, 483, 484, 485, 486, 487, 488, 489, 490, 491, 492, 493, 494, 495, 496, 497, 498, 499, 500, 501, 502, 503, 504, 505, 506, 507, 508, 509, 510, 511, 512, 513, 514, 515, 516, 517, 518, 519, 520, 521, 522, 523, 524, 525, 526, 527, 528, 529, 530, 531, 532, 533, 534, 535, 536, 537, 538, 539, 540, 541, 542, 543, 544, 545, 546, 547, 548, 549, 550, 551, 552, 553, 554, 555, 556, 557, 558, 559, 560, 561, 562, 563, 564, 565, 566, 567, 568, 569, 570, 571, 572, 573, 574, 575, 576, 577, 578, 579, 580, 581],
      "AcquisitionTime": ["114633.742500", "114634.530000", "114635.320000", "114636.107500", "114636.895000", "114637.685000", "114638.472500", "114639.260000", "114640.047500", "114640.837500", "114641.625000", "114642.412500", "114643.200000", "114643.990000", "114644.777500", "114645.565000", "114646.352500", "114647.142500", "114647.930000", "114648.717500", "114649.505000", "114650.295000", "114651.082500", "114651.870000", "114652.657500", "114653.447500", "114654.235000", "114655.022500", "114655.812500", "114656.600000", "114657.387500", "114658.175000", "114658.965000", "114659.752500", "114700.540000", "114701.327500", "114702.117500", "114702.905000", "114703.692500", "114704.480000", "114705.270000", "114706.057500", "114706.845000", "114707.632500", "114708.422500", "114709.210000", "114709.997500", "114710.785000", "114711.575000", "114712.362500", "114713.150000", "114713.940000", "114714.727500", "114715.515000", "114716.302500", "114717.092500", "114717.880000", "114718.667500", "114719.455000", "114720.245000", "114721.032500", "114721.820000", "114722.607500", "114723.397500", "114724.185000", "114724.972500", "114725.760000", "114726.550000", "114727.337500", "114728.125000", "114728.912500", "114729.702500", "114730.490000", "114731.277500", "114732.067500", "114732.855000", "114733.642500", "114734.430000", "114735.220000", "114736.007500", "114736.795000", "114737.582500", "114738.372500", "114739.160000", "114739.947500", "114740.735000", "114741.525000", "114742.312500", "114743.100000", "114743.887500", "114744.677500", "114745.465000", "114746.252500", "114747.040000", "114747.830000", "114748.617500", "114749.405000", "114750.195000", "114750.982500", "114751.770000", "114752.557500", "114753.347500", "114754.135000", "114754.922500", "114755.710000", "114756.500000", "114757.287500", "114758.075000", "114758.862500", "114759.652500", "114800.440000", "114801.227500", "114802.015000", "114802.805000", "114803.592500", "114804.380000", "114805.167500", "114805.957500", "114806.745000", "114807.532500", "114808.322500", "114809.110000", "114809.897500", "114810.685000", "114811.475000", "114812.262500", "114813.050000", "114813.837500", "114814.627500", "114815.415000", "114816.202500", "114816.990000", "114817.780000", "114818.567500", "114819.355000", "114820.142500", "114820.932500", "114821.720000", "114822.507500", "114823.295000", "114824.085000", "114824.872500", "114825.660000", "114826.450000", "114827.237500", "114828.025000", "114828.812500", "114829.602500", "114830.390000", "114831.177500", "114831.965000", "114832.755000", "114833.542500", "114834.330000", "114835.117500", "114835.907500", "114836.695000", "114837.482500", "114838.270000", "114839.060000", "114839.847500", "114840.635000", "114841.422500", "114842.212500", "114843.000000", "114843.787500", "114844.577500", "114845.365000", "114846.152500", "114846.940000", "114847.730000", "114848.517500", "114849.305000", "114850.092500", "114850.882500", "114851.670000", "114852.457500", "114853.245000", "114854.035000", "114854.822500", "114855.610000", "114856.397500", "114857.187500", "114857.975000", "114858.762500", "114859.552500", "114900.340000", "114901.127500", "114901.915000", "114902.705000", "114903.492500", "114904.280000", "114905.067500", "114905.857500", "114906.645000", "114907.432500", "114908.220000", "114909.010000", "114909.797500", "114910.585000", "114911.372500", "114912.162500", "114912.950000", "114913.737500", "114914.525000", "114915.315000", "114916.102500", "114916.890000", "114917.680000", "114918.467500", "114919.255000", "114920.042500", "114920.832500", "114921.620000", "114922.407500", "114923.195000", "114923.985000", "114924.772500", "114925.560000", "114926.347500", "114927.137500", "114927.925000", "114928.712500", "114929.500000", "114930.290000", "114931.077500", "114931.865000", "114932.652500", "114933.442500", "114934.230000", "114935.017500", "114935.807500", "114936.595000", "114937.382500", "114938.170000", "114938.960000", "114939.747500", "114940.535000", "114941.322500", "114942.112500", "114942.900000", "114943.687500", "114944.475000", "114945.265000", "114946.052500", "114946.840000", "114947.627500", "114948.417500", "114949.205000", "114949.992500", "114950.780000", "114951.570000", "114952.357500", "114953.145000", "114953.935000", "114954.722500", "114955.510000", "114956.297500", "114957.087500", "114957.875000", "114958.662500", "114959.450000", "115000.240000", "115001.027500", "115001.815000", "115002.602500", "115003.392500", "115004.180000", "115004.967500", "115005.755000", "115006.545000", "115007.332500", "115008.120000", "115008.907500", "115009.697500", "115010.485000", "115011.272500", "115012.062500", "115012.850000", "115013.637500", "115014.425000", "115015.215000", "115016.002500", "115016.790000", "115017.577500", "115018.367500", "115019.155000", "115019.942500", "115020.730000", "115021.520000", "115022.307500", "115023.095000", "115023.882500", "115024.672500", "115025.460000", "115026.247500", "115027.035000", "115027.825000", "115028.612500", "115029.400000", "115030.190000", "115030.977500", "115031.765000", "115032.552500", "115033.342500", "115034.130000", "115034.917500", "115035.705000", "115036.495000", "115037.282500", "115038.070000", "115038.857500", "115039.647500", "115040.435000", "115041.222500", "115042.010000", "115042.800000", "115043.587500", "115044.375000", "115045.162500", "115045.952500", "115046.740000", "115047.527500", "115048.317500", "115049.105000", "115049.892500", "115050.680000", "115051.470000", "115052.257500", "115053.045000", "115053.832500", "115054.622500", "115055.410000", "115056.197500", "115056.985000", "115057.775000", "115058.562500", "115059.350000", "115100.137500", "115100.927500", "115101.715000", "115102.502500", "115103.290000", "115104.080000", "115104.867500", "115105.655000", "115106.445000", "115107.232500", "115108.020000", "115108.807500", "115109.597500", "115110.385000", "115111.172500", "115111.960000", "115112.750000", "115113.537500", "115114.325000", "115115.112500", "115115.902500", "115116.690000", "115117.477500", "115118.265000", "115119.055000", "115119.842500", "115120.630000", "115121.417500", "115122.207500", "115122.995000", "115123.782500", "115124.572500", "115125.360000", "115126.147500", "115126.935000", "115127.725000", "115128.512500", "115129.300000", "115130.087500", "115130.877500", "115131.665000", "115132.452500", "115133.240000", "115134.030000", "115134.817500", "115135.605000", "115136.392500", "115137.182500", "115137.970000", "115138.757500", "115139.545000", "115140.335000", "115141.122500", "115141.910000", "115142.700000", "115143.487500", "115144.275000", "115145.062500", "115145.852500", "115146.640000", "115147.427500", "115148.215000", "115149.005000", "115149.792500", "115150.580000", "115151.367500", "115152.157500", "115152.945000", "115153.732500", "115154.520000", "115155.310000", "115156.097500", "115156.885000", "115157.672500", "115158.462500", "115159.250000", "115200.037500", "115200.827500", "115201.615000", "115202.402500", "115203.190000", "115203.980000", "115204.767500", "115205.555000", "115206.342500", "115207.132500", "115207.920000", "115208.707500", "115209.495000", "115210.285000", "115211.072500", "115211.860000", "115212.647500", "115213.437500", "115214.225000", "115215.012500", "115215.802500", "115216.590000", "115217.377500", "115218.165000", "115218.955000", "115219.742500", "115220.530000", "115221.317500", "115222.107500", "115222.895000", "115223.682500", "115224.470000", "115225.260000", "115226.047500", "115226.835000", "115227.622500", "115228.412500", "115229.200000", "115229.987500", "115230.775000", "115231.565000", "115232.352500", "115233.140000", "115233.930000", "115234.717500", "115235.505000", "115236.292500", "115237.082500", "115237.870000", "115238.657500", "115239.445000", "115240.235000", "115241.022500", "115241.810000", "115242.597500", "115243.387500", "115244.175000", "115244.962500", "115245.750000", "115246.540000", "115247.327500", "115248.115000", "115248.902500", "115249.692500", "115250.480000", "115251.267500", "115252.057500", "115252.845000", "115253.632500", "115254.420000", "115255.210000", "115255.997500", "115256.785000", "115257.572500", "115258.362500", "115259.150000", "115259.937500", "115300.725000", "115301.515000", "115302.302500", "115303.090000", "115303.877500", "115304.667500", "115305.455000", "115306.242500", "115307.030000", "115307.820000", "115308.607500", "115309.395000", "115310.185000", "115310.972500", "115311.760000", "115312.547500", "115313.337500", "115314.125000", "115314.912500", "115315.700000", "115316.490000", "115317.277500", "115318.065000", "115318.852500", "115319.642500", "115320.430000", "115321.217500", "115322.005000", "115322.795000", "115323.582500", "115324.370000", "115325.157500", "115325.947500", "115326.735000", "115327.522500", "115328.312500", "115329.100000", "115329.887500", "115330.675000", "115331.465000", "115332.252500", "115333.040000", "115333.827500", "115334.617500", "115335.405000", "115336.192500", "115336.980000", "115337.770000", "115338.557500", "115339.345000", "115340.132500", "115340.922500", "115341.710000", "115342.497500", "115343.285000", "115344.075000", "115344.862500", "115345.650000", "115346.440000", "115347.227500", "115348.015000", "115348.802500", "115349.592500", "115350.380000", "115351.167500", "115351.955000", "115352.745000", "115353.532500", "115354.320000", "115355.107500", "115355.897500", "115356.685000", "115357.472500", "115358.260000", "115359.050000", "115359.837500", "115400.625000", "115401.412500", "115402.202500", "115402.990000", "115403.777500", "115404.567500", "115405.355000", "115406.142500", "115406.930000", "115407.720000", "115408.507500", "115409.295000", "115410.082500", "115410.872500"],
      "ContentTime": ["114700.421000", "114700.437000", "114700.437000", "114700.437000", "114700.437000", "114700.437000", "114700.437000", "114700.437000", "114700.453000", "114700.453000", "114700.453000", "114700.453000", "114700.453000", "114700.453000", "114700.453000", "114700.453000", "114700.468000", "114700.468000", "114700.468000", "114700.468000", "114700.468000", "114700.468000", "114700.468000", "114700.484000", "114700.484000", "114700.484000", "114700.484000", "114700.484000", "114700.484000", "114700.484000", "114720.406000", "114720.406000", "114720.406000", "114720.406000", "114720.406000", "114720.421000", "114720.421000", "114720.421000", "114720.421000", "114720.421000", "114720.421000", "114720.421000", "114720.421000", "114720.437000", "114720.437000", "114720.437000", "114720.437000", "114720.437000", "114720.437000", "114720.437000", "114720.453000", "114720.453000", "114720.453000", "114720.453000", "114720.453000", "114720.453000", "114740.406000", "114740.406000", "114740.406000", "114740.406000", "114740.406000", "114740.421000", "114740.421000", "114740.421000", "114740.421000", "114740.421000", "114740.421000", "114740.421000", "114740.421000", "114740.437000", "114740.437000", "114740.437000", "114740.437000", "114740.437000", "114740.437000", "114740.437000", "114740.437000", "114740.453000", "114740.453000", "114740.453000", "114740.453000", "114800.406000", "114800.406000", "114800.406000", "114800.406000", "114800.406000", "114800.421000", "114800.421000", "114800.421000", "114800.421000", "114800.421000", "114800.421000", "114800.421000", "114800.421000", "114800.437000", "114800.437000", "114800.437000", "114800.437000", "114800.437000", "114800.437000", "114800.437000", "114800.453000", "114800.453000", "114800.453000", "114800.453000", "114800.453000", "114800.453000", "114820.406000", "114820.406000", "114820.406000", "114820.406000", "114820.406000", "114820.421000", "114820.421000", "114820.421000", "114820.421000", "114820.421000", "114820.421000", "114820.421000", "114820.421000", "114820.437000", "114820.437000", "114820.437000", "114820.437000", "114820.437000", "114820.437000", "114820.437000", "114820.437000", "114820.453000", "114820.453000", "114820.453000", "114820.453000", "114840.406000", "114840.406000", "114840.406000", "114840.406000", "114840.406000", "114840.421000", "114840.421000", "114840.421000", "114840.421000", "114840.421000", "114840.421000", "114840.421000", "114840.421000", "114840.437000", "114840.437000", "114840.437000", "114840.437000", "114840.437000", "114840.437000", "114840.437000", "114840.453000", "114840.453000", "114840.453000", "114840.453000", "114840.453000", "114840.453000", "114900.406000", "114900.406000", "114900.406000", "114900.406000", "114900.406000", "114900.421000", "114900.421000", "114900.421000", "114900.421000", "114900.421000", "114900.421000", "114900.421000", "114900.421000", "114900.437000", "114900.437000", "114900.437000", "114900.437000", "114900.437000", "114900.437000", "114900.437000", "114900.453000", "114900.453000", "114900.453000", "114900.453000", "114900.453000", "114920.406000", "114920.406000", "114920.406000", "114920.406000", "114920.406000", "114920.421000", "114920.421000", "114920.421000", "114920.421000", "114920.421000", "114920.421000", "114920.421000", "114920.437000", "114920.437000", "114920.437000", "114920.437000", "114920.437000", "114920.437000", "114920.437000", "114920.437000", "114920.453000", "114920.453000", "114920.453000", "114920.453000", "114920.453000", "114920.453000", "114940.406000", "114940.406000", "114940.406000", "114940.406000", "114940.406000", "114940.421000", "114940.421000", "114940.421000", "114940.421000", "114940.421000", "114940.421000", "114940.421000", "114940.421000", "114940.437000", "114940.437000", "114940.437000", "114940.437000", "114940.437000", "114940.437000", "114940.437000", "114940.453000", "114940.453000", "114940.453000", "114940.453000", "114940.453000", "115000.406000", "115000.406000", "115000.406000", "115000.406000", "115000.406000", "115000.421000", "115000.421000", "115000.421000", "115000.421000", "115000.421000", "115000.421000", "115000.421000", "115000.421000", "115000.437000", "115000.437000", "115000.437000", "115000.437000", "115000.437000", "115000.437000", "115000.437000", "115000.453000", "115000.453000", "115000.453000", "115000.453000", "115000.453000", "115000.453000", "115020.406000", "115020.406000", "115020.406000", "115020.406000", "115020.406000", "115020.421000", "115020.421000", "115020.421000", "115020.421000", "115020.421000", "115020.421000", "115020.421000", "115020.421000", "115020.437000", "115020.437000", "115020.437000", "115020.437000", "115020.437000", "115020.437000", "115020.437000", "115020.453000", "115020.453000", "115020.453000", "115020.453000", "115020.453000", "115040.406000", "115040.406000", "115040.406000", "115040.406000", "115040.406000", "115040.421000", "115040.421000", "115040.421000", "115040.421000", "115040.421000", "115040.421000", "115040.421000", "115040.421000", "115040.437000", "115040.437000", "115040.437000", "115040.437000", "115040.437000", "115040.437000", "115040.437000", "115040.453000", "115040.453000", "115040.453000", "115040.453000", "115040.453000", "115040.453000", "115100.406000", "115100.406000", "115100.406000", "115100.406000", "115100.406000", "115100.421000", "115100.421000", "115100.421000", "115100.421000", "115100.421000", "115100.421000", "115100.421000", "115100.421000", "115100.437000", "115100.437000", "115100.437000", "115100.437000", "115100.437000", "115100.437000", "115100.437000", "115100.453000", "115100.453000", "115100.453000", "115100.453000", "115100.453000", "115120.406000", "115120.406000", "115120.406000", "115120.406000", "115120.406000", "115120.421000", "115120.421000", "115120.421000", "115120.421000", "115120.421000", "115120.421000", "115120.421000", "115120.421000", "115120.437000", "115120.437000", "115120.437000", "115120.437000", "115120.437000", "115120.437000", "115120.437000", "115120.453000", "115120.453000", "115120.453000", "115120.453000", "115120.453000", "115120.453000", "115140.406000", "115140.406000", "115140.406000", "115140.406000", "115140.406000", "115140.421000", "115140.421000", "115140.421000", "115140.421000", "115140.421000", "115140.421000", "115140.421000", "115140.421000", "115140.437000", "115140.437000", "115140.437000", "115140.437000", "115140.437000", "115140.437000", "115140.437000", "115140.453000", "115140.453000", "115140.453000", "115140.453000", "115140.453000", "115200.406000", "115200.406000", "115200.406000", "115200.406000", "115200.406000", "115200.421000", "115200.421000", "115200.421000", "115200.421000", "115200.421000", "115200.421000", "115200.421000", "115200.421000", "115200.437000", "115200.437000", "115200.437000", "115200.437000", "115200.437000", "115200.437000", "115200.437000", "115200.453000", "115200.453000", "115200.453000", "115200.453000", "115200.453000", "115220.406000", "115220.406000", "115220.406000", "115220.406000", "115220.406000", "115220.421000", "115220.421000", "115220.421000", "115220.421000", "115220.421000", "115220.421000", "115220.421000", "115220.437000", "115220.437000", "115220.437000", "115220.437000", "115220.437000", "115220.437000", "115220.437000", "115220.437000", "115220.453000", "115220.453000", "115220.453000", "115220.453000", "115220.453000", "115220.453000", "115240.406000", "115240.406000", "115240.406000", "115240.406000", "115240.406000", "115240.421000", "115240.421000", "115240.421000", "115240.421000", "115240.421000", "115240.421000", "115240.421000", "115240.421000", "115240.437000", "115240.437000", "115240.437000", "115240.437000", "115240.437000", "115240.437000", "115240.437000", "115240.453000", "115240.453000", "115240.453000", "115240.453000", "115240.453000", "115300.406000", "115300.406000", "115300.406000", "115300.406000", "115300.406000", "115300.421000", "115300.421000", "115300.421000", "115300.421000", "115300.421000", "115300.421000", "115300.421000", "115300.421000", "115300.437000", "115300.437000", "115300.437000", "115300.437000", "115300.437000", "115300.437000", "115300.437000", "115300.453000", "115300.453000", "115300.453000", "115300.453000", "115300.453000", "115300.453000", "115320.406000", "115320.406000", "115320.406000", "115320.406000", "115320.406000", "115320.421000", "115320.421000", "115320.421000", "115320.421000", "115320.421000", "115320.421000", "115320.421000", "115320.437000", "115320.437000", "115320.437000", "115320.437000", "115320.437000", "115320.437000", "115320.453000", "115320.453000", "115320.453000", "115320.453000", "115320.453000", "115320.453000", "115320.468000", "115340.406000", "115340.406000", "115340.406000", "115340.406000", "115340.406000", "115340.421000", "115340.421000", "115340.421000", "115340.421000", "115340.421000", "115340.421000", "115340.421000", "115340.421000", "115340.437000", "115340.437000", "115340.437000", "115340.437000", "115340.437000", "115340.437000", "115340.437000", "115340.453000", "115340.453000", "115340.453000", "115340.453000", "115340.453000", "115340.453000", "115400.406000", "115400.406000", "115400.406000", "115400.406000", "115400.406000", "115400.421000", "115400.421000", "115400.421000", "115400.421000", "115400.421000", "115400.421000", "115400.421000", "115400.421000", "115400.437000", "115400.437000", "115400.437000", "115400.437000", "115400.437000", "115400.437000", "115400.437000", "115400.453000", "115400.453000", "115400.453000", "115400.453000", "115400.453000", "115412.359000", "115412.359000", "115412.359000", "115412.359000", "115412.359000", "115412.359000", "115412.359000", "115412.375000", "115412.375000", "115412.375000", "115412.375000", "115412.375000", "115412.375000", "115412.375000", "115412.390000", "115412.390000"],
