{
  "AcquisitionMatrixPE": 104,
  "AcquisitionNumber": 1,
  "AcquisitionTime": "11:54:31.732500",
  "BandwidthPerPixelPhaseEncode": 13.935,
  "BaseResolution": 104,
  "CoilString": "C:HEA;HEP",
  "ConversionSoftware": "dcm2niix",
  "ConversionSoftwareVersion": "v1.0.20210317",
  "DerivedVendorReportedEchoSpacing": 0.000690017,
  "DeviceSerialNumber": "35450",
  "DwellTime": 2.5e-06,
  "EchoTime": 0.0348,
  "EffectiveEchoSpacing": 0.000690017,
  "FlipAngle": 55,
  "ImageComments": "Unaliased MB8/PE3 (remote)",
  "ImageOrientationPatientDICOM": [0.999611, 0.00450508, 0.0275156, 5.548e-08, 0.98686, -0.161578],
  "ImageType": [
    "ORIGINAL",
    "PRIMARY",
    "M",
    "MB",
    "ND",
    "MOSAIC"
],
  "ImagingFrequency": 123.234,
  "InPlanePhaseEncodingDirectionDICOM": "COL",
  "InstitutionAddress": "Univeristy Ave. 197,Newark,North East,US,07102-1814",
  "InstitutionName": "RUBIC",
  "InstitutionalDepartmentName": "Department",
  "MRAcquisitionType": "2D",
  "MagneticFieldStrength": 3,
  "Manufacturer": "Siemens",
  "ManufacturersModelName": "TrioTim",
  "Modality": "MR",
  "MultibandAccelerationFactor": 8,
  "PartialFourier": 0.875,
  "PatientPosition": "HFS",
  "PercentPhaseFOV": 100,
  "PercentSampling": 100,
  "PhaseEncodingDirection": "j-",
  "PhaseEncodingSteps": 91,
  "PhaseResolution": 1,
  "PixelBandwidth": 1923,
  "ProcedureStepDescription": "Cole^Michael",
  "ProtocolName": "cmrr_mbep2d_bold_2mm_MB8_Task_8x",
  "PulseSequenceDetails": "%CustomerSeq%\\cmrr_mbep2d_bold",
  "ReceiveCoilName": "32Ch_Head",
  "ReconMatrixPE": 104,
  "RepetitionTime": 0.785,
  "SAR": 0.113675,
  "ScanOptions": "PFP\\FS",
  "ScanningSequence": "EP",
  "SequenceName": "epfid2d1_104",
  "SequenceVariant": "SK\\SS",
  "SeriesDescription": "cmrr_mbep2d_bold_2mm_MB8_Task_8x",
  "SeriesNumber": 21,
  "ShimSetting": [2133, -382, -7257, 249, -54, -117, 193, -64],
  "SliceThickness": 2,
  "SliceTiming": [0, 0.4375, 0.0875, 0.525, 0.175, 0.6125, 0.2625, 0.7, 0.35, 0, 0.4375, 0.0875, 0.525, 0.175, 0.6125, 0.2625, 0.7, 0.35, 0, 0.4375, 0.0875, 0.525, 0.175, 0.6125, 0.2625, 0.7, 0.35, 0, 0.4375, 0.0875, 0.525, 0.175, 0.6125, 0.2625, 0.7, 0.35, 0, 0.4375, 0.0875, 0.525, 0.175, 0.6125, 0.2625, 0.7, 0.35, 0, 0.4375, 0.0875, 0.525, 0.175, 0.6125, 0.2625, 0.7, 0.35, 0, 0.4375, 0.0875, 0.525, 0.175, 0.6125, 0.2625, 0.7, 0.35, 0, 0.4375, 0.0875, 0.525, 0.175, 0.6125, 0.2625, 0.7, 0.35],
  "SoftwareVersions": "syngo MR B19",
  "SpacingBetweenSlices": 2,
  "StationName": "MRC35450",
  "TaskName": "cpro",
  "TotalReadoutTime": 0.0710717,
  "TxRefAmp": 323.484,
  "dcmmeta_affine": [
    [-1.9992223978042603, 1.1095998075916214e-07, 0.055764004588127136, 103.5031967163086],
    [-0.009010154753923416, 1.9737197160720825, -0.32303136587142944, -78.4134750366211],
    [0.05503127723932266, 0.3231569826602936, 1.9729523658752441, -112.22648620605469],
    [0.0, 0.0, 0.0, 1.0]
],
  "dcmmeta_reorient_transform": [
    [0.0, -1.0, 0.0, 103.0],
    [1.0, 0.0, 0.0, 0.0],
    [0.0, 0.0, 1.0, 0.0],
    [0.0, 0.0, 0.0, 1.0]
],
  "dcmmeta_shape": [104, 104, 72, 581],
  "dcmmeta_slice_dim": 2,
  "dcmmeta_version": 0.6,
  "global": {
    "const": {
      "AcquisitionMatrix": [104, 0, 0, 104],
      "AngioFlag": "N",
      "BitsAllocated": 16,
      "BitsStored": 12,
      "Columns": 936,
      "EchoNumbers": 1,
      "EchoTime": 34.8,
      "EchoTrainLength": 1,
      "FlipAngle": 55.0,
      "HighBit": 11,
      "ImageOrientationPatient": [0.99961122138447, 0.00450507738034, 0.0275156384633, 5.5479991e-08, 0.98685986306492, -0.1615784969341],
      "ImagePositionPatient": [-935.17978958961, -949.69528468096, 32.598985431054],
      "ImageType": [
        "ORIGINAL",
        "PRIMARY",
        "M",
        "MB",
        "ND",
        "MOSAIC"
],
      "ImagedNucleus": "1H",
      "ImagingFrequency": 123.234455,
      "InPlanePhaseEncodingDirection": "COL",
      "MRAcquisitionType": "2D",
      "MagneticFieldStrength": 3.0,
      "Manufacturer": "SIEMENS",
      "ManufacturerModelName": "TrioTim",
      "Modality": "MR",
      "NumberOfAverages": 1.0,
      "NumberOfPhaseEncodingSteps": 91,
      "PercentPhaseFieldOfView": 100.0,
      "PercentSampling": 100.0,
      "PerformedProcedureStepStartTime": "101825.703000",
      "PhotometricInterpretation": "MONOCHROME2",
      "PixelBandwidth": 1923.0,
      "PixelRepresentation": 0,
      "PixelSpacing": [2.0, 2.0],
      "ProtocolName": "cmrr_mbep2d_bold_2mm_MB8_Task_8x",
      "RepetitionTime": 785.0,
      "Rows": 936,
      "SAR": 0.11367459511211,
      "SamplesPerPixel": 1,
      "ScanOptions": [
        "PFP",
        "FS"
],
      "ScanningSequence": "EP",
      "SequenceName": "epfid2d1_104",
      "SequenceVariant": [
        "SK",
        "SS"
],
      "SeriesDescription": "cmrr_mbep2d_bold_2mm_MB8_Task_8x",
      "SeriesNumber": 21,
      "SeriesTime": "115501.718000",
      "SliceLocation": -95.157871300125,
      "SliceThickness": 2.0,
      "SmallestImagePixelValue": 0,
      "SoftwareVersions": "syngo MR B19",
      "SpacingBetweenSlices": 1.9999999607303,
      "SpecificCharacterSet": "ISO_IR 100",
      "StudyID": "1",
      "StudyTime": "101825.578000",
      "TransmitCoilName": "Body",
      "VariableFlipAngleFlag": "N",
      "WindowCenterWidthExplanation": "Algo1",
      "dBdt": 0.0},
    "slices": {}
  },
  "time": {
    "samples": {
      "AcquisitionNumber": [1, 2, 3, 4, 5, 6, 7, 8, 9, 10, 11, 12, 13, 14, 15, 16, 17, 18, 19, 20, 21, 22, 23, 24, 25, 26, 27, 28, 29, 30, 31, 32, 33, 34, 35, 36, 37, 38, 39, 40, 41, 42, 43, 44, 45, 46, 47, 48, 49, 50, 51, 52, 53, 54, 55, 56, 57, 58, 59, 60, 61, 62, 63, 64, 65, 66, 67, 68, 69, 70, 71, 72, 73, 74, 75, 76, 77, 78, 79, 80, 81, 82, 83, 84, 85, 86, 87, 88, 89, 90, 91, 92, 93, 94, 95, 96, 97, 98, 99, 100, 101, 102, 103, 104, 105, 106, 107, 108, 109, 110, 111, 112, 113, 114, 115, 116, 117, 118, 119, 120, 121, 122, 123, 124, 125, 126, 127, 128, 129, 130, 131, 132, 133, 134, 135, 136, 137, 138, 139, 140, 141, 142, 143, 144, 145, 146, 147, 148, 149, 150, 151, 152, 153, 154, 155, 156, 157, 158, 159, 160, 161, 162, 163, 164, 165, 166, 167, 168, 169, 170, 171, 172, 173, 174, 175, 176, 177, 178, 179, 180, 181, 182, 183, 184, 185, 186, 187, 188, 189, 190, 191, 192, 193, 194, 195, 196, 197, 198, 199, 200, 201, 202, 203, 204, 205, 206, 207, 208, 209, 210, 211, 212, 213, 214, 215, 216, 217, 218, 219, 220, 221, 222, 223, 224, 225, 226, 227, 228, 229, 230, 231, 232, 233, 234, 235, 236, 237, 238, 239, 240, 241, 242, 243, 244, 245, 246, 247, 248, 249, 250, 251, 252, 253, 254, 255, 256, 257, 258, 259, 260, 261, 262, 263, 264, 265, 266, 267, 268, 269, 270, 271, 272, 273, 274, 275, 276, 277, 278, 279, 280, 281, 282, 283, 284, 285, 286, 287, 288, 289, 290, 291, 292, 293, 294, 295, 296, 297, 298, 299, 300, 301, 302, 303, 304, 305, 306, 307, 308, 309, 310, 311, 312, 313, 314, 315, 316, 317, 318, 319, 320, 321, 322, 323, 324, 325, 326, 327, 328, 329, 330, 331, 332, 333, 334, 335, 336, 337, 338, 339, 340, 341, 342, 343, 344, 345, 346, 347, 348, 349, 350, 351, 352, 353, 354, 355, 356, 357, 358, 359, 360, 361, 362, 363, 364, 365, 366, 367, 368, 369, 370, 371, 372, 373, 374, 375, 376, 377, 378, 379, 380, 381, 382, 383, 384, 385, 386, 387, 388, 389, 390, 391, 392, 393, 394, 395, 396, 397, 398, 399, 400, 401, 402, 403, 404, 405, 406, 407, 408, 409, 410, 411, 412, 413, 414, 415, 416, 417, 418, 419, 420, 421, 422, 423, 424, 425, 426, 427, 428, 429, 430, 431, 432, 433, 434, 435, 436, 437, 438, 439, 440, 441, 442, 443, 444, 445, 446, 447, 448, 449, 450, 451, 452, 453, 454, 455, 456, 457, 458, 459, 460, 461, 462, 463, 464, 465, 466, 467, 468, 469, 470, 471, 472, 473, 474, 475, 476, 477, 478, 479, 480, 481, 482, 483, 484, 485, 486, 487, 488, 489, 490, 491, 492, 493, 494, 495, 496, 497, 498, 499, 500, 501, 502, 503, 504, 505, 506, 507, 508, 509, 510, 511, 512, 513, 514, 515, 516, 517, 518, 519, 520, 521, 522, 523, 524, 525, 526, 527, 528, 529, 530, 531, 532, 533, 534, 535, 536, 537, 538, 539, 540, 541, 542, 543, 544, 545, 546, 547, 548, 549, 550, 551, 552, 553, 554, 555, 556, 557, 558, 559, 560, 561, 562, 563, 564, 565, 566, 567, 568, 569, 570, 571, 572, 573, 574, 575, 576, 577, 578, 579, 580, 581],
      "AcquisitionTime": ["115431.732500", "115432.520000", "115433.310000", "115434.097500", "115434.885000", "115435.672500", "115436.462500", "115437.250000", "115438.037500", "115438.825000", "115439.615000", "115440.402500", "115441.190000", "115441.980000", "115442.767500", "115443.555000", "115444.342500", "115445.132500", "115445.920000", "115446.707500", "115447.495000", "115448.285000", "115449.072500", "115449.860000", "115450.647500", "115451.437500", "115452.225000", "115453.012500", "115453.800000", "115454.590000", "115455.377500", "115456.165000", "115456.952500", "115457.742500", "115458.530000", "115459.317500", "115500.107500", "115500.895000", "115501.682500", "115502.470000", "115503.260000", "115504.047500", "115504.835000", "115505.622500", "115506.412500", "115507.200000", "115507.987500", "115508.775000", "115509.565000", "115510.352500", "115511.140000", "115511.927500", "115512.717500", "115513.505000", "115514.292500", "115515.080000", "115515.870000", "115516.657500", "115517.445000", "115518.235000", "115519.022500", "115519.810000", "115520.597500", "115521.387500", "115522.175000", "115522.962500", "115523.750000", "115524.540000", "115525.327500", "115526.115000", "115526.902500", "115527.692500", "115528.480000", "115529.267500", "115530.055000", "115530.845000", "115531.632500", "115532.420000", "115533.207500", "115533.997500", "115534.785000", "115535.572500", "115536.362500", "115537.150000", "115537.937500", "115538.725000", "115539.515000", "115540.302500", "115541.090000", "115541.877500", "115542.667500", "115543.455000", "115544.242500", "115545.030000", "115545.820000", "115546.607500", "115547.395000", "115548.182500", "115548.972500", "115549.760000", "115550.547500", "115551.335000", "115552.125000", "115552.912500", "115553.700000", "115554.490000", "115555.277500", "115556.065000", "115556.852500", "115557.642500", "115558.430000", "115559.217500", "115600.005000", "115600.795000", "115601.582500", "115602.370000", "115603.157500", "115603.947500", "115604.735000", "115605.522500", "115606.310000", "115607.100000", "115607.887500", "115608.675000", "115609.462500", "115610.252500", "115611.040000", "115611.827500", "115612.617500", "115613.405000", "115614.192500", "115614.980000", "115615.770000", "115616.557500", "115617.345000", "115618.132500", "115618.922500", "115619.710000", "115620.497500", "115621.285000", "115622.075000", "115622.862500", "115623.650000", "115624.437500", "115625.227500", "115626.015000", "115626.802500", "115627.590000", "115628.380000", "115629.167500", "115629.955000", "115630.745000", "115631.532500", "115632.320000", "115633.107500", "115633.897500", "115634.685000", "115635.472500", "115636.260000", "115637.050000", "115637.837500", "115638.625000", "115639.412500", "115640.202500", "115640.990000", "115641.777500", "115642.565000", "115643.355000", "115644.142500", "115644.930000", "115645.717500", "115646.507500", "115647.295000", "115648.082500", "115648.872500", "115649.660000", "115650.447500", "115651.235000", "115652.025000", "115652.812500", "115653.600000", "115654.387500", "115655.177500", "115655.965000", "115656.752500", "115657.540000", "115658.330000", "115659.117500", "115659.905000", "115700.692500", "115701.482500", "115702.270000", "115703.057500", "115703.845000", "115704.635000", "115705.422500", "115706.210000", "115707.000000", "115707.787500", "115708.575000", "115709.362500", "115710.152500", "115710.940000", "115711.727500", "115712.515000", "115713.305000", "115714.092500", "115714.880000", "115715.667500", "115716.457500", "115717.245000", "115718.032500", "115718.820000", "115719.610000", "115720.397500", "115721.185000", "115721.972500", "115722.762500", "115723.550000", "115724.337500", "115725.127500", "115725.915000", "115726.702500", "115727.490000", "115728.280000", "115729.067500", "115729.855000", "115730.642500", "115731.432500", "115732.220000", "115733.007500", "115733.795000", "115734.585000", "115735.372500", "115736.160000", "115736.947500", "115737.737500", "115738.525000", "115739.312500", "115740.100000", "115740.890000", "115741.677500", "115742.465000", "115743.255000", "115744.042500", "115744.830000", "115745.617500", "115746.407500", "115747.195000", "115747.982500", "115748.770000", "115749.560000", "115750.347500", "115751.135000", "115751.922500", "115752.712500", "115753.500000", "115754.287500", "115755.075000", "115755.865000", "115756.652500", "115757.440000", "115758.230000", "115759.017500", "115759.805000", "115800.592500", "115801.382500", "115802.170000", "115802.957500", "115803.745000", "115804.535000", "115805.322500", "115806.110000", "115806.897500", "115807.687500", "115808.475000", "115809.262500", "115810.050000", "115810.840000", "115811.627500", "115812.415000", "115813.202500", "115813.992500", "115814.780000", "115815.567500", "115816.357500", "115817.145000", "115817.932500", "115818.720000", "115819.510000", "115820.297500", "115821.085000", "115821.872500", "115822.662500", "115823.450000", "115824.237500", "115825.025000", "115825.815000", "115826.602500", "115827.390000", "115828.177500", "115828.967500", "115829.755000", "115830.542500", "115831.330000", "115832.120000", "115832.907500", "115833.695000", "115834.485000", "115835.272500", "115836.060000", "115836.847500", "115837.637500", "115838.425000", "115839.212500", "115840.000000", "115840.790000", "115841.577500", "115842.365000", "115843.152500", "115843.942500", "115844.730000", "115845.517500", "115846.305000", "115847.095000", "115847.882500", "115848.670000", "115849.457500", "115850.247500", "115851.035000", "115851.822500", "115852.612500", "115853.400000", "115854.187500", "115854.975000", "115855.765000", "115856.552500", "115857.340000", "115858.127500", "115858.917500", "115859.705000", "115900.492500", "115901.280000", "115902.070000", "115902.857500", "115903.645000", "115904.432500", "115905.222500", "115906.010000", "115906.797500", "115907.585000", "115908.375000", "115909.162500", "115909.950000", "115910.740000", "115911.527500", "115912.315000", "115913.102500", "115913.892500", "115914.680000", "115915.467500", "115916.255000", "115917.045000", "115917.832500", "115918.620000", "115919.407500", "115920.197500", "115920.985000", "115921.772500", "115922.560000", "115923.350000", "115924.137500", "115924.925000", "115925.712500", "115926.502500", "115927.290000", "115928.077500", "115928.867500", "115929.655000", "115930.442500", "115931.230000", "115932.020000", "115932.807500", "115933.595000", "115934.382500", "115935.172500", "115935.960000", "115936.747500", "115937.535000", "115938.325000", "115939.112500", "115939.900000", "115940.687500", "115941.477500", "115942.265000", "115943.052500", "115943.840000", "115944.630000", "115945.417500", "115946.205000", "115946.995000", "115947.782500", "115948.570000", "115949.357500", "115950.147500", "115950.935000", "115951.722500", "115952.510000", "115953.300000", "115954.087500", "115954.875000", "115955.662500", "115956.452500", "115957.240000", "115958.027500", "115958.815000", "115959.605000", "120000.392500", "120001.180000", "120001.967500", "120002.757500", "120003.545000", "120004.332500", "120005.122500", "120005.910000", "120006.697500", "120007.485000", "120008.275000", "120009.062500", "120009.850000", "120010.637500", "120011.427500", "120012.215000", "120013.002500", "120013.790000", "120014.580000", "120015.367500", "120016.155000", "120016.942500", "120017.732500", "120018.520000", "120019.307500", "120020.095000", "120020.885000", "120021.672500", "120022.460000", "120023.250000", "120024.037500", "120024.825000", "120025.612500", "120026.402500", "120027.190000", "120027.977500", "120028.765000", "120029.555000", "120030.342500", "120031.130000", "120031.917500", "120032.707500", "120033.495000", "120034.282500", "120035.070000", "120035.860000", "120036.647500", "120037.435000", "120038.222500", "120039.012500", "120039.800000", "120040.587500", "120041.377500", "120042.165000", "120042.952500", "120043.740000", "120044.530000", "120045.317500", "120046.105000", "120046.892500", "120047.682500", "120048.470000", "120049.257500", "120050.045000", "120050.835000", "120051.622500", "120052.410000", "120053.197500", "120053.987500", "120054.775000", "120055.562500", "120056.350000", "120057.140000", "120057.927500", "120058.715000", "120059.505000", "120100.292500", "120101.080000", "120101.867500", "120102.657500", "120103.445000", "120104.232500", "120105.020000", "120105.810000", "120106.597500", "120107.385000", "120108.172500", "120108.962500", "120109.750000", "120110.537500", "120111.325000", "120112.115000", "120112.902500", "120113.690000", "120114.480000", "120115.267500", "120116.055000", "120116.842500", "120117.632500", "120118.420000", "120119.207500", "120119.995000", "120120.785000", "120121.572500", "120122.360000", "120123.147500", "120123.937500", "120124.725000", "120125.512500", "120126.300000", "120127.090000", "120127.877500", "120128.665000", "120129.452500", "120130.242500", "120131.030000", "120131.817500", "120132.607500", "120133.395000", "120134.182500", "120134.970000", "120135.760000", "120136.547500", "120137.335000", "120138.122500", "120138.912500", "120139.700000", "120140.487500", "120141.275000", "120142.065000", "120142.852500", "120143.640000", "120144.427500", "120145.217500", "120146.005000", "120146.792500", "120147.580000", "120148.370000", "120149.157500", "120149.945000", "120150.735000", "120151.522500", "120152.310000", "120153.097500", "120153.887500", "120154.675000", "120155.462500", "120156.250000", "120157.040000", "120157.827500", "120158.615000", "120159.402500", "120200.192500", "120200.980000", "120201.767500", "120202.555000", "120203.345000", "120204.132500", "120204.920000", "120205.707500", "120206.497500", "120207.285000", "120208.072500", "120208.862500"],
      "ContentTime": ["115501.718000", "115501.718000", "115501.718000", "115501.718000", "115501.718000", "115501.718000", "115501.734000", "115501.734000", "115501.734000", "115501.734000", "115501.734000", "115501.734000", "115501.734000", "115501.750000", "115501.750000", "115501.750000", "115501.750000", "115501.750000", "115501.750000", "115501.750000", "115501.750000", "115501.765000", "115501.765000", "115501.765000", "115501.765000", "115501.765000", "115501.765000", "115501.765000", "115501.781000", "115501.781000", "115501.781000", "115501.781000", "115501.781000", "115501.781000", "115501.781000", "115521.687000", "115521.687000", "115521.687000", "115521.687000", "115521.687000", "115521.703000", "115521.703000", "115521.703000", "115521.703000", "115521.703000", "115521.703000", "115521.703000", "115521.718000", "115521.718000", "115521.718000", "115521.718000", "115521.718000", "115521.718000", "115521.718000", "115521.718000", "115521.734000", "115521.734000", "115521.734000", "115521.734000", "115521.734000", "115541.687000", "115541.687000", "115541.687000", "115541.687000", "115541.687000", "115541.703000", "115541.703000", "115541.703000", "115541.703000", "115541.703000", "115541.703000", "115541.703000", "115541.703000", "115541.718000", "115541.718000", "115541.718000", "115541.718000", "115541.718000", "115541.718000", "115541.718000", "115541.734000", "115541.734000", "115541.734000", "115541.734000", "115541.734000", "115541.734000", "115601.687000", "115601.687000", "115601.687000", "115601.687000", "115601.687000", "115601.703000", "115601.703000", "115601.703000", "115601.703000", "115601.703000", "115601.703000", "115601.703000", "115601.703000", "115601.718000", "115601.718000", "115601.718000", "115601.718000", "115601.718000", "115601.718000", "115601.718000", "115601.718000", "115601.734000", "115601.734000", "115601.734000", "115601.734000", "115621.687000", "115621.687000", "115621.687000", "115621.687000", "115621.687000", "115621.703000", "115621.703000", "115621.703000", "115621.703000", "115621.703000", "115621.703000", "115621.703000", "115621.703000", "115621.718000", "115621.718000", "115621.718000", "115621.718000", "115621.718000", "115621.718000", "115621.718000", "115621.718000", "115621.734000", "115621.734000", "115621.734000", "115621.734000", "115621.734000", "115641.687000", "115641.687000", "115641.687000", "115641.687000", "115641.687000", "115641.703000", "115641.703000", "115641.703000", "115641.703000", "115641.703000", "115641.703000", "115641.703000", "115641.703000", "115641.718000", "115641.718000", "115641.718000", "115641.718000", "115641.718000", "115641.718000", "115641.718000", "115641.718000", "115641.734000", "115641.734000", "115641.734000", "115641.734000", "115701.687000", "115701.687000", "115701.687000", "115701.687000", "115701.687000", "115701.703000", "115701.703000", "115701.703000", "115701.703000", "115701.703000", "115701.703000", "115701.703000", "115701.703000", "115701.718000", "115701.718000", "115701.718000", "115701.718000", "115701.718000", "115701.718000", "115701.718000", "115701.734000", "115701.734000", "115701.734000", "115701.734000", "115701.734000", "115701.734000", "115721.687000", "115721.687000", "115721.687000", "115721.687000", "115721.687000", "115721.703000", "115721.703000", "115721.703000", "115721.703000", "115721.703000", "115721.703000", "115721.703000", "115721.703000", "115721.718000", "115721.718000", "115721.718000", "115721.718000", "115721.718000", "115721.718000", "115721.718000", "115721.718000", "115721.734000", "115721.734000", "115721.734000", "115721.734000", "115741.687000", "115741.687000", "115741.687000", "115741.687000", "115741.687000", "115741.703000", "115741.703000", "115741.703000", "115741.703000", "115741.703000", "115741.703000", "115741.703000", "115741.703000", "115741.718000", "115741.718000", "115741.718000", "115741.718000", "115741.718000", "115741.718000", "115741.718000", "115741.718000", "115741.734000", "115741.734000", "115741.734000", "115741.734000", "115741.734000", "115801.687000", "115801.687000", "115801.687000", "115801.687000", "115801.687000", "115801.703000", "115801.703000", "115801.703000", "115801.703000", "115801.703000", "115801.703000", "115801.703000", "115801.703000", "115801.718000", "115801.718000", "115801.718000", "115801.718000", "115801.718000", "115801.718000", "115801.718000", "115801.718000", "115801.734000", "115801.734000", "115801.734000", "115801.734000", "115821.687000", "115821.687000", "115821.687000", "115821.687000", "115821.687000", "115821.703000", "115821.703000", "115821.703000", "115821.703000", "115821.703000", "115821.703000", "115821.703000", "115821.703000", "115821.718000", "115821.718000", "115821.718000", "115821.718000", "115821.718000", "115821.718000", "115821.718000", "115821.734000", "115821.734000", "115821.734000", "115821.734000", "115821.734000", "115821.734000", "115841.687000", "115841.687000", "115841.687000", "115841.687000", "115841.687000", "115841.703000", "115841.703000", "115841.703000", "115841.703000", "115841.703000", "115841.703000", "115841.703000", "115841.703000", "115841.718000", "115841.718000", "115841.718000", "115841.718000", "115841.718000", "115841.718000", "115841.718000", "115841.734000", "115841.734000", "115841.734000", "115841.734000", "115841.734000", "115901.687000", "115901.687000", "115901.687000", "115901.687000", "115901.687000", "115901.703000", "115901.703000", "115901.703000", "115901.703000", "115901.703000", "115901.703000", "115901.703000", "115901.703000", "115901.718000", "115901.718000", "115901.718000", "115901.718000", "115901.718000", "115901.718000", "115901.718000", "115901.734000", "115901.734000", "115901.734000", "115901.734000", "115901.734000", "115901.734000", "115921.687000", "115921.687000", "115921.687000", "115921.687000", "115921.687000", "115921.703000", "115921.703000", "115921.703000", "115921.703000", "115921.703000", "115921.703000", "115921.703000", "115921.703000", "115921.718000", "115921.718000", "115921.718000", "115921.718000", "115921.718000", "115921.718000", "115921.718000", "115921.734000", "115921.734000", "115921.734000", "115921.734000", "115921.734000", "115941.687000", "115941.687000", "115941.687000", "115941.687000", "115941.687000", "115941.703000", "115941.703000", "115941.703000", "115941.703000", "115941.703000", "115941.703000", "115941.703000", "115941.703000", "115941.718000", "115941.718000", "115941.718000", "115941.718000", "115941.718000", "115941.718000", "115941.718000", "115941.734000", "115941.734000", "115941.734000", "115941.734000", "115941.734000", "115941.734000", "120001.687000", "120001.687000", "120001.687000", "120001.687000", "120001.687000", "120001.703000", "120001.703000", "120001.703000", "120001.703000", "120001.703000", "120001.703000", "120001.703000", "120001.703000", "120001.718000", "120001.718000", "120001.718000", "120001.718000", "120001.718000", "120001.718000", "120001.718000", "120001.734000", "120001.734000", "120001.734000", "120001.734000", "120001.734000", "120021.687000", "120021.687000", "120021.687000", "120021.687000", "120021.687000", "120021.703000", "120021.703000", "120021.703000", "120021.703000", "120021.703000", "120021.703000", "120021.703000", "120021.718000", "120021.718000", "120021.718000", "120021.718000", "120021.718000", "120021.718000", "120021.718000", "120021.718000", "120021.734000", "120021.734000", "120021.734000", "120021.734000", "120021.734000", "120021.734000", "120041.687000", "120041.687000", "120041.687000", "120041.687000", "120041.687000", "120041.703000", "120041.703000", "120041.703000", "120041.703000", "120041.703000", "120041.703000", "120041.703000", "120041.718000", "120041.718000", "120041.718000", "120041.718000", "120041.718000", "120041.718000", "120041.718000", "120041.718000", "120041.734000", "120041.734000", "120041.734000", "120041.734000", "120041.734000", "120101.687000", "120101.687000", "120101.687000", "120101.687000", "120101.687000", "120101.703000", "120101.703000", "120101.703000", "120101.703000", "120101.703000", "120101.703000", "120101.703000", "120101.703000", "120101.718000", "120101.718000", "120101.718000", "120101.718000", "120101.718000", "120101.718000", "120101.718000", "120101.718000", "120101.734000", "120101.734000", "120101.734000", "120101.734000", "120101.734000", "120121.687000", "120121.687000", "120121.687000", "120121.687000", "120121.687000", "120121.703000", "120121.703000", "120121.703000", "120121.703000", "120121.703000", "120121.703000", "120121.703000", "120121.718000", "120121.718000", "120121.718000", "120121.718000", "120121.718000", "120121.718000", "120121.718000", "120121.718000", "120121.734000", "120121.734000", "120121.734000", "120121.734000", "120121.734000", "120141.687000", "120141.687000", "120141.687000", "120141.687000", "120141.687000", "120141.703000", "120141.703000", "120141.703000", "120141.703000", "120141.703000", "120141.703000", "120141.718000", "120141.718000", "120141.718000", "120141.718000", "120141.718000", "120141.718000", "120141.718000", "120141.718000", "120141.734000", "120141.734000", "120141.734000", "120141.734000", "120141.734000", "120141.734000", "120201.687000", "120201.687000", "120201.687000", "120201.687000", "120201.687000", "120201.703000", "120201.703000", "120201.703000", "120201.703000", "120201.703000", "120201.703000", "120201.703000", "120201.703000", "120201.718000", "120201.718000", "120201.718000", "120201.718000", "120201.718000", "120201.718000", "120201.718000", "120201.734000", "120201.734000", "120201.734000", "120201.734000", "120201.734000", "120201.734000", "120210.015000", "120210.015000", "120210.031000", "120210.031000", "120210.031000", "120210.031000", "120210.031000", "120210.031000", "120210.031000", "120210.046000", "120210.046000"],
