{
  "AcquisitionMatrixPE": 104,
  "AcquisitionNumber": 1,
  "AcquisitionTime": "14:17:4.732500",
  "BandwidthPerPixelPhaseEncode": 13.935,
  "BaseResolution": 104,
  "CoilString": "C:HEA;HEP",
  "ConversionSoftware": "dcm2niix",
  "ConversionSoftwareVersion": "v1.0.20210317",
  "DerivedVendorReportedEchoSpacing": 0.000690017,
  "DeviceSerialNumber": "35450",
  "DwellTime": 2.5e-06,
  "EchoTime": 0.0348,
  "EffectiveEchoSpacing": 0.000690017,
  "FlipAngle": 55,
  "ImageComments": "Unaliased MB8/PE3 (remote)",
  "ImageOrientationPatientDICOM": [1, 6.84196e-05, -0.000955351, 1.68566e-08, 0.997444, 0.0714518],
  "ImageType": [
    "ORIGINAL",
    "PRIMARY",
    "M",
    "MB",
    "ND",
    "MOSAIC"
],
  "ImagingFrequency": 123.234,
  "InPlanePhaseEncodingDirectionDICOM": "COL",
  "InstitutionAddress": "Univeristy Ave. 197,Newark,North East,US,07102-1814",
  "InstitutionName": "RUBIC",
  "InstitutionalDepartmentName": "Department",
  "MRAcquisitionType": "2D",
  "MagneticFieldStrength": 3,
  "Manufacturer": "Siemens",
  "ManufacturersModelName": "TrioTim",
  "Modality": "MR",
  "MultibandAccelerationFactor": 8,
  "PartialFourier": 0.875,
  "PatientPosition": "HFS",
  "PercentPhaseFOV": 100,
  "PercentSampling": 100,
  "PhaseEncodingDirection": "j-",
  "PhaseEncodingSteps": 91,
  "PhaseResolution": 1,
  "PixelBandwidth": 1923,
  "ProcedureStepDescription": "Cole^Michael",
  "ProtocolName": "cmrr_mbep2d_bold_2mm_MB8_Rest",
  "PulseSequenceDetails": "%CustomerSeq%\\cmrr_mbep2d_bold",
  "ReceiveCoilName": "32Ch_Head",
  "ReconMatrixPE": 104,
  "RepetitionTime": 0.785,
  "SAR": 0.126667,
  "ScanOptions": "PFP\\FS",
  "ScanningSequence": "EP",
  "SequenceName": "epfid2d1_104",
  "SequenceVariant": "SK\\SS",
  "SeriesDescription": "cmrr_mbep2d_bold_2mm_MB8_Rest",
  "SeriesNumber": 9,
  "ShimSetting": [2146, -462, -7262, 656, 43, -217, 95, -110],
  "SliceThickness": 2,
  "SliceTiming": [0, 0.4375, 0.0875, 0.525, 0.175, 0.6125, 0.2625, 0.7, 0.35, 0, 0.4375, 0.0875, 0.525, 0.175, 0.6125, 0.2625, 0.7, 0.35, 0, 0.4375, 0.0875, 0.525, 0.175, 0.6125, 0.2625, 0.7, 0.35, 0, 0.4375, 0.0875, 0.525, 0.175, 0.6125, 0.2625, 0.7, 0.35, 0, 0.4375, 0.0875, 0.525, 0.175, 0.6125, 0.2625, 0.7, 0.35, 0, 0.4375, 0.0875, 0.525, 0.175, 0.6125, 0.2625, 0.7, 0.35, 0, 0.4375, 0.0875, 0.525, 0.175, 0.6125, 0.2625, 0.7, 0.35, 0, 0.4375, 0.0875, 0.525, 0.175, 0.6125, 0.2625, 0.7, 0.35],
  "SoftwareVersions": "syngo MR B19",
  "SpacingBetweenSlices": 2,
  "StationName": "MRC35450",
  "TaskName": "rest",
  "TotalReadoutTime": 0.0710717,
  "TxRefAmp": 319.123,
  "dcmmeta_affine": [
    [-1.9999990463256836, 3.371319223788305e-08, -0.0019155960762873292, 103.4375228881836],
    [-0.00013683915312867612, 1.9948880672454834, 0.14290353655815125, -90.49109649658203],
    [-0.0019107023254036903, -0.14290359616279602, 1.9948872327804565, -76.42567443847656],
    [0.0, 0.0, 0.0, 1.0]
],
  "dcmmeta_reorient_transform": [
    [0.0, -1.0, 0.0, 103.0],
    [1.0, 0.0, 0.0, 0.0],
    [0.0, 0.0, 1.0, 0.0],
    [0.0, 0.0, 0.0, 1.0]
],
  "dcmmeta_shape": [104, 104, 72, 1070],
  "dcmmeta_slice_dim": 2,
  "dcmmeta_version": 0.6,
  "global": {
    "const": {
      "AcquisitionMatrix": [104, 0, 0, 104],
      "AngioFlag": "N",
      "BitsAllocated": 16,
      "BitsStored": 12,
      "Columns": 936,
      "EchoNumbers": 1,
      "EchoTime": 34.8,
      "EchoTrainLength": 1,
      "FlipAngle": 55.0,
      "HighBit": 11,
      "ImageOrientationPatient": [0.99999954131135, 6.841958003e-05, -0.0009553511626, 1.6856596e-08, 0.99744405373379, 0.07145179963515],
      "ImagePositionPatient": [-935.43715761314, -944.91275530586, -149.79779375128],
      "ImageType": [
        "ORIGINAL",
        "PRIMARY",
        "M",
        "MB",
        "ND",
        "MOSAIC"
],
      "ImagedNucleus": "1H",
      "ImagingFrequency": 123.234382,
      "InPlanePhaseEncodingDirection": "COL",
      "MRAcquisitionType": "2D",
      "MagneticFieldStrength": 3.0,
      "Manufacturer": "SIEMENS",
      "ManufacturerModelName": "TrioTim",
      "Modality": "MR",
      "NumberOfAverages": 1.0,
      "NumberOfPhaseEncodingSteps": 91,
      "PercentPhaseFieldOfView": 100.0,
      "PercentSampling": 100.0,
      "PerformedProcedureStepStartTime": "135118.468000",
      "PhotometricInterpretation": "MONOCHROME2",
      "PixelBandwidth": 1923.0,
      "PixelRepresentation": 0,
      "PixelSpacing": [2.0, 2.0],
      "ProtocolName": "cmrr_mbep2d_bold_2mm_MB8_Rest",
      "RepetitionTime": 785.0,
      "Rows": 936,
      "SAR": 0.1266671618418,
      "SamplesPerPixel": 1,
      "ScanOptions": [
        "PFP",
        "FS"
],
      "ScanningSequence": "EP",
      "SequenceName": "epfid2d1_104",
      "SequenceVariant": [
        "SK",
        "SS"
],
      "SeriesDescription": "cmrr_mbep2d_bold_2mm_MB8_Rest",
      "SeriesNumber": 9,
      "SeriesTime": "141734.203000",
      "SliceLocation": -82.795124067893,
      "SliceThickness": 2.0,
      "SmallestImagePixelValue": 0,
      "SoftwareVersions": "syngo MR B19",
      "SpacingBetweenSlices": 1.9999999856299,
      "SpecificCharacterSet": "ISO_IR 100",
      "StudyID": "1",
      "StudyTime": "135118.390000",
      "TransmitCoilName": "Body",
      "VariableFlipAngleFlag": "N",
      "WindowCenterWidthExplanation": "Algo1",
      "dBdt": 0.0},
    "slices": {}
  },
  "time": {
    "samples": {
      "AcquisitionNumber": [1, 2, 3, 4, 5, 6, 7, 8, 9, 10, 11, 12, 13, 14, 15, 16, 17, 18, 19, 20, 21, 22, 23, 24, 25, 26, 27, 28, 29, 30, 31, 32, 33, 34, 35, 36, 37, 38, 39, 40, 41, 42, 43, 44, 45, 46, 47, 48, 49, 50, 51, 52, 53, 54, 55, 56, 57, 58, 59, 60, 61, 62, 63, 64, 65, 66, 67, 68, 69, 70, 71, 72, 73, 74, 75, 76, 77, 78, 79, 80, 81, 82, 83, 84, 85, 86, 87, 88, 89, 90, 91, 92, 93, 94, 95, 96, 97, 98, 99, 100, 101, 102, 103, 104, 105, 106, 107, 108, 109, 110, 111, 112, 113, 114, 115, 116, 117, 118, 119, 120, 121, 122, 123, 124, 125, 126, 127, 128, 129, 130, 131, 132, 133, 134, 135, 136, 137, 138, 139, 140, 141, 142, 143, 144, 145, 146, 147, 148, 149, 150, 151, 152, 153, 154, 155, 156, 157, 158, 159, 160, 161, 162, 163, 164, 165, 166, 167, 168, 169, 170, 171, 172, 173, 174, 175, 176, 177, 178, 179, 180, 181, 182, 183, 184, 185, 186, 187, 188, 189, 190, 191, 192, 193, 194, 195, 196, 197, 198, 199, 200, 201, 202, 203, 204, 205, 206, 207, 208, 209, 210, 211, 212, 213, 214, 215, 216, 217, 218, 219, 220, 221, 222, 223, 224, 225, 226, 227, 228, 229, 230, 231, 232, 233, 234, 235, 236, 237, 238, 239, 240, 241, 242, 243, 244, 245, 246, 247, 248, 249, 250, 251, 252, 253, 254, 255, 256, 257, 258, 259, 260, 261, 262, 263, 264, 265, 266, 267, 268, 269, 270, 271, 272, 273, 274, 275, 276, 277, 278, 279, 280, 281, 282, 283, 284, 285, 286, 287, 288, 289, 290, 291, 292, 293, 294, 295, 296, 297, 298, 299, 300, 301, 302, 303, 304, 305, 306, 307, 308, 309, 310, 311, 312, 313, 314, 315, 316, 317, 318, 319, 320, 321, 322, 323, 324, 325, 326, 327, 328, 329, 330, 331, 332, 333, 334, 335, 336, 337, 338, 339, 340, 341, 342, 343, 344, 345, 346, 347, 348, 349, 350, 351, 352, 353, 354, 355, 356, 357, 358, 359, 360, 361, 362, 363, 364, 365, 366, 367, 368, 369, 370, 371, 372, 373, 374, 375, 376, 377, 378, 379, 380, 381, 382, 383, 384, 385, 386, 387, 388, 389, 390, 391, 392, 393, 394, 395, 396, 397, 398, 399, 400, 401, 402, 403, 404, 405, 406, 407, 408, 409, 410, 411, 412, 413, 414, 415, 416, 417, 418, 419, 420, 421, 422, 423, 424, 425, 426, 427, 428, 429, 430, 431, 432, 433, 434, 435, 436, 437, 438, 439, 440, 441, 442, 443, 444, 445, 446, 447, 448, 449, 450, 451, 452, 453, 454, 455, 456, 457, 458, 459, 460, 461, 462, 463, 464, 465, 466, 467, 468, 469, 470, 471, 472, 473, 474, 475, 476, 477, 478, 479, 480, 481, 482, 483, 484, 485, 486, 487, 488, 489, 490, 491, 492, 493, 494, 495, 496, 497, 498, 499, 500, 501, 502, 503, 504, 505, 506, 507, 508, 509, 510, 511, 512, 513, 514, 515, 516, 517, 518, 519, 520, 521, 522, 523, 524, 525, 526, 527, 528, 529, 530, 531, 532, 533, 534, 535, 536, 537, 538, 539, 540, 541, 542, 543, 544, 545, 546, 547, 548, 549, 550, 551, 552, 553, 554, 555, 556, 557, 558, 559, 560, 561, 562, 563, 564, 565, 566, 567, 568, 569, 570, 571, 572, 573, 574, 575, 576, 577, 578, 579, 580, 581, 582, 583, 584, 585, 586, 587, 588, 589, 590, 591, 592, 593, 594, 595, 596, 597, 598, 599, 600, 601, 602, 603, 604, 605, 606, 607, 608, 609, 610, 611, 612, 613, 614, 615, 616, 617, 618, 619, 620, 621, 622, 623, 624, 625, 626, 627, 628, 629, 630, 631, 632, 633, 634, 635, 636, 637, 638, 639, 640, 641, 642, 643, 644, 645, 646, 647, 648, 649, 650, 651, 652, 653, 654, 655, 656, 657, 658, 659, 660, 661, 662, 663, 664, 665, 666, 667, 668, 669, 670, 671, 672, 673, 674, 675, 676, 677, 678, 679, 680, 681, 682, 683, 684, 685, 686, 687, 688, 689, 690, 691, 692, 693, 694, 695, 696, 697, 698, 699, 700, 701, 702, 703, 704, 705, 706, 707, 708, 709, 710, 711, 712, 713, 714, 715, 716, 717, 718, 719, 720, 721, 722, 723, 724, 725, 726, 727, 728, 729, 730, 731, 732, 733, 734, 735, 736, 737, 738, 739, 740, 741, 742, 743, 744, 745, 746, 747, 748, 749, 750, 751, 752, 753, 754, 755, 756, 757, 758, 759, 760, 761, 762, 763, 764, 765, 766, 767, 768, 769, 770, 771, 772, 773, 774, 775, 776, 777, 778, 779, 780, 781, 782, 783, 784, 785, 786, 787, 788, 789, 790, 791, 792, 793, 794, 795, 796, 797, 798, 799, 800, 801, 802, 803, 804, 805, 806, 807, 808, 809, 810, 811, 812, 813, 814, 815, 816, 817, 818, 819, 820, 821, 822, 823, 824, 825, 826, 827, 828, 829, 830, 831, 832, 833, 834, 835, 836, 837, 838, 839, 840, 841, 842, 843, 844, 845, 846, 847, 848, 849, 850, 851, 852, 853, 854, 855, 856, 857, 858, 859, 860, 861, 862, 863, 864, 865, 866, 867, 868, 869, 870, 871, 872, 873, 874, 875, 876, 877, 878, 879, 880, 881, 882, 883, 884, 885, 886, 887, 888, 889, 890, 891, 892, 893, 894, 895, 896, 897, 898, 899, 900, 901, 902, 903, 904, 905, 906, 907, 908, 909, 910, 911, 912, 913, 914, 915, 916, 917, 918, 919, 920, 921, 922, 923, 924, 925, 926, 927, 928, 929, 930, 931, 932, 933, 934, 935, 936, 937, 938, 939, 940, 941, 942, 943, 944, 945, 946, 947, 948, 949, 950, 951, 952, 953, 954, 955, 956, 957, 958, 959, 960, 961, 962, 963, 964, 965, 966, 967, 968, 969, 970, 971, 972, 973, 974, 975, 976, 977, 978, 979, 980, 981, 982, 983, 984, 985, 986, 987, 988, 989, 990, 991, 992, 993, 994, 995, 996, 997, 998, 999, 1000, 1001, 1002, 1003, 1004, 1005, 1006, 1007, 1008, 1009, 1010, 1011, 1012, 1013, 1014, 1015, 1016, 1017, 1018, 1019, 1020, 1021, 1022, 1023, 1024, 1025, 1026, 1027, 1028, 1029, 1030, 1031, 1032, 1033, 1034, 1035, 1036, 1037, 1038, 1039, 1040, 1041, 1042, 1043, 1044, 1045, 1046, 1047, 1048, 1049, 1050, 1051, 1052, 1053, 1054, 1055, 1056, 1057, 1058, 1059, 1060, 1061, 1062, 1063, 1064, 1065, 1066, 1067, 1068, 1069, 1070],
      "AcquisitionTime": ["141704.732500", "141705.520000", "141706.310000", "141707.097500", "141707.885000", "141708.675000", "141709.462500", "141710.250000", "141711.037500", "141711.827500", "141712.615000", "141713.402500", "141714.190000", "141714.980000", "141715.767500", "141716.555000", "141717.342500", "141718.132500", "141718.920000", "141719.707500", "141720.495000", "141721.285000", "141722.072500", "141722.860000", "141723.647500", "141724.437500", "141725.225000", "141726.012500", "141726.802500", "141727.590000", "141728.377500", "141729.165000", "141729.955000", "141730.742500", "141731.530000", "141732.317500", "141733.107500", "141733.895000", "141734.682500", "141735.470000", "141736.260000", "141737.047500", "141737.835000", "141738.622500", "141739.412500", "141740.200000", "141740.987500", "141741.775000", "141742.565000", "141743.352500", "141744.140000", "141744.930000", "141745.717500", "141746.505000", "141747.292500", "141748.082500", "141748.870000", "141749.657500", "141750.445000", "141751.235000", "141752.022500", "141752.810000", "141753.597500", "141754.387500", "141755.175000", "141755.962500", "141756.750000", "141757.540000", "141758.327500", "141759.115000", "141759.902500", "141800.692500", "141801.480000", "141802.267500", "141803.057500", "141803.845000", "141804.632500", "141805.420000", "141806.210000", "141806.997500", "141807.785000", "141808.572500", "141809.362500", "141810.150000", "141810.937500", "141811.725000", "141812.515000", "141813.302500", "141814.090000", "141814.877500", "141815.667500", "141816.455000", "141817.242500", "141818.030000", "141818.820000", "141819.607500", "141820.395000", "141821.185000", "141821.972500", "141822.760000", "141823.547500", "141824.337500", "141825.125000", "141825.912500", "141826.700000", "141827.490000", "141828.277500", "141829.065000", "141829.852500", "141830.642500", "141831.430000", "141832.217500", "141833.005000", "141833.795000", "141834.582500", "141835.370000", "141836.157500", "141836.947500", "141837.735000", "141838.522500", "141839.312500", "141840.100000", "141840.887500", "141841.675000", "141842.465000", "141843.252500", "141844.040000", "141844.827500", "141845.617500", "141846.405000", "141847.192500", "141847.980000", "141848.770000", "141849.557500", "141850.345000", "141851.132500", "141851.922500", "141852.710000", "141853.497500", "141854.285000", "141855.075000", "141855.862500", "141856.650000", "141857.440000", "141858.227500", "141859.015000", "141859.802500", "141900.592500", "141901.380000", "141902.167500", "141902.955000", "141903.745000", "141904.532500", "141905.320000", "141906.107500", "141906.897500", "141907.685000", "141908.472500", "141909.260000", "141910.050000", "141910.837500", "141911.625000", "141912.412500", "141913.202500", "141913.990000", "141914.777500", "141915.567500", "141916.355000", "141917.142500", "141917.930000", "141918.720000", "141919.507500", "141920.295000", "141921.082500", "141921.872500", "141922.660000", "141923.447500", "141924.235000", "141925.025000", "141925.812500", "141926.600000", "141927.387500", "141928.177500", "141928.965000", "141929.752500", "141930.540000", "141931.330000", "141932.117500", "141932.905000", "141933.695000", "141934.482500", "141935.270000", "141936.057500", "141936.847500", "141937.635000", "141938.422500", "141939.210000", "141940.000000", "141940.787500", "141941.575000", "141942.362500", "141943.152500", "141943.940000", "141944.727500", "141945.515000", "141946.305000", "141947.092500", "141947.880000", "141948.667500", "141949.457500", "141950.245000", "141951.032500", "141951.822500", "141952.610000", "141953.397500", "141954.185000", "141954.975000", "141955.762500", "141956.550000", "141957.337500", "141958.127500", "141958.915000", "141959.702500", "142000.490000", "142001.280000", "142002.067500", "142002.855000", "142003.642500", "142004.432500", "142005.220000", "142006.007500", "142006.797500", "142007.585000", "142008.372500", "142009.160000", "142009.950000", "142010.737500", "142011.525000", "142012.312500", "142013.102500", "142013.890000", "142014.677500", "142015.465000", "142016.255000", "142017.042500", "142017.830000", "142018.617500", "142019.407500", "142020.195000", "142020.982500", "142021.770000", "142022.560000", "142023.347500", "142024.135000", "142024.925000", "142025.712500", "142026.500000", "142027.287500", "142028.077500", "142028.865000", "142029.652500", "142030.440000", "142031.230000", "142032.017500", "142032.805000", "142033.592500", "142034.382500", "142035.170000", "142035.957500", "142036.745000", "142037.535000", "142038.322500", "142039.110000", "142039.897500", "142040.687500", "142041.475000", "142042.262500", "142043.052500", "142043.840000", "142044.627500", "142045.415000", "142046.205000", "142046.992500", "142047.780000", "142048.567500", "142049.357500", "142050.145000", "142050.932500", "142051.720000", "142052.510000", "142053.297500", "142054.085000", "142054.872500", "142055.662500", "142056.450000", "142057.237500", "142058.025000", "142058.815000", "142059.602500", "142100.390000", "142101.180000", "142101.967500", "142102.755000", "142103.542500", "142104.332500", "142105.120000", "142105.907500", "142106.695000", "142107.485000", "142108.272500", "142109.060000", "142109.847500", "142110.637500", "142111.425000", "142112.212500", "142113.000000", "142113.790000", "142114.577500", "142115.365000", "142116.152500", "142116.942500", "142117.730000", "142118.517500", "142119.307500", "142120.095000", "142120.882500", "142121.670000", "142122.460000", "142123.247500", "142124.035000", "142124.822500", "142125.612500", "142126.400000", "142127.187500", "142127.975000", "142128.765000", "142129.552500", "142130.340000", "142131.127500", "142131.917500", "142132.705000", "142133.492500", "142134.280000", "142135.070000", "142135.857500", "142136.645000", "142137.435000", "142138.222500", "142139.010000", "142139.797500", "142140.587500", "142141.375000", "142142.162500", "142142.950000", "142143.740000", "142144.527500", "142145.315000", "142146.102500", "142146.892500", "142147.680000", "142148.467500", "142149.255000", "142150.045000", "142150.832500", "142151.620000", "142152.407500", "142153.197500", "142153.985000", "142154.772500", "142155.562500", "142156.350000", "142157.137500", "142157.925000", "142158.715000", "142159.502500", "142200.290000", "142201.077500", "142201.867500", "142202.655000", "142203.442500", "142204.230000", "142205.020000", "142205.807500", "142206.595000", "142207.382500", "142208.172500", "142208.960000", "142209.747500", "142210.535000", "142211.325000", "142212.112500", "142212.900000", "142213.690000", "142214.477500", "142215.265000", "142216.052500", "142216.842500", "142217.630000", "142218.417500", "142219.205000", "142219.995000", "142220.782500", "142221.570000", "142222.357500", "142223.147500", "142223.935000", "142224.722500", "142225.510000", "142226.300000", "142227.087500", "142227.875000", "142228.662500", "142229.452500", "142230.240000", "142231.027500", "142231.817500", "142232.605000", "142233.392500", "142234.180000", "142234.970000", "142235.757500", "142236.545000", "142237.332500", "142238.122500", "142238.910000", "142239.697500", "142240.485000", "142241.275000", "142242.062500", "142242.850000", "142243.637500", "142244.427500", "142245.215000", "142246.002500", "142246.790000", "142247.580000", "142248.367500", "142249.155000", "142249.945000", "142250.732500", "142251.520000", "142252.307500", "142253.097500", "142253.885000", "142254.672500", "142255.460000", "142256.250000", "142257.037500", "142257.825000", "142258.612500", "142259.402500", "142300.190000", "142300.977500", "142301.765000", "142302.555000", "142303.342500", "142304.130000", "142304.917500", "142305.707500", "142306.495000", "142307.282500", "142308.072500", "142308.860000", "142309.647500", "142310.435000", "142311.225000", "142312.012500", "142312.800000", "142313.587500", "142314.377500", "142315.165000", "142315.952500", "142316.740000", "142317.530000", "142318.317500", "142319.105000", "142319.892500", "142320.682500", "142321.470000", "142322.257500", "142323.047500", "142323.835000", "142324.622500", "142325.410000", "142326.200000", "142326.987500", "142327.775000", "142328.562500", "142329.352500", "142330.140000", "142330.927500", "142331.715000", "142332.505000", "142333.292500", "142334.080000", "142334.867500", "142335.657500", "142336.445000", "142337.232500", "142338.020000", "142338.810000", "142339.597500", "142340.385000", "142341.175000", "142341.962500", "142342.750000", "142343.537500", "142344.327500", "142345.115000", "142345.902500", "142346.690000", "142347.480000", "142348.267500", "142349.055000", "142349.842500", "142350.632500", "142351.420000", "142352.207500", "142352.995000", "142353.785000", "142354.572500", "142355.360000", "142356.147500", "142356.937500", "142357.725000", "142358.512500", "142359.302500", "142400.090000", "142400.877500", "142401.665000", "142402.455000", "142403.242500", "142404.030000", "142404.817500", "142405.607500", "142406.395000", "142407.182500", "142407.970000", "142408.760000", "142409.547500", "142410.335000", "142411.122500", "142411.912500", "142412.700000", "142413.487500", "142414.275000", "142415.065000", "142415.852500", "142416.640000", "142417.430000", "142418.217500", "142419.005000", "142419.792500", "142420.582500", "142421.370000", "142422.157500", "142422.945000", "142423.735000", "142424.522500", "142425.310000", "142426.097500", "142426.887500", "142427.675000", "142428.462500", "142429.250000", "142430.040000", "142430.827500", "142431.615000", "142432.402500", "142433.192500", "142433.980000", "142434.767500", "142435.557500", "142436.345000", "142437.132500", "142437.920000", "142438.710000", "142439.497500", "142440.285000", "142441.072500", "142441.862500", "142442.650000", "142443.437500", "142444.225000", "142445.015000", "142445.802500", "142446.590000", "142447.377500", "142448.167500", "142448.955000", "142449.742500", "142450.530000", "142451.320000", "142452.107500", "142452.895000", "142453.685000", "142454.472500", "142455.260000", "142456.047500", "142456.837500", "142457.625000", "142458.412500", "142459.200000", "142459.990000", "142500.777500", "142501.565000", "142502.352500", "142503.142500", "142503.930000", "142504.717500", "142505.505000", "142506.295000", "142507.082500", "142507.870000", "142508.657500", "142509.447500", "142510.235000", "142511.022500", "142511.812500", "142512.600000", "142513.387500", "142514.175000", "142514.965000", "142515.752500", "142516.540000", "142517.327500", "142518.117500", "142518.905000", "142519.692500", "142520.480000", "142521.270000", "142522.057500", "142522.845000", "142523.632500", "142524.422500", "142525.210000", "142525.997500", "142526.785000", "142527.575000", "142528.362500", "142529.150000", "142529.940000", "142530.727500", "142531.515000", "142532.302500", "142533.092500", "142533.880000", "142534.667500", "142535.455000", "142536.245000", "142537.032500", "142537.820000", "142538.607500", "142539.397500", "142540.185000", "142540.972500", "142541.760000", "142542.550000", "142543.337500", "142544.125000", "142544.912500", "142545.702500", "142546.490000", "142547.277500", "142548.067500", "142548.855000", "142549.642500", "142550.430000", "142551.220000", "142552.007500", "142552.795000", "142553.582500", "142554.372500", "142555.160000", "142555.947500", "142556.735000", "142557.525000", "142558.312500", "142559.100000", "142559.887500", "142600.677500", "142601.465000", "142602.252500", "142603.040000", "142603.830000", "142604.617500", "142605.405000", "142606.195000", "142606.982500", "142607.770000", "142608.557500", "142609.347500", "142610.135000", "142610.922500", "142611.710000", "142612.500000", "142613.287500", "142614.075000", "142614.862500", "142615.652500", "142616.440000", "142617.227500", "142618.015000", "142618.805000", "142619.592500", "142620.380000", "142621.167500", "142621.957500", "142622.745000", "142623.532500", "142624.322500", "142625.110000", "142625.897500", "142626.685000", "142627.475000", "142628.262500", "142629.050000", "142629.837500", "142630.627500", "142631.415000", "142632.202500", "142632.990000", "142633.780000", "142634.567500", "142635.355000", "142636.142500", "142636.932500", "142637.720000", "142638.507500", "142639.297500", "142640.085000", "142640.872500", "142641.660000", "142642.450000", "142643.237500", "142644.025000", "142644.812500", "142645.602500", "142646.390000", "142647.177500", "142647.965000", "142648.755000", "142649.542500", "142650.330000", "142651.117500", "142651.907500", "142652.695000", "142653.482500", "142654.270000", "142655.060000", "142655.847500", "142656.635000", "142657.425000", "142658.212500", "142659.000000", "142659.787500", "142700.577500", "142701.365000", "142702.152500", "142702.940000", "142703.730000", "142704.517500", "142705.305000", "142706.092500", "142706.882500", "142707.670000", "142708.457500", "142709.245000", "142710.035000", "142710.822500", "142711.610000", "142712.397500", "142713.187500", "142713.975000", "142714.762500", "142715.552500", "142716.340000", "142717.127500", "142717.915000", "142718.705000", "142719.492500", "142720.280000", "142721.067500", "142721.857500", "142722.645000", "142723.432500", "142724.220000", "142725.010000", "142725.797500", "142726.585000", "142727.372500", "142728.162500", "142728.950000", "142729.737500", "142730.525000", "142731.315000", "142732.102500", "142732.890000", "142733.680000", "142734.467500", "142735.255000", "142736.042500", "142736.832500", "142737.620000", "142738.407500", "142739.195000", "142739.985000", "142740.772500", "142741.560000", "142742.347500", "142743.137500", "142743.925000", "142744.712500", "142745.500000", "142746.290000", "142747.077500", "142747.865000", "142748.652500", "142749.442500", "142750.230000", "142751.017500", "142751.807500", "142752.595000", "142753.382500", "142754.170000", "142754.960000", "142755.747500", "142756.535000", "142757.322500", "142758.112500", "142758.900000", "142759.687500", "142800.475000", "142801.265000", "142802.052500", "142802.840000", "142803.627500", "142804.417500", "142805.205000", "142805.992500", "142806.780000", "142807.570000", "142808.357500", "142809.145000", "142809.935000", "142810.722500", "142811.510000", "142812.297500", "142813.087500", "142813.875000", "142814.662500", "142815.450000", "142816.240000", "142817.027500", "142817.815000", "142818.602500", "142819.392500", "142820.180000", "142820.967500", "142821.755000", "142822.545000", "142823.332500", "142824.120000", "142824.907500", "142825.697500", "142826.485000", "142827.272500", "142828.062500", "142828.850000", "142829.637500", "142830.425000", "142831.215000", "142832.002500", "142832.790000", "142833.577500", "142834.367500", "142835.155000", "142835.942500", "142836.730000", "142837.520000", "142838.307500", "142839.095000", "142839.882500", "142840.672500", "142841.460000", "142842.247500", "142843.035000", "142843.825000", "142844.612500", "142845.400000", "142846.190000", "142846.977500", "142847.765000", "142848.552500", "142849.342500", "142850.130000", "142850.917500", "142851.705000", "142852.495000", "142853.282500", "142854.070000", "142854.857500", "142855.647500", "142856.435000", "142857.222500", "142858.010000", "142858.800000", "142859.587500", "142900.375000", "142901.162500", "142901.952500", "142902.740000", "142903.527500", "142904.317500", "142905.105000", "142905.892500", "142906.680000", "142907.470000", "142908.257500", "142909.045000", "142909.832500", "142910.622500", "142911.410000", "142912.197500", "142912.985000", "142913.775000", "142914.562500", "142915.350000", "142916.137500", "142916.927500", "142917.715000", "142918.502500", "142919.290000", "142920.080000", "142920.867500", "142921.655000", "142922.445000", "142923.232500", "142924.020000", "142924.807500", "142925.597500", "142926.385000", "142927.172500", "142927.960000", "142928.750000", "142929.537500", "142930.325000", "142931.112500", "142931.902500", "142932.690000", "142933.477500", "142934.265000", "142935.055000", "142935.842500", "142936.630000", "142937.417500", "142938.207500", "142938.995000", "142939.782500", "142940.572500", "142941.360000", "142942.147500", "142942.935000", "142943.725000", "142944.512500", "142945.300000", "142946.087500", "142946.877500", "142947.665000", "142948.452500", "142949.240000", "142950.030000", "142950.817500", "142951.605000", "142952.392500", "142953.182500", "142953.970000", "142954.757500", "142955.547500", "142956.335000", "142957.122500", "142957.910000", "142958.700000", "142959.487500", "143000.275000", "143001.062500", "143001.852500", "143002.640000", "143003.427500", "143004.215000", "143005.005000", "143005.792500", "143006.580000", "143007.367500", "143008.157500", "143008.945000", "143009.732500", "143010.520000", "143011.310000", "143012.097500", "143012.885000", "143013.675000", "143014.462500", "143015.250000", "143016.037500", "143016.827500", "143017.615000", "143018.402500", "143019.190000", "143019.980000", "143020.767500", "143021.555000", "143022.342500", "143023.132500", "143023.920000", "143024.707500", "143025.495000", "143026.285000", "143027.072500", "143027.860000", "143028.647500", "143029.437500", "143030.225000", "143031.012500", "143031.802500", "143032.590000", "143033.377500", "143034.165000", "143034.955000", "143035.742500", "143036.530000", "143037.317500", "143038.107500", "143038.895000", "143039.682500", "143040.470000", "143041.260000", "143042.047500", "143042.835000", "143043.622500", "143044.412500", "143045.200000", "143045.987500", "143046.775000", "143047.565000", "143048.352500", "143049.140000", "143049.930000", "143050.717500", "143051.505000", "143052.292500", "143053.082500", "143053.870000", "143054.657500", "143055.445000", "143056.235000", "143057.022500", "143057.810000", "143058.597500", "143059.387500", "143100.175000", "143100.962500", "143101.750000", "143102.540000", "143103.327500", "143104.115000", "143104.902500", "143105.692500", "143106.480000", "143107.267500"],
