{
  "AcquisitionMatrixPE": 104,
  "AcquisitionNumber": 1,
  "AcquisitionTime": "15:30:54.710000",
  "BandwidthPerPixelPhaseEncode": 13.935,
  "BaseResolution": 104,
  "CoilString": "C:HEA;HEP",
  "ConversionSoftware": "dcm2niix",
  "ConversionSoftwareVersion": "v1.0.20210317",
  "DerivedVendorReportedEchoSpacing": 0.000690017,
  "DeviceSerialNumber": "35450",
  "DwellTime": 2.5e-06,
  "EchoTime": 0.0348,
  "EffectiveEchoSpacing": 0.000690017,
  "FlipAngle": 55,
  "ImageComments": "Unaliased MB8/PE3 (remote)",
  "ImageOrientationPatientDICOM": [1, 6.84196e-05, -0.000955351, 1.68566e-08, 0.997444, 0.0714518],
  "ImageType": [
    "ORIGINAL",
    "PRIMARY",
    "M",
    "MB",
    "ND",
    "MOSAIC"
],
  "ImagingFrequency": 123.234,
  "InPlanePhaseEncodingDirectionDICOM": "COL",
  "InstitutionAddress": "Univeristy Ave. 197,Newark,North East,US,07102-1814",
  "InstitutionName": "RUBIC",
  "InstitutionalDepartmentName": "Department",
  "MRAcquisitionType": "2D",
  "MagneticFieldStrength": 3,
  "Manufacturer": "Siemens",
  "ManufacturersModelName": "TrioTim",
  "Modality": "MR",
  "MultibandAccelerationFactor": 8,
  "PartialFourier": 0.875,
  "PatientPosition": "HFS",
  "PercentPhaseFOV": 100,
  "PercentSampling": 100,
  "PhaseEncodingDirection": "j-",
  "PhaseEncodingSteps": 91,
  "PhaseResolution": 1,
  "PixelBandwidth": 1923,
  "ProcedureStepDescription": "Cole^Michael",
  "ProtocolName": "cmrr_mbep2d_bold_2mm_MB8_Task_8x",
  "PulseSequenceDetails": "%CustomerSeq%\\cmrr_mbep2d_bold",
  "ReceiveCoilName": "32Ch_Head",
  "ReconMatrixPE": 104,
  "RepetitionTime": 0.785,
  "SAR": 0.135941,
  "ScanOptions": "PFP\\FS",
  "ScanningSequence": "EP",
  "SequenceName": "epfid2d1_104",
  "SequenceVariant": "SK\\SS",
  "SeriesDescription": "cmrr_mbep2d_bold_2mm_MB8_Task_8x",
  "SeriesNumber": 25,
  "ShimSetting": [2146, -462, -7262, 656, 43, -217, 95, -110],
  "SliceThickness": 2,
  "SliceTiming": [0, 0.4375, 0.0875, 0.525, 0.175, 0.6125, 0.2625, 0.7, 0.35, 0, 0.4375, 0.0875, 0.525, 0.175, 0.6125, 0.2625, 0.7, 0.35, 0, 0.4375, 0.0875, 0.525, 0.175, 0.6125, 0.2625, 0.7, 0.35, 0, 0.4375, 0.0875, 0.525, 0.175, 0.6125, 0.2625, 0.7, 0.35, 0, 0.4375, 0.0875, 0.525, 0.175, 0.6125, 0.2625, 0.7, 0.35, 0, 0.4375, 0.0875, 0.525, 0.175, 0.6125, 0.2625, 0.7, 0.35, 0, 0.4375, 0.0875, 0.525, 0.175, 0.6125, 0.2625, 0.7, 0.35, 0, 0.4375, 0.0875, 0.525, 0.175, 0.6125, 0.2625, 0.7, 0.35],
  "SoftwareVersions": "syngo MR B19",
  "SpacingBetweenSlices": 2,
  "StationName": "MRC35450",
  "TaskName": "cpro",
  "TotalReadoutTime": 0.0710717,
  "TxRefAmp": 319.123,
  "dcmmeta_affine": [
    [-1.9999990463256836, 3.371319223788305e-08, -0.0019155960762873292, 103.4375228881836],
    [-0.00013683915312867612, 1.9948880672454834, 0.14290353655815125, -90.49109649658203],
    [-0.0019107023254036903, -0.14290359616279602, 1.9948872327804565, -76.42567443847656],
    [0.0, 0.0, 0.0, 1.0]
],
  "dcmmeta_reorient_transform": [
    [0.0, -1.0, 0.0, 103.0],
    [1.0, 0.0, 0.0, 0.0],
    [0.0, 0.0, 1.0, 0.0],
    [0.0, 0.0, 0.0, 1.0]
],
  "dcmmeta_shape": [104, 104, 72, 581],
  "dcmmeta_slice_dim": 2,
  "dcmmeta_version": 0.6,
  "global": {
    "const": {
      "AcquisitionMatrix": [104, 0, 0, 104],
      "AngioFlag": "N",
      "BitsAllocated": 16,
      "BitsStored": 12,
      "Columns": 936,
      "EchoNumbers": 1,
      "EchoTime": 34.8,
      "EchoTrainLength": 1,
      "FlipAngle": 55.0,
      "HighBit": 11,
      "ImageOrientationPatient": [0.99999954131135, 6.841958003e-05, -0.0009553511626, 1.6856596e-08, 0.99744405373379, 0.07145179963515],
      "ImagePositionPatient": [-935.43715761314, -944.91275530586, -149.79779375128],
      "ImageType": [
        "ORIGINAL",
        "PRIMARY",
        "M",
        "MB",
        "ND",
        "MOSAIC"
],
      "ImagedNucleus": "1H",
      "ImagingFrequency": 123.234447,
      "InPlanePhaseEncodingDirection": "COL",
      "MRAcquisitionType": "2D",
      "MagneticFieldStrength": 3.0,
      "Manufacturer": "SIEMENS",
      "ManufacturerModelName": "TrioTim",
      "Modality": "MR",
      "NumberOfAverages": 1.0,
      "NumberOfPhaseEncodingSteps": 91,
      "PercentPhaseFieldOfView": 100.0,
      "PercentSampling": 100.0,
      "PerformedProcedureStepStartTime": "135118.468000",
      "PhotometricInterpretation": "MONOCHROME2",
      "PixelBandwidth": 1923.0,
      "PixelRepresentation": 0,
      "PixelSpacing": [2.0, 2.0],
      "ProtocolName": "cmrr_mbep2d_bold_2mm_MB8_Task_8x",
      "RepetitionTime": 785.0,
      "Rows": 936,
      "SAR": 0.13594079322916,
      "SamplesPerPixel": 1,
      "ScanOptions": [
        "PFP",
        "FS"
],
      "ScanningSequence": "EP",
      "SequenceName": "epfid2d1_104",
      "SequenceVariant": [
        "SK",
        "SS"
],
      "SeriesDescription": "cmrr_mbep2d_bold_2mm_MB8_Task_8x",
      "SeriesNumber": 25,
      "SeriesTime": "153116.640000",
      "SliceLocation": -82.795124067893,
      "SliceThickness": 2.0,
      "SmallestImagePixelValue": 0,
      "SoftwareVersions": "syngo MR B19",
      "SpacingBetweenSlices": 1.9999999856299,
      "SpecificCharacterSet": "ISO_IR 100",
      "StudyID": "1",
      "StudyTime": "135118.390000",
      "TransmitCoilName": "Body",
      "VariableFlipAngleFlag": "N",
      "WindowCenterWidthExplanation": "Algo1",
      "dBdt": 0.0},
    "slices": {}
  },
  "time": {
    "samples": {
      "AcquisitionNumber": [1, 2, 3, 4, 5, 6, 7, 8, 9, 10, 11, 12, 13, 14, 15, 16, 17, 18, 19, 20, 21, 22, 23, 24, 25, 26, 27, 28, 29, 30, 31, 32, 33, 34, 35, 36, 37, 38, 39, 40, 41, 42, 43, 44, 45, 46, 47, 48, 49, 50, 51, 52, 53, 54, 55, 56, 57, 58, 59, 60, 61, 62, 63, 64, 65, 66, 67, 68, 69, 70, 71, 72, 73, 74, 75, 76, 77, 78, 79, 80, 81, 82, 83, 84, 85, 86, 87, 88, 89, 90, 91, 92, 93, 94, 95, 96, 97, 98, 99, 100, 101, 102, 103, 104, 105, 106, 107, 108, 109, 110, 111, 112, 113, 114, 115, 116, 117, 118, 119, 120, 121, 122, 123, 124, 125, 126, 127, 128, 129, 130, 131, 132, 133, 134, 135, 136, 137, 138, 139, 140, 141, 142, 143, 144, 145, 146, 147, 148, 149, 150, 151, 152, 153, 154, 155, 156, 157, 158, 159, 160, 161, 162, 163, 164, 165, 166, 167, 168, 169, 170, 171, 172, 173, 174, 175, 176, 177, 178, 179, 180, 181, 182, 183, 184, 185, 186, 187, 188, 189, 190, 191, 192, 193, 194, 195, 196, 197, 198, 199, 200, 201, 202, 203, 204, 205, 206, 207, 208, 209, 210, 211, 212, 213, 214, 215, 216, 217, 218, 219, 220, 221, 222, 223, 224, 225, 226, 227, 228, 229, 230, 231, 232, 233, 234, 235, 236, 237, 238, 239, 240, 241, 242, 243, 244, 245, 246, 247, 248, 249, 250, 251, 252, 253, 254, 255, 256, 257, 258, 259, 260, 261, 262, 263, 264, 265, 266, 267, 268, 269, 270, 271, 272, 273, 274, 275, 276, 277, 278, 279, 280, 281, 282, 283, 284, 285, 286, 287, 288, 289, 290, 291, 292, 293, 294, 295, 296, 297, 298, 299, 300, 301, 302, 303, 304, 305, 306, 307, 308, 309, 310, 311, 312, 313, 314, 315, 316, 317, 318, 319, 320, 321, 322, 323, 324, 325, 326, 327, 328, 329, 330, 331, 332, 333, 334, 335, 336, 337, 338, 339, 340, 341, 342, 343, 344, 345, 346, 347, 348, 349, 350, 351, 352, 353, 354, 355, 356, 357, 358, 359, 360, 361, 362, 363, 364, 365, 366, 367, 368, 369, 370, 371, 372, 373, 374, 375, 376, 377, 378, 379, 380, 381, 382, 383, 384, 385, 386, 387, 388, 389, 390, 391, 392, 393, 394, 395, 396, 397, 398, 399, 400, 401, 402, 403, 404, 405, 406, 407, 408, 409, 410, 411, 412, 413, 414, 415, 416, 417, 418, 419, 420, 421, 422, 423, 424, 425, 426, 427, 428, 429, 430, 431, 432, 433, 434, 435, 436, 437, 438, 439, 440, 441, 442, 443, 444, 445, 446, 447, 448, 449, 450, 451, 452, 453, 454, 455, 456, 457, 458, 459, 460, 461, 462, 463, 464, 465, 466, 467, 468, 469, 470, 471, 472, 473, 474, 475, 476, 477, 478, 479, 480, 481, 482, 483, 484, 485, 486, 487, 488, 489, 490, 491, 492, 493, 494, 495, 496, 497, 498, 499, 500, 501, 502, 503, 504, 505, 506, 507, 508, 509, 510, 511, 512, 513, 514, 515, 516, 517, 518, 519, 520, 521, 522, 523, 524, 525, 526, 527, 528, 529, 530, 531, 532, 533, 534, 535, 536, 537, 538, 539, 540, 541, 542, 543, 544, 545, 546, 547, 548, 549, 550, 551, 552, 553, 554, 555, 556, 557, 558, 559, 560, 561, 562, 563, 564, 565, 566, 567, 568, 569, 570, 571, 572, 573, 574, 575, 576, 577, 578, 579, 580, 581],
      "AcquisitionTime": ["153054.710000", "153055.497500", "153056.285000", "153057.072500", "153057.862500", "153058.650000", "153059.437500", "153100.225000", "153101.015000", "153101.802500", "153102.590000", "153103.377500", "153104.167500", "153104.955000", "153105.742500", "153106.530000", "153107.320000", "153108.107500", "153108.895000", "153109.682500", "153110.472500", "153111.260000", "153112.047500", "153112.837500", "153113.625000", "153114.412500", "153115.200000", "153115.990000", "153116.777500", "153117.565000", "153118.352500", "153119.142500", "153119.930000", "153120.717500", "153121.505000", "153122.295000", "153123.082500", "153123.870000", "153124.657500", "153125.447500", "153126.235000", "153127.022500", "153127.812500", "153128.600000", "153129.387500", "153130.175000", "153130.965000", "153131.752500", "153132.540000", "153133.327500", "153134.117500", "153134.905000", "153135.692500", "153136.480000", "153137.270000", "153138.057500", "153138.845000", "153139.632500", "153140.422500", "153141.210000", "153141.997500", "153142.785000", "153143.575000", "153144.362500", "153145.150000", "153145.940000", "153146.727500", "153147.515000", "153148.302500", "153149.092500", "153149.880000", "153150.667500", "153151.455000", "153152.245000", "153153.032500", "153153.820000", "153154.607500", "153155.397500", "153156.185000", "153156.972500", "153157.760000", "153158.550000", "153159.337500", "153200.125000", "153200.912500", "153201.702500", "153202.490000", "153203.277500", "153204.067500", "153204.855000", "153205.642500", "153206.430000", "153207.220000", "153208.007500", "153208.795000", "153209.582500", "153210.372500", "153211.160000", "153211.947500", "153212.735000", "153213.525000", "153214.312500", "153215.100000", "153215.887500", "153216.677500", "153217.465000", "153218.252500", "153219.040000", "153219.830000", "153220.617500", "153221.405000", "153222.195000", "153222.982500", "153223.770000", "153224.557500", "153225.347500", "153226.135000", "153226.922500", "153227.710000", "153228.500000", "153229.287500", "153230.075000", "153230.862500", "153231.652500", "153232.440000", "153233.227500", "153234.015000", "153234.805000", "153235.592500", "153236.380000", "153237.167500", "153237.957500", "153238.745000", "153239.532500", "153240.322500", "153241.110000", "153241.897500", "153242.685000", "153243.475000", "153244.262500", "153245.050000", "153245.837500", "153246.627500", "153247.415000", "153248.202500", "153248.990000", "153249.780000", "153250.567500", "153251.355000", "153252.142500", "153252.932500", "153253.720000", "153254.507500", "153255.295000", "153256.085000", "153256.872500", "153257.660000", "153258.450000", "153259.237500", "153300.025000", "153300.812500", "153301.602500", "153302.390000", "153303.177500", "153303.965000", "153304.755000", "153305.542500", "153306.330000", "153307.117500", "153307.907500", "153308.695000", "153309.482500", "153310.270000", "153311.060000", "153311.847500", "153312.635000", "153313.422500", "153314.212500", "153315.000000", "153315.787500", "153316.577500", "153317.365000", "153318.152500", "153318.940000", "153319.730000", "153320.517500", "153321.305000", "153322.092500", "153322.882500", "153323.670000", "153324.457500", "153325.245000", "153326.035000", "153326.822500", "153327.610000", "153328.397500", "153329.187500", "153329.975000", "153330.762500", "153331.550000", "153332.340000", "153333.127500", "153333.915000", "153334.705000", "153335.492500", "153336.280000", "153337.067500", "153337.857500", "153338.645000", "153339.432500", "153340.220000", "153341.010000", "153341.797500", "153342.585000", "153343.372500", "153344.162500", "153344.950000", "153345.737500", "153346.525000", "153347.315000", "153348.102500", "153348.890000", "153349.677500", "153350.467500", "153351.255000", "153352.042500", "153352.832500", "153353.620000", "153354.407500", "153355.195000", "153355.985000", "153356.772500", "153357.560000", "153358.347500", "153359.137500", "153359.925000", "153400.712500", "153401.500000", "153402.290000", "153403.077500", "153403.865000", "153404.652500", "153405.442500", "153406.230000", "153407.017500", "153407.805000", "153408.595000", "153409.382500", "153410.170000", "153410.960000", "153411.747500", "153412.535000", "153413.322500", "153414.112500", "153414.900000", "153415.687500", "153416.475000", "153417.265000", "153418.052500", "153418.840000", "153419.627500", "153420.417500", "153421.205000", "153421.992500", "153422.780000", "153423.570000", "153424.357500", "153425.145000", "153425.932500", "153426.722500", "153427.510000", "153428.297500", "153429.087500", "153429.875000", "153430.662500", "153431.450000", "153432.240000", "153433.027500", "153433.815000", "153434.602500", "153435.392500", "153436.180000", "153436.967500", "153437.755000", "153438.545000", "153439.332500", "153440.120000", "153440.907500", "153441.697500", "153442.485000", "153443.272500", "153444.062500", "153444.850000", "153445.637500", "153446.425000", "153447.215000", "153448.002500", "153448.790000", "153449.577500", "153450.367500", "153451.155000", "153451.942500", "153452.730000", "153453.520000", "153454.307500", "153455.095000", "153455.882500", "153456.672500", "153457.460000", "153458.247500", "153459.035000", "153459.825000", "153500.612500", "153501.400000", "153502.190000", "153502.977500", "153503.765000", "153504.552500", "153505.342500", "153506.130000", "153506.917500", "153507.705000", "153508.495000", "153509.282500", "153510.070000", "153510.857500", "153511.647500", "153512.435000", "153513.222500", "153514.010000", "153514.800000", "153515.587500", "153516.375000", "153517.162500", "153517.952500", "153518.740000", "153519.527500", "153520.317500", "153521.105000", "153521.892500", "153522.680000", "153523.470000", "153524.257500", "153525.045000", "153525.832500", "153526.622500", "153527.410000", "153528.197500", "153528.985000", "153529.775000", "153530.562500", "153531.350000", "153532.137500", "153532.927500", "153533.715000", "153534.502500", "153535.290000", "153536.080000", "153536.867500", "153537.655000", "153538.445000", "153539.232500", "153540.020000", "153540.807500", "153541.597500", "153542.385000", "153543.172500", "153543.960000", "153544.750000", "153545.537500", "153546.325000", "153547.112500", "153547.902500", "153548.690000", "153549.477500", "153550.265000", "153551.055000", "153551.842500", "153552.630000", "153553.417500", "153554.207500", "153554.995000", "153555.782500", "153556.572500", "153557.360000", "153558.147500", "153558.935000", "153559.725000", "153600.512500", "153601.300000", "153602.087500", "153602.877500", "153603.665000", "153604.452500", "153605.240000", "153606.030000", "153606.817500", "153607.605000", "153608.392500", "153609.182500", "153609.970000", "153610.757500", "153611.545000", "153612.335000", "153613.122500", "153613.910000", "153614.700000", "153615.487500", "153616.275000", "153617.062500", "153617.852500", "153618.640000", "153619.427500", "153620.215000", "153621.005000", "153621.792500", "153622.580000", "153623.367500", "153624.157500", "153624.945000", "153625.732500", "153626.520000", "153627.310000", "153628.097500", "153628.885000", "153629.672500", "153630.462500", "153631.250000", "153632.037500", "153632.827500", "153633.615000", "153634.402500", "153635.190000", "153635.980000", "153636.767500", "153637.555000", "153638.342500", "153639.132500", "153639.920000", "153640.707500", "153641.495000", "153642.285000", "153643.072500", "153643.860000", "153644.647500", "153645.437500", "153646.225000", "153647.012500", "153647.800000", "153648.590000", "153649.377500", "153650.165000", "153650.955000", "153651.742500", "153652.530000", "153653.317500", "153654.107500", "153654.895000", "153655.682500", "153656.470000", "153657.260000", "153658.047500", "153658.835000", "153659.622500", "153700.412500", "153701.200000", "153701.987500", "153702.775000", "153703.565000", "153704.352500", "153705.140000", "153705.927500", "153706.717500", "153707.505000", "153708.292500", "153709.082500", "153709.870000", "153710.657500", "153711.445000", "153712.235000", "153713.022500", "153713.810000", "153714.597500", "153715.387500", "153716.175000", "153716.962500", "153717.750000", "153718.540000", "153719.327500", "153720.115000", "153720.902500", "153721.692500", "153722.480000", "153723.267500", "153724.055000", "153724.845000", "153725.632500", "153726.420000", "153727.210000", "153727.997500", "153728.785000", "153729.572500", "153730.362500", "153731.150000", "153731.937500", "153732.725000", "153733.515000", "153734.302500", "153735.090000", "153735.877500", "153736.667500", "153737.455000", "153738.242500", "153739.030000", "153739.820000", "153740.607500", "153741.395000", "153742.182500", "153742.972500", "153743.760000", "153744.547500", "153745.337500", "153746.125000", "153746.912500", "153747.700000", "153748.490000", "153749.277500", "153750.065000", "153750.852500", "153751.642500", "153752.430000", "153753.217500", "153754.005000", "153754.795000", "153755.582500", "153756.370000", "153757.157500", "153757.947500", "153758.735000", "153759.522500", "153800.312500", "153801.100000", "153801.887500", "153802.675000", "153803.465000", "153804.252500", "153805.040000", "153805.827500", "153806.617500", "153807.405000", "153808.192500", "153808.980000", "153809.770000", "153810.557500", "153811.345000", "153812.132500", "153812.922500", "153813.710000", "153814.497500", "153815.285000", "153816.075000", "153816.862500", "153817.650000", "153818.440000", "153819.227500", "153820.015000", "153820.802500", "153821.592500", "153822.380000", "153823.167500", "153823.955000", "153824.745000", "153825.532500", "153826.320000", "153827.107500", "153827.897500", "153828.685000", "153829.472500", "153830.260000", "153831.050000", "153831.837500"],
      "ContentTime": ["153116.640000", "153116.640000", "153116.640000", "153116.640000", "153116.656000", "153116.656000", "153116.656000", "153116.656000", "153116.656000", "153116.656000", "153116.656000", "153116.671000", "153116.671000", "153116.671000", "153116.671000", "153116.671000", "153116.687000", "153116.687000", "153116.687000", "153116.687000", "153116.687000", "153116.703000", "153116.703000", "153116.703000", "153136.609000", "153136.609000", "153136.625000", "153136.625000", "153136.625000", "153136.625000", "153136.625000", "153136.625000", "153136.625000", "153136.640000", "153136.640000", "153136.640000", "153136.640000", "153136.640000", "153136.656000", "153136.656000", "153136.656000", "153136.656000", "153136.656000", "153136.656000", "153136.656000", "153136.671000", "153136.671000", "153136.671000", "153136.671000", "153136.671000", "153156.609000", "153156.609000", "153156.625000", "153156.625000", "153156.625000", "153156.625000", "153156.625000", "153156.625000", "153156.640000", "153156.640000", "153156.640000", "153156.640000", "153156.640000", "153156.640000", "153156.640000", "153156.656000", "153156.656000", "153156.656000", "153156.656000", "153156.656000", "153156.656000", "153156.656000", "153156.671000", "153156.671000", "153156.671000", "153216.609000", "153216.609000", "153216.625000", "153216.625000", "153216.625000", "153216.625000", "153216.625000", "153216.625000", "153216.625000", "153216.640000", "153216.640000", "153216.640000", "153216.640000", "153216.640000", "153216.640000", "153216.640000", "153216.656000", "153216.656000", "153216.656000", "153216.656000", "153216.656000", "153216.656000", "153216.656000", "153216.671000", "153216.671000", "153216.671000", "153236.609000", "153236.609000", "153236.625000", "153236.625000", "153236.625000", "153236.625000", "153236.625000", "153236.625000", "153236.640000", "153236.640000", "153236.640000", "153236.640000", "153236.640000", "153236.640000", "153236.640000", "153236.656000", "153236.656000", "153236.656000", "153236.656000", "153236.656000", "153236.671000", "153236.671000", "153236.671000", "153236.671000", "153236.671000", "153256.609000", "153256.609000", "153256.625000", "153256.625000", "153256.625000", "153256.625000", "153256.625000", "153256.625000", "153256.625000", "153256.640000", "153256.640000", "153256.640000", "153256.640000", "153256.640000", "153256.640000", "153256.640000", "153256.656000", "153256.656000", "153256.656000", "153256.656000", "153256.656000", "153256.656000", "153256.656000", "153256.671000", "153256.671000", "153256.671000", "153316.609000", "153316.609000", "153316.625000", "153316.625000", "153316.625000", "153316.625000", "153316.625000", "153316.625000", "153316.640000", "153316.640000", "153316.640000", "153316.640000", "153316.640000", "153316.656000", "153316.656000", "153316.656000", "153316.656000", "153316.656000", "153316.671000", "153316.671000", "153316.671000", "153316.671000", "153316.671000", "153316.671000", "153316.671000", "153336.609000", "153336.609000", "153336.625000", "153336.625000", "153336.625000", "153336.625000", "153336.625000", "153336.625000", "153336.625000", "153336.640000", "153336.640000", "153336.640000", "153336.640000", "153336.640000", "153336.640000", "153336.640000", "153336.656000", "153336.656000", "153336.656000", "153336.656000", "153336.656000", "153336.656000", "153336.656000", "153336.671000", "153336.671000", "153336.671000", "153356.609000", "153356.609000", "153356.625000", "153356.625000", "153356.687000", "153356.687000", "153356.687000", "153356.703000", "153356.703000", "153356.703000", "153356.703000", "153356.703000", "153356.703000", "153356.703000", "153356.718000", "153356.718000", "153356.718000", "153356.718000", "153356.734000", "153356.734000", "153356.734000", "153356.734000", "153356.750000", "153356.750000", "153356.750000", "153416.609000", "153416.609000", "153416.625000", "153416.625000", "153416.625000", "153416.625000", "153416.625000", "153416.625000", "153416.625000", "153416.640000", "153416.640000", "153416.640000", "153416.640000", "153416.640000", "153416.640000", "153416.656000", "153416.656000", "153416.656000", "153416.656000", "153416.656000", "153416.656000", "153416.671000", "153416.671000", "153416.671000", "153416.671000", "153416.671000", "153436.609000", "153436.609000", "153436.625000", "153436.625000", "153436.625000", "153436.625000", "153436.625000", "153436.625000", "153436.640000", "153436.640000", "153436.640000", "153436.640000", "153436.640000", "153436.640000", "153436.640000", "153436.656000", "153436.656000", "153436.656000", "153436.656000", "153436.656000", "153436.656000", "153436.671000", "153436.671000", "153436.671000", "153436.671000", "153456.609000", "153456.609000", "153456.625000", "153456.625000", "153456.625000", "153456.625000", "153456.625000", "153456.625000", "153456.625000", "153456.640000", "153456.640000", "153456.640000", "153456.640000", "153456.640000", "153456.640000", "153456.640000", "153456.656000", "153456.656000", "153456.656000", "153456.656000", "153456.656000", "153456.656000", "153456.656000", "153456.671000", "153456.671000", "153456.671000", "153516.609000", "153516.609000", "153516.625000", "153516.625000", "153516.625000", "153516.656000", "153516.656000", "153516.671000", "153516.671000", "153516.671000", "153516.671000", "153516.671000", "153516.671000", "153516.687000", "153516.687000", "153516.687000", "153516.687000", "153516.687000", "153516.687000", "153516.703000", "153516.703000", "153516.703000", "153516.703000", "153516.703000", "153516.703000", "153536.609000", "153536.609000", "153536.625000", "153536.625000", "153536.625000", "153536.625000", "153536.625000", "153536.625000", "153536.625000", "153536.640000", "153536.640000", "153536.640000", "153536.640000", "153536.640000", "153536.640000", "153536.640000", "153536.656000", "153536.656000", "153536.656000", "153536.656000", "153536.656000", "153536.656000", "153536.656000", "153536.671000", "153536.671000", "153536.671000", "153556.609000", "153556.609000", "153556.625000", "153556.625000", "153556.625000", "153556.625000", "153556.625000", "153556.625000", "153556.625000", "153556.640000", "153556.640000", "153556.640000", "153556.640000", "153556.640000", "153556.640000", "153556.640000", "153556.656000", "153556.656000", "153556.656000", "153556.656000", "153556.656000", "153556.656000", "153556.656000", "153556.671000", "153556.671000", "153616.609000", "153616.609000", "153616.625000", "153616.625000", "153616.625000", "153616.625000", "153616.625000", "153616.625000", "153616.625000", "153616.640000", "153616.640000", "153616.640000", "153616.656000", "153616.656000", "153616.656000", "153616.656000", "153616.656000", "153616.656000", "153616.656000", "153616.671000", "153616.671000", "153616.671000", "153616.671000", "153616.671000", "153616.671000", "153616.671000", "153636.609000", "153636.609000", "153636.625000", "153636.625000", "153636.625000", "153636.625000", "153636.640000", "153636.640000", "153636.640000", "153636.640000", "153636.640000", "153636.640000", "153636.656000", "153636.656000", "153636.656000", "153636.656000", "153636.656000", "153636.671000", "153636.671000", "153636.671000", "153636.687000", "153636.687000", "153636.687000", "153636.687000", "153636.687000", "153656.609000", "153656.609000", "153656.625000", "153656.625000", "153656.625000", "153656.625000", "153656.625000", "153656.625000", "153656.625000", "153656.640000", "153656.640000", "153656.640000", "153656.640000", "153656.640000", "153656.640000", "153656.640000", "153656.656000", "153656.656000", "153656.656000", "153656.656000", "153656.656000", "153656.656000", "153656.671000", "153656.671000", "153656.671000", "153656.671000", "153716.609000", "153716.609000", "153716.625000", "153716.625000", "153716.625000", "153716.625000", "153716.625000", "153716.625000", "153716.625000", "153716.640000", "153716.640000", "153716.640000", "153716.640000", "153716.640000", "153716.656000", "153716.656000", "153716.656000", "153716.656000", "153716.656000", "153716.656000", "153716.671000", "153716.671000", "153716.671000", "153716.671000", "153716.671000", "153736.609000", "153736.609000", "153736.625000", "153736.625000", "153736.625000", "153736.625000", "153736.625000", "153736.625000", "153736.625000", "153736.640000", "153736.640000", "153736.640000", "153736.656000", "153736.656000", "153736.656000", "153736.656000", "153736.656000", "153736.656000", "153736.671000", "153736.671000", "153736.671000", "153736.671000", "153736.671000", "153736.671000", "153736.671000", "153736.687000", "153756.609000", "153756.609000", "153756.625000", "153756.625000", "153756.687000", "153756.687000", "153756.703000", "153756.703000", "153756.703000", "153756.703000", "153756.703000", "153756.703000", "153756.718000", "153756.718000", "153756.718000", "153756.718000", "153756.718000", "153756.718000", "153756.734000", "153756.734000", "153756.734000", "153756.734000", "153756.734000", "153756.750000", "153756.750000", "153816.609000", "153816.609000", "153816.625000", "153816.625000", "153816.625000", "153816.625000", "153816.625000", "153816.625000", "153816.625000", "153816.640000", "153816.640000", "153816.640000", "153816.640000", "153816.640000", "153816.656000", "153816.656000", "153816.656000", "153816.656000", "153816.656000", "153816.656000", "153816.656000", "153816.671000", "153816.671000", "153816.671000", "153816.671000", "153816.671000", "153833.156000", "153833.156000", "153833.156000", "153833.171000", "153833.171000", "153833.171000", "153833.171000", "153833.171000", "153833.171000", "153833.187000", "153833.187000", "153833.187000", "153833.187000", "153833.187000", "153833.203000", "153833.203000", "153833.203000", "153833.203000", "153833.203000", "153833.203000", "153833.203000"],
