{
  "AcquisitionMatrixPE": 104,
  "AcquisitionNumber": 1,
  "AcquisitionTime": "14:50:5.707500",
  "BandwidthPerPixelPhaseEncode": 13.935,
  "BaseResolution": 104,
  "CoilString": "C:HEA;HEP",
  "ConversionSoftware": "dcm2niix",
  "ConversionSoftwareVersion": "v1.0.20210317",
  "DerivedVendorReportedEchoSpacing": 0.000690017,
  "DeviceSerialNumber": "35450",
  "DwellTime": 2.5e-06,
  "EchoTime": 0.0348,
  "EffectiveEchoSpacing": 0.000690017,
  "FlipAngle": 55,
  "ImageComments": "Unaliased MB8/PE3 (remote)",
  "ImageOrientationPatientDICOM": [1, 6.84196e-05, -0.000955351, 1.68566e-08, 0.997444, 0.0714518],
  "ImageType": [
    "ORIGINAL",
    "PRIMARY",
    "M",
    "MB",
    "ND",
    "MOSAIC"
],
  "ImagingFrequency": 123.234,
  "InPlanePhaseEncodingDirectionDICOM": "COL",
  "InstitutionAddress": "Univeristy Ave. 197,Newark,North East,US,07102-1814",
  "InstitutionName": "RUBIC",
  "InstitutionalDepartmentName": "Department",
  "MRAcquisitionType": "2D",
  "MagneticFieldStrength": 3,
  "Manufacturer": "Siemens",
  "ManufacturersModelName": "TrioTim",
  "Modality": "MR",
  "MultibandAccelerationFactor": 8,
  "PartialFourier": 0.875,
  "PatientPosition": "HFS",
  "PercentPhaseFOV": 100,
  "PercentSampling": 100,
  "PhaseEncodingDirection": "j-",
  "PhaseEncodingSteps": 91,
  "PhaseResolution": 1,
  "PixelBandwidth": 1923,
  "ProcedureStepDescription": "Cole^Michael",
  "ProtocolName": "cmrr_mbep2d_bold_2mm_MB8_Task_8x",
  "PulseSequenceDetails": "%CustomerSeq%\\cmrr_mbep2d_bold",
  "ReceiveCoilName": "32Ch_Head",
  "ReconMatrixPE": 104,
  "RepetitionTime": 0.785,
  "SAR": 0.135941,
  "ScanOptions": "PFP\\FS",
  "ScanningSequence": "EP",
  "SequenceName": "epfid2d1_104",
  "SequenceVariant": "SK\\SS",
  "SeriesDescription": "cmrr_mbep2d_bold_2mm_MB8_Task_8x",
  "SeriesNumber": 15,
  "ShimSetting": [2146, -462, -7262, 656, 43, -217, 95, -110],
  "SliceThickness": 2,
  "SliceTiming": [0, 0.4375, 0.0875, 0.525, 0.175, 0.6125, 0.2625, 0.7, 0.35, 0, 0.4375, 0.0875, 0.525, 0.175, 0.6125, 0.2625, 0.7, 0.35, 0, 0.4375, 0.0875, 0.525, 0.175, 0.6125, 0.2625, 0.7, 0.35, 0, 0.4375, 0.0875, 0.525, 0.175, 0.6125, 0.2625, 0.7, 0.35, 0, 0.4375, 0.0875, 0.525, 0.175, 0.6125, 0.2625, 0.7, 0.35, 0, 0.4375, 0.0875, 0.525, 0.175, 0.6125, 0.2625, 0.7, 0.35, 0, 0.4375, 0.0875, 0.525, 0.175, 0.6125, 0.2625, 0.7, 0.35, 0, 0.4375, 0.0875, 0.525, 0.175, 0.6125, 0.2625, 0.7, 0.35],
  "SoftwareVersions": "syngo MR B19",
  "SpacingBetweenSlices": 2,
  "StationName": "MRC35450",
  "TaskName": "cpro",
  "TotalReadoutTime": 0.0710717,
  "TxRefAmp": 319.123,
  "dcmmeta_affine": [
    [-1.9999990463256836, 3.371319223788305e-08, -0.0019155960762873292, 103.4375228881836],
    [-0.00013683915312867612, 1.9948880672454834, 0.14290353655815125, -90.49109649658203],
    [-0.0019107023254036903, -0.14290359616279602, 1.9948872327804565, -76.42567443847656],
    [0.0, 0.0, 0.0, 1.0]
],
  "dcmmeta_reorient_transform": [
    [0.0, -1.0, 0.0, 103.0],
    [1.0, 0.0, 0.0, 0.0],
    [0.0, 0.0, 1.0, 0.0],
    [0.0, 0.0, 0.0, 1.0]
],
  "dcmmeta_shape": [104, 104, 72, 581],
  "dcmmeta_slice_dim": 2,
  "dcmmeta_version": 0.6,
  "global": {
    "const": {
      "AcquisitionMatrix": [104, 0, 0, 104],
      "AngioFlag": "N",
      "BitsAllocated": 16,
      "BitsStored": 12,
      "Columns": 936,
      "EchoNumbers": 1,
      "EchoTime": 34.8,
      "EchoTrainLength": 1,
      "FlipAngle": 55.0,
      "HighBit": 11,
      "ImageOrientationPatient": [0.99999954131135, 6.841958003e-05, -0.0009553511626, 1.6856596e-08, 0.99744405373379, 0.07145179963515],
      "ImagePositionPatient": [-935.43715761314, -944.91275530586, -149.79779375128],
      "ImageType": [
        "ORIGINAL",
        "PRIMARY",
        "M",
        "MB",
        "ND",
        "MOSAIC"
],
      "ImagedNucleus": "1H",
      "ImagingFrequency": 123.234447,
      "InPlanePhaseEncodingDirection": "COL",
      "MRAcquisitionType": "2D",
      "MagneticFieldStrength": 3.0,
      "Manufacturer": "SIEMENS",
      "ManufacturerModelName": "TrioTim",
      "Modality": "MR",
      "NumberOfAverages": 1.0,
      "NumberOfPhaseEncodingSteps": 91,
      "PercentPhaseFieldOfView": 100.0,
      "PercentSampling": 100.0,
      "PerformedProcedureStepStartTime": "135118.468000",
      "PhotometricInterpretation": "MONOCHROME2",
      "PixelBandwidth": 1923.0,
      "PixelRepresentation": 0,
      "PixelSpacing": [2.0, 2.0],
      "ProtocolName": "cmrr_mbep2d_bold_2mm_MB8_Task_8x",
      "RepetitionTime": 785.0,
      "Rows": 936,
      "SAR": 0.13594079322916,
      "SamplesPerPixel": 1,
      "ScanOptions": [
        "PFP",
        "FS"
],
      "ScanningSequence": "EP",
      "SequenceName": "epfid2d1_104",
      "SequenceVariant": [
        "SK",
        "SS"
],
      "SeriesDescription": "cmrr_mbep2d_bold_2mm_MB8_Task_8x",
      "SeriesNumber": 15,
      "SeriesTime": "145034.203000",
      "SliceLocation": -82.795124067893,
      "SliceThickness": 2.0,
      "SmallestImagePixelValue": 0,
      "SoftwareVersions": "syngo MR B19",
      "SpacingBetweenSlices": 1.9999999856299,
      "SpecificCharacterSet": "ISO_IR 100",
      "StudyID": "1",
      "StudyTime": "135118.390000",
      "TransmitCoilName": "Body",
      "VariableFlipAngleFlag": "N",
      "WindowCenterWidthExplanation": "Algo1",
      "dBdt": 0.0},
    "slices": {}
  },
  "time": {
    "samples": {
      "AcquisitionNumber": [1, 2, 3, 4, 5, 6, 7, 8, 9, 10, 11, 12, 13, 14, 15, 16, 17, 18, 19, 20, 21, 22, 23, 24, 25, 26, 27, 28, 29, 30, 31, 32, 33, 34, 35, 36, 37, 38, 39, 40, 41, 42, 43, 44, 45, 46, 47, 48, 49, 50, 51, 52, 53, 54, 55, 56, 57, 58, 59, 60, 61, 62, 63, 64, 65, 66, 67, 68, 69, 70, 71, 72, 73, 74, 75, 76, 77, 78, 79, 80, 81, 82, 83, 84, 85, 86, 87, 88, 89, 90, 91, 92, 93, 94, 95, 96, 97, 98, 99, 100, 101, 102, 103, 104, 105, 106, 107, 108, 109, 110, 111, 112, 113, 114, 115, 116, 117, 118, 119, 120, 121, 122, 123, 124, 125, 126, 127, 128, 129, 130, 131, 132, 133, 134, 135, 136, 137, 138, 139, 140, 141, 142, 143, 144, 145, 146, 147, 148, 149, 150, 151, 152, 153, 154, 155, 156, 157, 158, 159, 160, 161, 162, 163, 164, 165, 166, 167, 168, 169, 170, 171, 172, 173, 174, 175, 176, 177, 178, 179, 180, 181, 182, 183, 184, 185, 186, 187, 188, 189, 190, 191, 192, 193, 194, 195, 196, 197, 198, 199, 200, 201, 202, 203, 204, 205, 206, 207, 208, 209, 210, 211, 212, 213, 214, 215, 216, 217, 218, 219, 220, 221, 222, 223, 224, 225, 226, 227, 228, 229, 230, 231, 232, 233, 234, 235, 236, 237, 238, 239, 240, 241, 242, 243, 244, 245, 246, 247, 248, 249, 250, 251, 252, 253, 254, 255, 256, 257, 258, 259, 260, 261, 262, 263, 264, 265, 266, 267, 268, 269, 270, 271, 272, 273, 274, 275, 276, 277, 278, 279, 280, 281, 282, 283, 284, 285, 286, 287, 288, 289, 290, 291, 292, 293, 294, 295, 296, 297, 298, 299, 300, 301, 302, 303, 304, 305, 306, 307, 308, 309, 310, 311, 312, 313, 314, 315, 316, 317, 318, 319, 320, 321, 322, 323, 324, 325, 326, 327, 328, 329, 330, 331, 332, 333, 334, 335, 336, 337, 338, 339, 340, 341, 342, 343, 344, 345, 346, 347, 348, 349, 350, 351, 352, 353, 354, 355, 356, 357, 358, 359, 360, 361, 362, 363, 364, 365, 366, 367, 368, 369, 370, 371, 372, 373, 374, 375, 376, 377, 378, 379, 380, 381, 382, 383, 384, 385, 386, 387, 388, 389, 390, 391, 392, 393, 394, 395, 396, 397, 398, 399, 400, 401, 402, 403, 404, 405, 406, 407, 408, 409, 410, 411, 412, 413, 414, 415, 416, 417, 418, 419, 420, 421, 422, 423, 424, 425, 426, 427, 428, 429, 430, 431, 432, 433, 434, 435, 436, 437, 438, 439, 440, 441, 442, 443, 444, 445, 446, 447, 448, 449, 450, 451, 452, 453, 454, 455, 456, 457, 458, 459, 460, 461, 462, 463, 464, 465, 466, 467, 468, 469, 470, 471, 472, 473, 474, 475, 476, 477, 478, 479, 480, 481, 482, 483, 484, 485, 486, 487, 488, 489, 490, 491, 492, 493, 494, 495, 496, 497, 498, 499, 500, 501, 502, 503, 504, 505, 506, 507, 508, 509, 510, 511, 512, 513, 514, 515, 516, 517, 518, 519, 520, 521, 522, 523, 524, 525, 526, 527, 528, 529, 530, 531, 532, 533, 534, 535, 536, 537, 538, 539, 540, 541, 542, 543, 544, 545, 546, 547, 548, 549, 550, 551, 552, 553, 554, 555, 556, 557, 558, 559, 560, 561, 562, 563, 564, 565, 566, 567, 568, 569, 570, 571, 572, 573, 574, 575, 576, 577, 578, 579, 580, 581],
      "AcquisitionTime": ["145005.707500", "145006.495000", "145007.285000", "145008.072500", "145008.860000", "145009.647500", "145010.437500", "145011.225000", "145012.012500", "145012.800000", "145013.590000", "145014.377500", "145015.165000", "145015.955000", "145016.742500", "145017.530000", "145018.317500", "145019.107500", "145019.895000", "145020.682500", "145021.470000", "145022.260000", "145023.047500", "145023.835000", "145024.622500", "145025.412500", "145026.200000", "145026.987500", "145027.775000", "145028.565000", "145029.352500", "145030.140000", "145030.927500", "145031.717500", "145032.505000", "145033.292500", "145034.082500", "145034.870000", "145035.657500", "145036.445000", "145037.235000", "145038.022500", "145038.810000", "145039.597500", "145040.387500", "145041.175000", "145041.962500", "145042.750000", "145043.540000", "145044.327500", "145045.115000", "145045.902500", "145046.692500", "145047.480000", "145048.267500", "145049.055000", "145049.845000", "145050.632500", "145051.420000", "145052.210000", "145052.997500", "145053.785000", "145054.572500", "145055.362500", "145056.150000", "145056.937500", "145057.725000", "145058.515000", "145059.302500", "145100.090000", "145100.877500", "145101.667500", "145102.455000", "145103.242500", "145104.030000", "145104.820000", "145105.607500", "145106.395000", "145107.182500", "145107.972500", "145108.760000", "145109.547500", "145110.337500", "145111.125000", "145111.912500", "145112.700000", "145113.490000", "145114.277500", "145115.065000", "145115.852500", "145116.642500", "145117.430000", "145118.217500", "145119.005000", "145119.795000", "145120.582500", "145121.370000", "145122.157500", "145122.947500", "145123.735000", "145124.522500", "145125.310000", "145126.100000", "145126.887500", "145127.675000", "145128.465000", "145129.252500", "145130.040000", "145130.827500", "145131.617500", "145132.405000", "145133.192500", "145133.980000", "145134.770000", "145135.557500", "145136.345000", "145137.132500", "145137.922500", "145138.710000", "145139.497500", "145140.285000", "145141.075000", "145141.862500", "145142.650000", "145143.437500", "145144.227500", "145145.015000", "145145.802500", "145146.592500", "145147.380000", "145148.167500", "145148.955000", "145149.745000", "145150.532500", "145151.320000", "145152.107500", "145152.897500", "145153.685000", "145154.472500", "145155.260000", "145156.050000", "145156.837500", "145157.625000", "145158.412500", "145159.202500", "145159.990000", "145200.777500", "145201.565000", "145202.355000", "145203.142500", "145203.930000", "145204.720000", "145205.507500", "145206.295000", "145207.082500", "145207.872500", "145208.660000", "145209.447500", "145210.235000", "145211.025000", "145211.812500", "145212.600000", "145213.387500", "145214.177500", "145214.965000", "145215.752500", "145216.540000", "145217.330000", "145218.117500", "145218.905000", "145219.692500", "145220.482500", "145221.270000", "145222.057500", "145222.847500", "145223.635000", "145224.422500", "145225.210000", "145226.000000", "145226.787500", "145227.575000", "145228.362500", "145229.152500", "145229.940000", "145230.727500", "145231.515000", "145232.305000", "145233.092500", "145233.880000", "145234.667500", "145235.457500", "145236.245000", "145237.032500", "145237.822500", "145238.610000", "145239.397500", "145240.185000", "145240.975000", "145241.762500", "145242.550000", "145243.337500", "145244.127500", "145244.915000", "145245.702500", "145246.490000", "145247.280000", "145248.067500", "145248.855000", "145249.642500", "145250.432500", "145251.220000", "145252.007500", "145252.795000", "145253.585000", "145254.372500", "145255.160000", "145255.950000", "145256.737500", "145257.525000", "145258.312500", "145259.102500", "145259.890000", "145300.677500", "145301.465000", "145302.255000", "145303.042500", "145303.830000", "145304.617500", "145305.407500", "145306.195000", "145306.982500", "145307.770000", "145308.560000", "145309.347500", "145310.135000", "145310.922500", "145311.712500", "145312.500000", "145313.287500", "145314.077500", "145314.865000", "145315.652500", "145316.440000", "145317.230000", "145318.017500", "145318.805000", "145319.592500", "145320.382500", "145321.170000", "145321.957500", "145322.745000", "145323.535000", "145324.322500", "145325.110000", "145325.897500", "145326.687500", "145327.475000", "145328.262500", "145329.050000", "145329.840000", "145330.627500", "145331.415000", "145332.205000", "145332.992500", "145333.780000", "145334.567500", "145335.357500", "145336.145000", "145336.932500", "145337.720000", "145338.510000", "145339.297500", "145340.085000", "145340.872500", "145341.662500", "145342.450000", "145343.237500", "145344.025000", "145344.815000", "145345.602500", "145346.390000", "145347.177500", "145347.967500", "145348.755000", "145349.542500", "145350.332500", "145351.120000", "145351.907500", "145352.695000", "145353.485000", "145354.272500", "145355.060000", "145355.847500", "145356.637500", "145357.425000", "145358.212500", "145359.000000", "145359.790000", "145400.577500", "145401.365000", "145402.152500", "145402.942500", "145403.730000", "145404.517500", "145405.305000", "145406.095000", "145406.882500", "145407.670000", "145408.460000", "145409.247500", "145410.035000", "145410.822500", "145411.612500", "145412.400000", "145413.187500", "145413.975000", "145414.765000", "145415.552500", "145416.340000", "145417.127500", "145417.917500", "145418.705000", "145419.492500", "145420.280000", "145421.070000", "145421.857500", "145422.645000", "145423.432500", "145424.222500", "145425.010000", "145425.797500", "145426.587500", "145427.375000", "145428.162500", "145428.950000", "145429.740000", "145430.527500", "145431.315000", "145432.102500", "145432.892500", "145433.680000", "145434.467500", "145435.255000", "145436.045000", "145436.832500", "145437.620000", "145438.407500", "145439.197500", "145439.985000", "145440.772500", "145441.560000", "145442.350000", "145443.137500", "145443.925000", "145444.715000", "145445.502500", "145446.290000", "145447.077500", "145447.867500", "145448.655000", "145449.442500", "145450.230000", "145451.020000", "145451.807500", "145452.595000", "145453.382500", "145454.172500", "145454.960000", "145455.747500", "145456.535000", "145457.325000", "145458.112500", "145458.900000", "145459.687500", "145500.477500", "145501.265000", "145502.052500", "145502.842500", "145503.630000", "145504.417500", "145505.205000", "145505.995000", "145506.782500", "145507.570000", "145508.357500", "145509.147500", "145509.935000", "145510.722500", "145511.510000", "145512.300000", "145513.087500", "145513.875000", "145514.662500", "145515.452500", "145516.240000", "145517.027500", "145517.815000", "145518.605000", "145519.392500", "145520.180000", "145520.970000", "145521.757500", "145522.545000", "145523.332500", "145524.122500", "145524.910000", "145525.697500", "145526.485000", "145527.275000", "145528.062500", "145528.850000", "145529.637500", "145530.427500", "145531.215000", "145532.002500", "145532.790000", "145533.580000", "145534.367500", "145535.155000", "145535.942500", "145536.732500", "145537.520000", "145538.307500", "145539.097500", "145539.885000", "145540.672500", "145541.460000", "145542.250000", "145543.037500", "145543.825000", "145544.612500", "145545.402500", "145546.190000", "145546.977500", "145547.765000", "145548.555000", "145549.342500", "145550.130000", "145550.917500", "145551.707500", "145552.495000", "145553.282500", "145554.072500", "145554.860000", "145555.647500", "145556.435000", "145557.225000", "145558.012500", "145558.800000", "145559.587500", "145600.377500", "145601.165000", "145601.952500", "145602.740000", "145603.530000", "145604.317500", "145605.105000", "145605.892500", "145606.682500", "145607.470000", "145608.257500", "145609.045000", "145609.835000", "145610.622500", "145611.410000", "145612.200000", "145612.987500", "145613.775000", "145614.562500", "145615.352500", "145616.140000", "145616.927500", "145617.715000", "145618.505000", "145619.292500", "145620.080000", "145620.867500", "145621.657500", "145622.445000", "145623.232500", "145624.020000", "145624.810000", "145625.597500", "145626.385000", "145627.172500", "145627.962500", "145628.750000", "145629.537500", "145630.327500", "145631.115000", "145631.902500", "145632.690000", "145633.480000", "145634.267500", "145635.055000", "145635.842500", "145636.632500", "145637.420000", "145638.207500", "145638.995000", "145639.785000", "145640.572500", "145641.360000", "145642.147500", "145642.937500", "145643.725000", "145644.512500", "145645.300000", "145646.090000", "145646.877500", "145647.665000", "145648.455000", "145649.242500", "145650.030000", "145650.817500", "145651.607500", "145652.395000", "145653.182500", "145653.970000", "145654.760000", "145655.547500", "145656.335000", "145657.122500", "145657.912500", "145658.700000", "145659.487500", "145700.275000", "145701.065000", "145701.852500", "145702.640000", "145703.427500", "145704.217500", "145705.005000", "145705.792500", "145706.582500", "145707.370000", "145708.157500", "145708.945000", "145709.735000", "145710.522500", "145711.310000", "145712.097500", "145712.887500", "145713.675000", "145714.462500", "145715.250000", "145716.040000", "145716.827500", "145717.615000", "145718.402500", "145719.192500", "145719.980000", "145720.767500", "145721.555000", "145722.345000", "145723.132500", "145723.920000", "145724.710000", "145725.497500", "145726.285000", "145727.072500", "145727.862500", "145728.650000", "145729.437500", "145730.225000", "145731.015000", "145731.802500", "145732.590000", "145733.377500", "145734.167500", "145734.955000", "145735.742500", "145736.530000", "145737.320000", "145738.107500", "145738.895000", "145739.682500", "145740.472500", "145741.260000", "145742.047500", "145742.837500"],
      "ContentTime": ["145034.203000", "145034.203000", "145034.203000", "145034.203000", "145034.218000", "145034.218000", "145034.218000", "145034.218000", "145034.218000", "145034.218000", "145034.218000", "145034.234000", "145034.234000", "145034.234000", "145034.234000", "145034.234000", "145034.234000", "145034.250000", "145034.250000", "145034.250000", "145034.250000", "145034.250000", "145034.250000", "145034.250000", "145034.265000", "145034.265000", "145034.265000", "145034.281000", "145034.281000", "145034.281000", "145034.281000", "145034.281000", "145034.281000", "145054.171000", "145054.171000", "145054.187000", "145054.187000", "145054.187000", "145054.187000", "145054.187000", "145054.187000", "145054.187000", "145054.203000", "145054.203000", "145054.203000", "145054.203000", "145054.203000", "145054.203000", "145054.203000", "145054.218000", "145054.218000", "145054.218000", "145054.218000", "145054.218000", "145054.218000", "145054.218000", "145054.234000", "145054.234000", "145054.234000", "145114.171000", "145114.171000", "145114.187000", "145114.187000", "145114.187000", "145114.187000", "145114.187000", "145114.187000", "145114.203000", "145114.203000", "145114.203000", "145114.203000", "145114.203000", "145114.203000", "145114.218000", "145114.218000", "145114.218000", "145114.218000", "145114.218000", "145114.234000", "145114.234000", "145114.234000", "145114.250000", "145114.250000", "145114.250000", "145134.171000", "145134.171000", "145134.187000", "145134.187000", "145134.187000", "145134.187000", "145134.187000", "145134.187000", "145134.187000", "145134.203000", "145134.203000", "145134.203000", "145134.203000", "145134.203000", "145134.203000", "145134.203000", "145134.218000", "145134.218000", "145134.218000", "145134.218000", "145134.218000", "145134.218000", "145134.218000", "145134.234000", "145134.234000", "145134.234000", "145154.171000", "145154.187000", "145154.187000", "145154.187000", "145154.187000", "145154.187000", "145154.187000", "145154.187000", "145154.203000", "145154.203000", "145154.203000", "145154.203000", "145154.203000", "145154.203000", "145154.203000", "145154.218000", "145154.218000", "145154.218000", "145154.218000", "145154.218000", "145154.218000", "145154.234000", "145154.234000", "145154.234000", "145154.234000", "145214.171000", "145214.171000", "145214.187000", "145214.187000", "145214.187000", "145214.187000", "145214.187000", "145214.187000", "145214.187000", "145214.203000", "145214.203000", "145214.203000", "145214.203000", "145214.203000", "145214.203000", "145214.203000", "145214.218000", "145214.218000", "145214.218000", "145214.218000", "145214.218000", "145214.218000", "145214.218000", "145214.234000", "145214.234000", "145214.234000", "145234.171000", "145234.171000", "145234.187000", "145234.187000", "145234.187000", "145234.187000", "145234.187000", "145234.187000", "145234.187000", "145234.203000", "145234.203000", "145234.203000", "145234.203000", "145234.203000", "145234.203000", "145234.203000", "145234.218000", "145234.218000", "145234.218000", "145234.218000", "145234.218000", "145234.234000", "145234.234000", "145234.234000", "145234.234000", "145254.171000", "145254.171000", "145254.187000", "145254.187000", "145254.187000", "145254.187000", "145254.187000", "145254.187000", "145254.187000", "145254.203000", "145254.203000", "145254.203000", "145254.203000", "145254.203000", "145254.203000", "145254.203000", "145254.218000", "145254.218000", "145254.218000", "145254.218000", "145254.218000", "145254.218000", "145254.234000", "145254.234000", "145254.234000", "145254.234000", "145314.171000", "145314.171000", "145314.187000", "145314.187000", "145314.187000", "145314.187000", "145314.187000", "145314.203000", "145314.203000", "145314.203000", "145314.203000", "145314.203000", "145314.203000", "145314.218000", "145314.218000", "145314.218000", "145314.218000", "145314.218000", "145314.234000", "145314.234000", "145314.234000", "145314.234000", "145314.234000", "145314.234000", "145314.234000", "145334.171000", "145334.171000", "145334.187000", "145334.187000", "145334.187000", "145334.187000", "145334.187000", "145334.187000", "145334.187000", "145334.203000", "145334.203000", "145334.203000", "145334.203000", "145334.203000", "145334.203000", "145334.203000", "145334.218000", "145334.218000", "145334.218000", "145334.218000", "145334.218000", "145334.218000", "145334.218000", "145334.234000", "145334.234000", "145334.234000", "145354.171000", "145354.171000", "145354.187000", "145354.187000", "145354.187000", "145354.187000", "145354.187000", "145354.187000", "145354.187000", "145354.203000", "145354.203000", "145354.203000", "145354.203000", "145354.203000", "145354.203000", "145354.203000", "145354.218000", "145354.218000", "145354.218000", "145354.218000", "145354.218000", "145354.218000", "145354.234000", "145354.234000", "145354.234000", "145414.171000", "145414.171000", "145414.187000", "145414.187000", "145414.187000", "145414.187000", "145414.187000", "145414.187000", "145414.187000", "145414.203000", "145414.203000", "145414.203000", "145414.203000", "145414.203000", "145414.203000", "145414.203000", "145414.218000", "145414.218000", "145414.218000", "145414.218000", "145414.218000", "145414.218000", "145414.218000", "145414.234000", "145414.234000", "145414.234000", "145434.171000", "145434.171000", "145434.187000", "145434.187000", "145434.187000", "145434.187000", "145434.187000", "145434.187000", "145434.203000", "145434.203000", "145434.203000", "145434.203000", "145434.203000", "145434.203000", "145434.203000", "145434.218000", "145434.218000", "145434.218000", "145434.218000", "145434.218000", "145434.218000", "145434.218000", "145434.234000", "145434.234000", "145434.234000", "145454.171000", "145454.171000", "145454.187000", "145454.187000", "145454.187000", "145454.187000", "145454.187000", "145454.187000", "145454.187000", "145454.203000", "145454.203000", "145454.203000", "145454.203000", "145454.203000", "145454.203000", "145454.203000", "145454.218000", "145454.218000", "145454.218000", "145454.218000", "145454.218000", "145454.218000", "145454.218000", "145454.234000", "145454.234000", "145454.234000", "145514.171000", "145514.171000", "145514.187000", "145514.187000", "145514.187000", "145514.187000", "145514.187000", "145514.187000", "145514.187000", "145514.203000", "145514.203000", "145514.203000", "145514.203000", "145514.203000", "145514.203000", "145514.203000", "145514.218000", "145514.218000", "145514.218000", "145514.218000", "145514.218000", "145514.218000", "145514.218000", "145514.234000", "145514.234000", "145534.171000", "145534.171000", "145534.187000", "145534.187000", "145534.187000", "145534.187000", "145534.187000", "145534.187000", "145534.187000", "145534.203000", "145534.203000", "145534.203000", "145534.203000", "145534.203000", "145534.203000", "145534.203000", "145534.218000", "145534.218000", "145534.218000", "145534.218000", "145534.218000", "145534.218000", "145534.218000", "145534.234000", "145534.234000", "145534.234000", "145554.171000", "145554.171000", "145554.187000", "145554.187000", "145554.187000", "145554.187000", "145554.187000", "145554.187000", "145554.187000", "145554.203000", "145554.203000", "145554.203000", "145554.203000", "145554.203000", "145554.203000", "145554.203000", "145554.218000", "145554.218000", "145554.218000", "145554.218000", "145554.218000", "145554.218000", "145554.218000", "145554.234000", "145554.234000", "145614.171000", "145614.171000", "145614.187000", "145614.187000", "145614.187000", "145614.187000", "145614.187000", "145614.203000", "145614.203000", "145614.203000", "145614.203000", "145614.203000", "145614.203000", "145614.203000", "145614.218000", "145614.218000", "145614.218000", "145614.218000", "145614.218000", "145614.218000", "145614.234000", "145614.234000", "145614.234000", "145614.234000", "145614.234000", "145614.234000", "145634.171000", "145634.171000", "145634.187000", "145634.187000", "145634.187000", "145634.187000", "145634.203000", "145634.203000", "145634.203000", "145634.203000", "145634.203000", "145634.203000", "145634.203000", "145634.218000", "145634.218000", "145634.218000", "145634.218000", "145634.218000", "145634.218000", "145634.234000", "145634.234000", "145634.234000", "145634.234000", "145634.234000", "145634.234000", "145654.171000", "145654.171000", "145654.187000", "145654.187000", "145654.187000", "145654.187000", "145654.187000", "145654.187000", "145654.187000", "145654.203000", "145654.203000", "145654.203000", "145654.218000", "145654.218000", "145654.218000", "145654.218000", "145654.218000", "145654.218000", "145654.218000", "145654.234000", "145654.234000", "145654.234000", "145654.234000", "145654.234000", "145654.234000", "145714.171000", "145714.171000", "145714.187000", "145714.187000", "145714.187000", "145714.187000", "145714.187000", "145714.187000", "145714.187000", "145714.203000", "145714.203000", "145714.203000", "145714.203000", "145714.218000", "145714.218000", "145714.218000", "145714.218000", "145714.218000", "145714.218000", "145714.234000", "145714.234000", "145714.234000", "145714.234000", "145714.234000", "145714.234000", "145714.234000", "145734.171000", "145734.171000", "145734.187000", "145734.187000", "145734.187000", "145734.187000", "145734.187000", "145734.187000", "145734.203000", "145734.203000", "145734.203000", "145734.203000", "145734.203000", "145734.203000", "145734.203000", "145734.218000", "145734.218000", "145734.218000", "145734.218000", "145734.218000", "145734.218000", "145734.234000", "145734.234000", "145734.234000", "145734.234000", "145743.687000", "145743.703000", "145743.703000", "145743.703000", "145743.703000", "145743.703000", "145743.703000", "145743.718000", "145743.718000", "145743.718000", "145743.718000", "145743.718000", "145743.718000"],
