{
  "AcquisitionMatrixPE": 104,
  "AcquisitionNumber": 1,
  "AcquisitionTime": "14:58:16.740000",
  "BandwidthPerPixelPhaseEncode": 13.935,
  "BaseResolution": 104,
  "CoilString": "C:HEA;HEP",
  "ConversionSoftware": "dcm2niix",
  "ConversionSoftwareVersion": "v1.0.20210317",
  "DerivedVendorReportedEchoSpacing": 0.000690017,
  "DeviceSerialNumber": "35450",
  "DwellTime": 2.5e-06,
  "EchoTime": 0.0348,
  "EffectiveEchoSpacing": 0.000690017,
  "FlipAngle": 55,
  "ImageComments": "Unaliased MB8/PE3 (remote)",
  "ImageOrientationPatientDICOM": [1, 6.84196e-05, -0.000955351, 1.68566e-08, 0.997444, 0.0714518],
  "ImageType": [
    "ORIGINAL",
    "PRIMARY",
    "M",
    "MB",
    "ND",
    "MOSAIC"
],
  "ImagingFrequency": 123.234,
  "InPlanePhaseEncodingDirectionDICOM": "COL",
  "InstitutionAddress": "Univeristy Ave. 197,Newark,North East,US,07102-1814",
  "InstitutionName": "RUBIC",
  "InstitutionalDepartmentName": "Department",
  "MRAcquisitionType": "2D",
  "MagneticFieldStrength": 3,
  "Manufacturer": "Siemens",
  "ManufacturersModelName": "TrioTim",
  "Modality": "MR",
  "MultibandAccelerationFactor": 8,
  "PartialFourier": 0.875,
  "PatientPosition": "HFS",
  "PercentPhaseFOV": 100,
  "PercentSampling": 100,
  "PhaseEncodingDirection": "j-",
  "PhaseEncodingSteps": 91,
  "PhaseResolution": 1,
  "PixelBandwidth": 1923,
  "ProcedureStepDescription": "Cole^Michael",
  "ProtocolName": "cmrr_mbep2d_bold_2mm_MB8_Task_8x",
  "PulseSequenceDetails": "%CustomerSeq%\\cmrr_mbep2d_bold",
  "ReceiveCoilName": "32Ch_Head",
  "ReconMatrixPE": 104,
  "RepetitionTime": 0.785,
  "SAR": 0.135941,
  "ScanOptions": "PFP\\FS",
  "ScanningSequence": "EP",
  "SequenceName": "epfid2d1_104",
  "SequenceVariant": "SK\\SS",
  "SeriesDescription": "cmrr_mbep2d_bold_2mm_MB8_Task_8x",
  "SeriesNumber": 17,
  "ShimSetting": [2146, -462, -7262, 656, 43, -217, 95, -110],
  "SliceThickness": 2,
  "SliceTiming": [0, 0.4375, 0.0875, 0.525, 0.175, 0.6125, 0.2625, 0.7, 0.35, 0, 0.4375, 0.0875, 0.525, 0.175, 0.6125, 0.2625, 0.7, 0.35, 0, 0.4375, 0.0875, 0.525, 0.175, 0.6125, 0.2625, 0.7, 0.35, 0, 0.4375, 0.0875, 0.525, 0.175, 0.6125, 0.2625, 0.7, 0.35, 0, 0.4375, 0.0875, 0.525, 0.175, 0.6125, 0.2625, 0.7, 0.35, 0, 0.4375, 0.0875, 0.525, 0.175, 0.6125, 0.2625, 0.7, 0.35, 0, 0.4375, 0.0875, 0.525, 0.175, 0.6125, 0.2625, 0.7, 0.35, 0, 0.4375, 0.0875, 0.525, 0.175, 0.6125, 0.2625, 0.7, 0.35],
  "SoftwareVersions": "syngo MR B19",
  "SpacingBetweenSlices": 2,
  "StationName": "MRC35450",
  "TaskName": "cpro",
  "TotalReadoutTime": 0.0710717,
  "TxRefAmp": 319.123,
  "dcmmeta_affine": [
    [-1.9999990463256836, 3.371319223788305e-08, -0.0019155960762873292, 103.4375228881836],
    [-0.00013683915312867612, 1.9948880672454834, 0.14290353655815125, -90.49109649658203],
    [-0.0019107023254036903, -0.14290359616279602, 1.9948872327804565, -76.42567443847656],
    [0.0, 0.0, 0.0, 1.0]
],
  "dcmmeta_reorient_transform": [
    [0.0, -1.0, 0.0, 103.0],
    [1.0, 0.0, 0.0, 0.0],
    [0.0, 0.0, 1.0, 0.0],
    [0.0, 0.0, 0.0, 1.0]
],
  "dcmmeta_shape": [104, 104, 72, 581],
  "dcmmeta_slice_dim": 2,
  "dcmmeta_version": 0.6,
  "global": {
    "const": {
      "AcquisitionMatrix": [104, 0, 0, 104],
      "AngioFlag": "N",
      "BitsAllocated": 16,
      "BitsStored": 12,
      "Columns": 936,
      "EchoNumbers": 1,
      "EchoTime": 34.8,
      "EchoTrainLength": 1,
      "FlipAngle": 55.0,
      "HighBit": 11,
      "ImageOrientationPatient": [0.99999954131135, 6.841958003e-05, -0.0009553511626, 1.6856596e-08, 0.99744405373379, 0.07145179963515],
      "ImagePositionPatient": [-935.43715761314, -944.91275530586, -149.79779375128],
      "ImageType": [
        "ORIGINAL",
        "PRIMARY",
        "M",
        "MB",
        "ND",
        "MOSAIC"
],
      "ImagedNucleus": "1H",
      "ImagingFrequency": 123.234447,
      "InPlanePhaseEncodingDirection": "COL",
      "MRAcquisitionType": "2D",
      "MagneticFieldStrength": 3.0,
      "Manufacturer": "SIEMENS",
      "ManufacturerModelName": "TrioTim",
      "Modality": "MR",
      "NumberOfAverages": 1.0,
      "NumberOfPhaseEncodingSteps": 91,
      "PercentPhaseFieldOfView": 100.0,
      "PercentSampling": 100.0,
      "PerformedProcedureStepStartTime": "135118.468000",
      "PhotometricInterpretation": "MONOCHROME2",
      "PixelBandwidth": 1923.0,
      "PixelRepresentation": 0,
      "PixelSpacing": [2.0, 2.0],
      "ProtocolName": "cmrr_mbep2d_bold_2mm_MB8_Task_8x",
      "RepetitionTime": 785.0,
      "Rows": 936,
      "SAR": 0.13594079322916,
      "SamplesPerPixel": 1,
      "ScanOptions": [
        "PFP",
        "FS"
],
      "ScanningSequence": "EP",
      "SequenceName": "epfid2d1_104",
      "SequenceVariant": [
        "SK",
        "SS"
],
      "SeriesDescription": "cmrr_mbep2d_bold_2mm_MB8_Task_8x",
      "SeriesNumber": 17,
      "SeriesTime": "145836.671000",
      "SliceLocation": -82.795124067893,
      "SliceThickness": 2.0,
      "SmallestImagePixelValue": 0,
      "SoftwareVersions": "syngo MR B19",
      "SpacingBetweenSlices": 1.9999999856299,
      "SpecificCharacterSet": "ISO_IR 100",
      "StudyID": "1",
      "StudyTime": "135118.390000",
      "TransmitCoilName": "Body",
      "VariableFlipAngleFlag": "N",
      "WindowCenterWidthExplanation": "Algo1",
      "dBdt": 0.0},
    "slices": {}
  },
  "time": {
    "samples": {
      "AcquisitionNumber": [1, 2, 3, 4, 5, 6, 7, 8, 9, 10, 11, 12, 13, 14, 15, 16, 17, 18, 19, 20, 21, 22, 23, 24, 25, 26, 27, 28, 29, 30, 31, 32, 33, 34, 35, 36, 37, 38, 39, 40, 41, 42, 43, 44, 45, 46, 47, 48, 49, 50, 51, 52, 53, 54, 55, 56, 57, 58, 59, 60, 61, 62, 63, 64, 65, 66, 67, 68, 69, 70, 71, 72, 73, 74, 75, 76, 77, 78, 79, 80, 81, 82, 83, 84, 85, 86, 87, 88, 89, 90, 91, 92, 93, 94, 95, 96, 97, 98, 99, 100, 101, 102, 103, 104, 105, 106, 107, 108, 109, 110, 111, 112, 113, 114, 115, 116, 117, 118, 119, 120, 121, 122, 123, 124, 125, 126, 127, 128, 129, 130, 131, 132, 133, 134, 135, 136, 137, 138, 139, 140, 141, 142, 143, 144, 145, 146, 147, 148, 149, 150, 151, 152, 153, 154, 155, 156, 157, 158, 159, 160, 161, 162, 163, 164, 165, 166, 167, 168, 169, 170, 171, 172, 173, 174, 175, 176, 177, 178, 179, 180, 181, 182, 183, 184, 185, 186, 187, 188, 189, 190, 191, 192, 193, 194, 195, 196, 197, 198, 199, 200, 201, 202, 203, 204, 205, 206, 207, 208, 209, 210, 211, 212, 213, 214, 215, 216, 217, 218, 219, 220, 221, 222, 223, 224, 225, 226, 227, 228, 229, 230, 231, 232, 233, 234, 235, 236, 237, 238, 239, 240, 241, 242, 243, 244, 245, 246, 247, 248, 249, 250, 251, 252, 253, 254, 255, 256, 257, 258, 259, 260, 261, 262, 263, 264, 265, 266, 267, 268, 269, 270, 271, 272, 273, 274, 275, 276, 277, 278, 279, 280, 281, 282, 283, 284, 285, 286, 287, 288, 289, 290, 291, 292, 293, 294, 295, 296, 297, 298, 299, 300, 301, 302, 303, 304, 305, 306, 307, 308, 309, 310, 311, 312, 313, 314, 315, 316, 317, 318, 319, 320, 321, 322, 323, 324, 325, 326, 327, 328, 329, 330, 331, 332, 333, 334, 335, 336, 337, 338, 339, 340, 341, 342, 343, 344, 345, 346, 347, 348, 349, 350, 351, 352, 353, 354, 355, 356, 357, 358, 359, 360, 361, 362, 363, 364, 365, 366, 367, 368, 369, 370, 371, 372, 373, 374, 375, 376, 377, 378, 379, 380, 381, 382, 383, 384, 385, 386, 387, 388, 389, 390, 391, 392, 393, 394, 395, 396, 397, 398, 399, 400, 401, 402, 403, 404, 405, 406, 407, 408, 409, 410, 411, 412, 413, 414, 415, 416, 417, 418, 419, 420, 421, 422, 423, 424, 425, 426, 427, 428, 429, 430, 431, 432, 433, 434, 435, 436, 437, 438, 439, 440, 441, 442, 443, 444, 445, 446, 447, 448, 449, 450, 451, 452, 453, 454, 455, 456, 457, 458, 459, 460, 461, 462, 463, 464, 465, 466, 467, 468, 469, 470, 471, 472, 473, 474, 475, 476, 477, 478, 479, 480, 481, 482, 483, 484, 485, 486, 487, 488, 489, 490, 491, 492, 493, 494, 495, 496, 497, 498, 499, 500, 501, 502, 503, 504, 505, 506, 507, 508, 509, 510, 511, 512, 513, 514, 515, 516, 517, 518, 519, 520, 521, 522, 523, 524, 525, 526, 527, 528, 529, 530, 531, 532, 533, 534, 535, 536, 537, 538, 539, 540, 541, 542, 543, 544, 545, 546, 547, 548, 549, 550, 551, 552, 553, 554, 555, 556, 557, 558, 559, 560, 561, 562, 563, 564, 565, 566, 567, 568, 569, 570, 571, 572, 573, 574, 575, 576, 577, 578, 579, 580, 581],
      "AcquisitionTime": ["145816.740000", "145817.527500", "145818.317500", "145819.105000", "145819.892500", "145820.680000", "145821.470000", "145822.257500", "145823.045000", "145823.832500", "145824.622500", "145825.410000", "145826.197500", "145826.987500", "145827.775000", "145828.562500", "145829.350000", "145830.140000", "145830.927500", "145831.715000", "145832.502500", "145833.292500", "145834.080000", "145834.867500", "145835.655000", "145836.445000", "145837.232500", "145838.020000", "145838.807500", "145839.597500", "145840.385000", "145841.172500", "145841.960000", "145842.750000", "145843.537500", "145844.325000", "145845.115000", "145845.902500", "145846.690000", "145847.477500", "145848.267500", "145849.055000", "145849.842500", "145850.630000", "145851.420000", "145852.207500", "145852.995000", "145853.782500", "145854.572500", "145855.360000", "145856.147500", "145856.935000", "145857.725000", "145858.512500", "145859.300000", "145900.090000", "145900.877500", "145901.665000", "145902.452500", "145903.242500", "145904.030000", "145904.817500", "145905.605000", "145906.395000", "145907.182500", "145907.970000", "145908.757500", "145909.547500", "145910.335000", "145911.122500", "145911.910000", "145912.700000", "145913.487500", "145914.275000", "145915.062500", "145915.852500", "145916.640000", "145917.427500", "145918.217500", "145919.005000", "145919.792500", "145920.580000", "145921.370000", "145922.157500", "145922.945000", "145923.732500", "145924.522500", "145925.310000", "145926.097500", "145926.885000", "145927.675000", "145928.462500", "145929.250000", "145930.037500", "145930.827500", "145931.615000", "145932.402500", "145933.190000", "145933.980000", "145934.767500", "145935.555000", "145936.345000", "145937.132500", "145937.920000", "145938.707500", "145939.497500", "145940.285000", "145941.072500", "145941.860000", "145942.650000", "145943.437500", "145944.225000", "145945.012500", "145945.802500", "145946.590000", "145947.377500", "145948.165000", "145948.955000", "145949.742500", "145950.530000", "145951.317500", "145952.107500", "145952.895000", "145953.682500", "145954.472500", "145955.260000", "145956.047500", "145956.835000", "145957.625000", "145958.412500", "145959.200000", "145959.987500", "150000.777500", "150001.565000", "150002.352500", "150003.140000", "150003.930000", "150004.717500", "150005.505000", "150006.292500", "150007.082500", "150007.870000", "150008.657500", "150009.445000", "150010.235000", "150011.022500", "150011.810000", "150012.600000", "150013.387500", "150014.175000", "150014.962500", "150015.752500", "150016.540000", "150017.327500", "150018.115000", "150018.905000", "150019.692500", "150020.480000", "150021.267500", "150022.057500", "150022.845000", "150023.632500", "150024.420000", "150025.210000", "150025.997500", "150026.785000", "150027.572500", "150028.362500", "150029.150000", "150029.937500", "150030.727500", "150031.515000", "150032.302500", "150033.090000", "150033.880000", "150034.667500", "150035.455000", "150036.242500", "150037.032500", "150037.820000", "150038.607500", "150039.395000", "150040.185000", "150040.972500", "150041.760000", "150042.547500", "150043.337500", "150044.125000", "150044.912500", "150045.700000", "150046.490000", "150047.277500", "150048.065000", "150048.855000", "150049.642500", "150050.430000", "150051.217500", "150052.007500", "150052.795000", "150053.582500", "150054.370000", "150055.160000", "150055.947500", "150056.735000", "150057.522500", "150058.312500", "150059.100000", "150059.887500", "150100.675000", "150101.465000", "150102.252500", "150103.040000", "150103.827500", "150104.617500", "150105.405000", "150106.192500", "150106.982500", "150107.770000", "150108.557500", "150109.345000", "150110.135000", "150110.922500", "150111.710000", "150112.497500", "150113.287500", "150114.075000", "150114.862500", "150115.650000", "150116.440000", "150117.227500", "150118.015000", "150118.802500", "150119.592500", "150120.380000", "150121.167500", "150121.955000", "150122.745000", "150123.532500", "150124.320000", "150125.110000", "150125.897500", "150126.685000", "150127.472500", "150128.262500", "150129.050000", "150129.837500", "150130.625000", "150131.415000", "150132.202500", "150132.990000", "150133.777500", "150134.567500", "150135.355000", "150136.142500", "150136.930000", "150137.720000", "150138.507500", "150139.295000", "150140.082500", "150140.872500", "150141.660000", "150142.447500", "150143.237500", "150144.025000", "150144.812500", "150145.600000", "150146.390000", "150147.177500", "150147.965000", "150148.752500", "150149.542500", "150150.330000", "150151.117500", "150151.905000", "150152.695000", "150153.482500", "150154.270000", "150155.057500", "150155.847500", "150156.635000", "150157.422500", "150158.210000", "150159.000000", "150159.787500", "150200.575000", "150201.365000", "150202.152500", "150202.940000", "150203.727500", "150204.517500", "150205.305000", "150206.092500", "150206.880000", "150207.670000", "150208.457500", "150209.245000", "150210.032500", "150210.822500", "150211.610000", "150212.397500", "150213.185000", "150213.975000", "150214.762500", "150215.550000", "150216.340000", "150217.127500", "150217.915000", "150218.702500", "150219.492500", "150220.280000", "150221.067500", "150221.855000", "150222.645000", "150223.432500", "150224.220000", "150225.007500", "150225.797500", "150226.585000", "150227.372500", "150228.160000", "150228.950000", "150229.737500", "150230.525000", "150231.312500", "150232.102500", "150232.890000", "150233.677500", "150234.467500", "150235.255000", "150236.042500", "150236.830000", "150237.620000", "150238.407500", "150239.195000", "150239.982500", "150240.772500", "150241.560000", "150242.347500", "150243.135000", "150243.925000", "150244.712500", "150245.500000", "150246.287500", "150247.077500", "150247.865000", "150248.652500", "150249.440000", "150250.230000", "150251.017500", "150251.805000", "150252.595000", "150253.382500", "150254.170000", "150254.957500", "150255.747500", "150256.535000", "150257.322500", "150258.110000", "150258.900000", "150259.687500", "150300.475000", "150301.262500", "150302.052500", "150302.840000", "150303.627500", "150304.415000", "150305.205000", "150305.992500", "150306.780000", "150307.567500", "150308.357500", "150309.145000", "150309.932500", "150310.722500", "150311.510000", "150312.297500", "150313.085000", "150313.875000", "150314.662500", "150315.450000", "150316.237500", "150317.027500", "150317.815000", "150318.602500", "150319.390000", "150320.180000", "150320.967500", "150321.755000", "150322.542500", "150323.332500", "150324.120000", "150324.907500", "150325.695000", "150326.485000", "150327.272500", "150328.060000", "150328.850000", "150329.637500", "150330.425000", "150331.212500", "150332.002500", "150332.790000", "150333.577500", "150334.365000", "150335.155000", "150335.942500", "150336.730000", "150337.517500", "150338.307500", "150339.095000", "150339.882500", "150340.670000", "150341.460000", "150342.247500", "150343.035000", "150343.822500", "150344.612500", "150345.400000", "150346.187500", "150346.977500", "150347.765000", "150348.552500", "150349.340000", "150350.130000", "150350.917500", "150351.705000", "150352.492500", "150353.282500", "150354.070000", "150354.857500", "150355.645000", "150356.435000", "150357.222500", "150358.010000", "150358.797500", "150359.587500", "150400.375000", "150401.162500", "150401.950000", "150402.740000", "150403.527500", "150404.315000", "150405.105000", "150405.892500", "150406.680000", "150407.467500", "150408.257500", "150409.045000", "150409.832500", "150410.620000", "150411.410000", "150412.197500", "150412.985000", "150413.772500", "150414.562500", "150415.350000", "150416.137500", "150416.925000", "150417.715000", "150418.502500", "150419.290000", "150420.077500", "150420.867500", "150421.655000", "150422.442500", "150423.232500", "150424.020000", "150424.807500", "150425.595000", "150426.385000", "150427.172500", "150427.960000", "150428.747500", "150429.537500", "150430.325000", "150431.112500", "150431.900000", "150432.690000", "150433.477500", "150434.265000", "150435.052500", "150435.842500", "150436.630000", "150437.417500", "150438.205000", "150438.995000", "150439.782500", "150440.570000", "150441.360000", "150442.147500", "150442.935000", "150443.722500", "150444.512500", "150445.300000", "150446.087500", "150446.875000", "150447.665000", "150448.452500", "150449.240000", "150450.027500", "150450.817500", "150451.605000", "150452.392500", "150453.180000", "150453.970000", "150454.757500", "150455.545000", "150456.332500", "150457.122500", "150457.910000", "150458.697500", "150459.487500", "150500.275000", "150501.062500", "150501.850000", "150502.640000", "150503.427500", "150504.215000", "150505.002500", "150505.792500", "150506.580000", "150507.367500", "150508.155000", "150508.945000", "150509.732500", "150510.520000", "150511.307500", "150512.097500", "150512.885000", "150513.672500", "150514.460000", "150515.250000", "150516.037500", "150516.825000", "150517.615000", "150518.402500", "150519.190000", "150519.977500", "150520.767500", "150521.555000", "150522.342500", "150523.130000", "150523.920000", "150524.707500", "150525.495000", "150526.282500", "150527.072500", "150527.860000", "150528.647500", "150529.435000", "150530.225000", "150531.012500", "150531.800000", "150532.590000", "150533.377500", "150534.165000", "150534.952500", "150535.742500", "150536.530000", "150537.317500", "150538.105000", "150538.895000", "150539.682500", "150540.470000", "150541.257500", "150542.047500", "150542.835000", "150543.622500", "150544.410000", "150545.200000", "150545.987500", "150546.775000", "150547.562500", "150548.352500", "150549.140000", "150549.927500", "150550.717500", "150551.505000", "150552.292500", "150553.080000", "150553.870000"],
      "ContentTime": ["145836.671000", "145836.671000", "145836.671000", "145836.671000", "145836.671000", "145836.671000", "145836.687000", "145836.687000", "145836.687000", "145836.687000", "145836.687000", "145836.687000", "145836.687000", "145836.703000", "145836.703000", "145836.703000", "145836.703000", "145836.703000", "145836.703000", "145836.703000", "145836.718000", "145836.718000", "145836.718000", "145856.640000", "145856.640000", "145856.656000", "145856.656000", "145856.656000", "145856.656000", "145856.656000", "145856.656000", "145856.656000", "145856.671000", "145856.671000", "145856.671000", "145856.671000", "145856.671000", "145856.671000", "145856.671000", "145856.687000", "145856.687000", "145856.687000", "145856.687000", "145856.687000", "145856.687000", "145856.687000", "145856.703000", "145856.703000", "145916.640000", "145916.640000", "145916.656000", "145916.656000", "145916.656000", "145916.656000", "145916.656000", "145916.656000", "145916.656000", "145916.671000", "145916.671000", "145916.671000", "145916.671000", "145916.671000", "145916.671000", "145916.687000", "145916.687000", "145916.687000", "145916.687000", "145916.687000", "145916.687000", "145916.687000", "145916.703000", "145916.703000", "145916.703000", "145916.703000", "145936.640000", "145936.640000", "145936.656000", "145936.656000", "145936.656000", "145936.656000", "145936.656000", "145936.656000", "145936.671000", "145936.671000", "145936.671000", "145936.671000", "145936.671000", "145936.687000", "145936.687000", "145936.687000", "145936.687000", "145936.687000", "145936.687000", "145936.703000", "145936.703000", "145936.703000", "145936.703000", "145936.703000", "145936.703000", "145956.640000", "145956.640000", "145956.656000", "145956.656000", "145956.656000", "145956.656000", "145956.656000", "145956.656000", "145956.656000", "145956.671000", "145956.671000", "145956.671000", "145956.671000", "145956.671000", "145956.671000", "145956.671000", "145956.687000", "145956.687000", "145956.687000", "145956.687000", "145956.687000", "145956.703000", "145956.703000", "145956.703000", "145956.703000", "145956.703000", "150016.640000", "150016.640000", "150016.656000", "150016.656000", "150016.656000", "150016.656000", "150016.656000", "150016.656000", "150016.656000", "150016.671000", "150016.671000", "150016.671000", "150016.671000", "150016.671000", "150016.671000", "150016.671000", "150016.687000", "150016.687000", "150016.687000", "150016.687000", "150016.687000", "150016.687000", "150016.687000", "150016.703000", "150016.703000", "150036.640000", "150036.640000", "150036.656000", "150036.656000", "150036.656000", "150036.656000", "150036.656000", "150036.656000", "150036.671000", "150036.671000", "150036.671000", "150036.671000", "150036.671000", "150036.671000", "150036.687000", "150036.687000", "150036.687000", "150036.687000", "150036.687000", "150036.703000", "150036.703000", "150036.703000", "150036.703000", "150036.703000", "150036.703000", "150036.703000", "150056.640000", "150056.656000", "150056.656000", "150056.656000", "150056.656000", "150056.656000", "150056.656000", "150056.671000", "150056.671000", "150056.671000", "150056.671000", "150056.671000", "150056.671000", "150056.671000", "150056.687000", "150056.687000", "150056.687000", "150056.687000", "150056.687000", "150056.687000", "150056.687000", "150056.703000", "150056.703000", "150056.703000", "150056.703000", "150116.640000", "150116.640000", "150116.656000", "150116.656000", "150116.656000", "150116.656000", "150116.656000", "150116.656000", "150116.656000", "150116.671000", "150116.671000", "150116.671000", "150116.671000", "150116.671000", "150116.671000", "150116.671000", "150116.687000", "150116.687000", "150116.687000", "150116.687000", "150116.687000", "150116.687000", "150116.687000", "150116.703000", "150116.703000", "150116.703000", "150136.640000", "150136.640000", "150136.656000", "150136.656000", "150136.656000", "150136.656000", "150136.656000", "150136.656000", "150136.656000", "150136.671000", "150136.671000", "150136.671000", "150136.671000", "150136.671000", "150136.687000", "150136.687000", "150136.687000", "150136.687000", "150136.687000", "150136.687000", "150136.687000", "150136.703000", "150136.703000", "150136.703000", "150136.703000", "150156.640000", "150156.640000", "150156.656000", "150156.656000", "150156.656000", "150156.656000", "150156.656000", "150156.656000", "150156.671000", "150156.671000", "150156.671000", "150156.671000", "150156.671000", "150156.671000", "150156.671000", "150156.687000", "150156.687000", "150156.687000", "150156.687000", "150156.687000", "150156.687000", "150156.687000", "150156.703000", "150156.703000", "150156.703000", "150156.703000", "150216.640000", "150216.640000", "150216.656000", "150216.656000", "150216.656000", "150216.656000", "150216.656000", "150216.671000", "150216.671000", "150216.671000", "150216.671000", "150216.671000", "150216.671000", "150216.671000", "150216.687000", "150216.687000", "150216.687000", "150216.687000", "150216.687000", "150216.687000", "150216.687000", "150216.703000", "150216.703000", "150216.703000", "150216.703000", "150236.640000", "150236.640000", "150236.656000", "150236.656000", "150236.656000", "150236.656000", "150236.656000", "150236.656000", "150236.656000", "150236.671000", "150236.671000", "150236.671000", "150236.671000", "150236.671000", "150236.671000", "150236.671000", "150236.687000", "150236.687000", "150236.687000", "150236.687000", "150236.687000", "150236.687000", "150236.687000", "150236.703000", "150236.703000", "150236.703000", "150256.640000", "150256.640000", "150256.656000", "150256.656000", "150256.656000", "150256.656000", "150256.656000", "150256.656000", "150256.656000", "150256.671000", "150256.671000", "150256.671000", "150256.671000", "150256.671000", "150256.671000", "150256.671000", "150256.687000", "150256.687000", "150256.687000", "150256.687000", "150256.687000", "150256.687000", "150256.703000", "150256.703000", "150256.703000", "150316.640000", "150316.640000", "150316.656000", "150316.656000", "150316.656000", "150316.656000", "150316.656000", "150316.656000", "150316.656000", "150316.671000", "150316.671000", "150316.671000", "150316.671000", "150316.671000", "150316.671000", "150316.671000", "150316.687000", "150316.687000", "150316.687000", "150316.687000", "150316.687000", "150316.703000", "150316.703000", "150316.703000", "150316.703000", "150316.703000", "150336.640000", "150336.640000", "150336.656000", "150336.656000", "150336.656000", "150336.656000", "150336.656000", "150336.656000", "150336.671000", "150336.671000", "150336.671000", "150336.671000", "150336.671000", "150336.671000", "150336.671000", "150336.687000", "150336.687000", "150336.687000", "150336.687000", "150336.687000", "150336.703000", "150336.703000", "150336.703000", "150336.703000", "150336.703000", "150356.640000", "150356.640000", "150356.656000", "150356.656000", "150356.656000", "150356.656000", "150356.656000", "150356.671000", "150356.671000", "150356.687000", "150356.687000", "150356.687000", "150356.687000", "150356.687000", "150356.687000", "150356.687000", "150356.703000", "150356.703000", "150356.703000", "150356.703000", "150356.703000", "150356.703000", "150356.703000", "150356.718000", "150356.718000", "150416.640000", "150416.640000", "150416.656000", "150416.656000", "150416.656000", "150416.656000", "150416.656000", "150416.656000", "150416.656000", "150416.671000", "150416.671000", "150416.671000", "150416.671000", "150416.671000", "150416.671000", "150416.671000", "150416.687000", "150416.687000", "150416.687000", "150416.687000", "150416.687000", "150416.687000", "150416.703000", "150416.703000", "150416.703000", "150416.703000", "150436.640000", "150436.656000", "150436.656000", "150436.656000", "150436.656000", "150436.656000", "150436.656000", "150436.656000", "150436.671000", "150436.671000", "150436.671000", "150436.671000", "150436.671000", "150436.671000", "150436.687000", "150436.687000", "150436.687000", "150436.687000", "150436.687000", "150436.687000", "150436.687000", "150436.703000", "150436.703000", "150436.703000", "150436.703000", "150456.640000", "150456.640000", "150456.656000", "150456.656000", "150456.656000", "150456.656000", "150456.656000", "150456.656000", "150456.656000", "150456.671000", "150456.671000", "150456.671000", "150456.671000", "150456.671000", "150456.671000", "150456.671000", "150456.687000", "150456.687000", "150456.687000", "150456.687000", "150456.687000", "150456.687000", "150456.687000", "150456.703000", "150456.703000", "150456.703000", "150516.640000", "150516.640000", "150516.656000", "150516.656000", "150516.656000", "150516.656000", "150516.656000", "150516.656000", "150516.656000", "150516.671000", "150516.671000", "150516.671000", "150516.671000", "150516.671000", "150516.687000", "150516.687000", "150516.687000", "150516.687000", "150516.687000", "150516.687000", "150516.703000", "150516.703000", "150516.703000", "150516.703000", "150516.718000", "150536.640000", "150536.640000", "150536.656000", "150536.656000", "150536.656000", "150536.656000", "150536.656000", "150536.656000", "150536.656000", "150536.671000", "150536.671000", "150536.671000", "150536.671000", "150536.671000", "150536.671000", "150536.671000", "150536.687000", "150536.687000", "150536.687000", "150536.687000", "150536.687000", "150536.687000", "150536.687000", "150536.703000", "150536.703000", "150536.703000", "150554.484000", "150554.484000", "150554.484000", "150554.500000", "150554.500000", "150554.500000", "150554.500000", "150554.500000", "150554.500000", "150554.500000", "150554.515000", "150554.515000", "150554.515000", "150554.515000", "150554.515000", "150554.515000", "150554.515000", "150554.531000", "150554.531000", "150554.531000", "150554.531000", "150554.531000", "150554.546000"],
