{
  "AcquisitionMatrixPE": 104,
  "AcquisitionNumber": 1,
  "AcquisitionTime": "15:57:18.725000",
  "BandwidthPerPixelPhaseEncode": 13.935,
  "BaseResolution": 104,
  "CoilString": "C:HEA;HEP",
  "ConversionSoftware": "dcm2niix",
  "ConversionSoftwareVersion": "v1.0.20210317",
  "DerivedVendorReportedEchoSpacing": 0.000690017,
  "DeviceSerialNumber": "35450",
  "DwellTime": 2.5e-06,
  "EchoTime": 0.0348,
  "EffectiveEchoSpacing": 0.000690017,
  "FlipAngle": 55,
  "ImageComments": "Unaliased MB8/PE3",
  "ImageOrientationPatientDICOM": [1, 1.66966e-07, -1.05239e-05, -1.61649e-09, 0.999877, 0.0157099],
  "ImageType": [
    "ORIGINAL",
    "PRIMARY",
    "M",
    "MB",
    "ND",
    "MOSAIC"
],
  "ImagingFrequency": 123.235,
  "InPlanePhaseEncodingDirectionDICOM": "COL",
  "InstitutionAddress": "Univeristy Ave. 197,Newark,North East,US,07102-1814",
  "InstitutionName": "RUBIC",
  "InstitutionalDepartmentName": "Department",
  "MRAcquisitionType": "2D",
  "MagneticFieldStrength": 3,
  "Manufacturer": "Siemens",
  "ManufacturersModelName": "TrioTim",
  "Modality": "MR",
  "MultibandAccelerationFactor": 8,
  "PartialFourier": 0.875,
  "PatientPosition": "HFS",
  "PercentPhaseFOV": 100,
  "PercentSampling": 100,
  "PhaseEncodingDirection": "j-",
  "PhaseEncodingSteps": 91,
  "PhaseResolution": 1,
  "PixelBandwidth": 1923,
  "ProcedureStepDescription": "Cole^Michael",
  "ProtocolName": "cmrr_mbep2d_bold_2mm_MB8_Task_8x",
  "PulseSequenceDetails": "%CustomerSeq%\\cmrr_mbep2d_bold",
  "ReceiveCoilName": "32Ch_Head",
  "ReconMatrixPE": 104,
  "RepetitionTime": 0.785,
  "SAR": 0.13389,
  "ScanOptions": "PFP\\FS",
  "ScanningSequence": "EP",
  "SequenceName": "epfid2d1_104",
  "SequenceVariant": "SK\\SS",
  "SeriesDescription": "cmrr_mbep2d_bold_2mm_MB8_Task_8x",
  "SeriesNumber": 15,
  "ShimSetting": [2084, -394, -7267, 505, -100, -411, 424, 52],
  "SliceThickness": 2,
  "SliceTiming": [0, 0.4375, 0.0875, 0.525, 0.175, 0.6125, 0.2625, 0.7, 0.35, 0, 0.4375, 0.0875, 0.525, 0.175, 0.6125, 0.2625, 0.7, 0.35, 0, 0.4375, 0.0875, 0.525, 0.175, 0.6125, 0.2625, 0.7, 0.35, 0, 0.4375, 0.0875, 0.525, 0.175, 0.6125, 0.2625, 0.7, 0.35, 0, 0.4375, 0.0875, 0.525, 0.175, 0.6125, 0.2625, 0.7, 0.35, 0, 0.4375, 0.0875, 0.525, 0.175, 0.6125, 0.2625, 0.7, 0.35, 0, 0.4375, 0.0875, 0.525, 0.175, 0.6125, 0.2625, 0.7, 0.35, 0, 0.4375, 0.0875, 0.525, 0.175, 0.6125, 0.2625, 0.7, 0.35],
  "SoftwareVersions": "syngo MR B19",
  "SpacingBetweenSlices": 2,
  "StationName": "MRC35450",
  "TaskName": "cpro",
  "TotalReadoutTime": 0.0710717,
  "TxRefAmp": 351.498,
  "dcmmeta_affine": [
    [-2.0, -3.232978107448048e-09, -2.105039129673969e-05, 106.00995635986328],
    [-3.3393141052329156e-07, 1.9997532367706299, 0.03141973167657852, -82.43989562988281],
    [-2.1047742848168127e-05, -0.03141973167657852, 1.9997531175613403, -94.73805236816406],
    [0.0, 0.0, 0.0, 1.0]
],
  "dcmmeta_reorient_transform": [
    [0.0, -1.0, 0.0, 103.0],
    [1.0, 0.0, 0.0, 0.0],
    [0.0, 0.0, 1.0, 0.0],
    [0.0, 0.0, 0.0, 1.0]
],
  "dcmmeta_shape": [104, 104, 72, 581],
  "dcmmeta_slice_dim": 2,
  "dcmmeta_version": 0.6,
  "global": {
    "const": {
      "AcquisitionMatrix": [104, 0, 0, 104],
      "AngioFlag": "N",
      "BitsAllocated": 16,
      "BitsStored": 12,
      "Columns": 936,
      "EchoNumbers": 1,
      "EchoTime": 34.8,
      "EchoTrainLength": 1,
      "FlipAngle": 55.0,
      "HighBit": 11,
      "ImageOrientationPatient": [0.99999999994461, 1.66965699e-07, -1.05238712e-05, -1.616489e-09, 0.9998765924413, 0.01570986594363],
      "ImagePositionPatient": [-938.00995193396, -955.43214550795, -111.03613691417],
      "ImageType": [
        "ORIGINAL",
        "PRIMARY",
        "M",
        "MB",
        "ND",
        "MOSAIC"
],
      "ImagedNucleus": "1H",
      "ImagingFrequency": 123.234722,
      "InPlanePhaseEncodingDirection": "COL",
      "MRAcquisitionType": "2D",
      "MagneticFieldStrength": 3.0,
      "Manufacturer": "SIEMENS",
      "ManufacturerModelName": "TrioTim",
      "Modality": "MR",
      "NumberOfAverages": 1.0,
      "NumberOfPhaseEncodingSteps": 91,
      "PercentPhaseFieldOfView": 100.0,
      "PercentSampling": 100.0,
      "PerformedProcedureStepStartTime": "143538.906000",
      "PhotometricInterpretation": "MONOCHROME2",
      "PixelBandwidth": 1923.0,
      "PixelRepresentation": 0,
      "PixelSpacing": [2.0, 2.0],
      "ProtocolName": "cmrr_mbep2d_bold_2mm_MB8_Task_8x",
      "RepetitionTime": 785.0,
      "Rows": 936,
      "SAR": 0.13388966697326,
      "SamplesPerPixel": 1,
      "ScanOptions": [
        "PFP",
        "FS"
],
      "ScanningSequence": "EP",
      "SequenceName": "epfid2d1_104",
      "SequenceVariant": [
        "SK",
        "SS"
],
      "SeriesDescription": "cmrr_mbep2d_bold_2mm_MB8_Task_8x",
      "SeriesNumber": 15,
      "SeriesTime": "164029.968000",
      "SliceLocation": -96.022596024229,
      "SliceThickness": 2.0,
      "SmallestImagePixelValue": 0,
      "SoftwareVersions": "syngo MR B19",
      "SpacingBetweenSlices": 1.9999999881239,
      "SpecificCharacterSet": "ISO_IR 100",
      "StudyID": "1",
      "StudyTime": "143538.875000",
      "TransmitCoilName": "Body",
      "VariableFlipAngleFlag": "N",
      "WindowCenterWidthExplanation": "Algo1",
      "dBdt": 0.0},
    "slices": {}
  },
  "time": {
    "samples": {
      "AcquisitionNumber": [1, 2, 3, 4, 5, 6, 7, 8, 9, 10, 11, 12, 13, 14, 15, 16, 17, 18, 19, 20, 21, 22, 23, 24, 25, 26, 27, 28, 29, 30, 31, 32, 33, 34, 35, 36, 37, 38, 39, 40, 41, 42, 43, 44, 45, 46, 47, 48, 49, 50, 51, 52, 53, 54, 55, 56, 57, 58, 59, 60, 61, 62, 63, 64, 65, 66, 67, 68, 69, 70, 71, 72, 73, 74, 75, 76, 77, 78, 79, 80, 81, 82, 83, 84, 85, 86, 87, 88, 89, 90, 91, 92, 93, 94, 95, 96, 97, 98, 99, 100, 101, 102, 103, 104, 105, 106, 107, 108, 109, 110, 111, 112, 113, 114, 115, 116, 117, 118, 119, 120, 121, 122, 123, 124, 125, 126, 127, 128, 129, 130, 131, 132, 133, 134, 135, 136, 137, 138, 139, 140, 141, 142, 143, 144, 145, 146, 147, 148, 149, 150, 151, 152, 153, 154, 155, 156, 157, 158, 159, 160, 161, 162, 163, 164, 165, 166, 167, 168, 169, 170, 171, 172, 173, 174, 175, 176, 177, 178, 179, 180, 181, 182, 183, 184, 185, 186, 187, 188, 189, 190, 191, 192, 193, 194, 195, 196, 197, 198, 199, 200, 201, 202, 203, 204, 205, 206, 207, 208, 209, 210, 211, 212, 213, 214, 215, 216, 217, 218, 219, 220, 221, 222, 223, 224, 225, 226, 227, 228, 229, 230, 231, 232, 233, 234, 235, 236, 237, 238, 239, 240, 241, 242, 243, 244, 245, 246, 247, 248, 249, 250, 251, 252, 253, 254, 255, 256, 257, 258, 259, 260, 261, 262, 263, 264, 265, 266, 267, 268, 269, 270, 271, 272, 273, 274, 275, 276, 277, 278, 279, 280, 281, 282, 283, 284, 285, 286, 287, 288, 289, 290, 291, 292, 293, 294, 295, 296, 297, 298, 299, 300, 301, 302, 303, 304, 305, 306, 307, 308, 309, 310, 311, 312, 313, 314, 315, 316, 317, 318, 319, 320, 321, 322, 323, 324, 325, 326, 327, 328, 329, 330, 331, 332, 333, 334, 335, 336, 337, 338, 339, 340, 341, 342, 343, 344, 345, 346, 347, 348, 349, 350, 351, 352, 353, 354, 355, 356, 357, 358, 359, 360, 361, 362, 363, 364, 365, 366, 367, 368, 369, 370, 371, 372, 373, 374, 375, 376, 377, 378, 379, 380, 381, 382, 383, 384, 385, 386, 387, 388, 389, 390, 391, 392, 393, 394, 395, 396, 397, 398, 399, 400, 401, 402, 403, 404, 405, 406, 407, 408, 409, 410, 411, 412, 413, 414, 415, 416, 417, 418, 419, 420, 421, 422, 423, 424, 425, 426, 427, 428, 429, 430, 431, 432, 433, 434, 435, 436, 437, 438, 439, 440, 441, 442, 443, 444, 445, 446, 447, 448, 449, 450, 451, 452, 453, 454, 455, 456, 457, 458, 459, 460, 461, 462, 463, 464, 465, 466, 467, 468, 469, 470, 471, 472, 473, 474, 475, 476, 477, 478, 479, 480, 481, 482, 483, 484, 485, 486, 487, 488, 489, 490, 491, 492, 493, 494, 495, 496, 497, 498, 499, 500, 501, 502, 503, 504, 505, 506, 507, 508, 509, 510, 511, 512, 513, 514, 515, 516, 517, 518, 519, 520, 521, 522, 523, 524, 525, 526, 527, 528, 529, 530, 531, 532, 533, 534, 535, 536, 537, 538, 539, 540, 541, 542, 543, 544, 545, 546, 547, 548, 549, 550, 551, 552, 553, 554, 555, 556, 557, 558, 559, 560, 561, 562, 563, 564, 565, 566, 567, 568, 569, 570, 571, 572, 573, 574, 575, 576, 577, 578, 579, 580, 581],
      "AcquisitionTime": ["155718.725000", "155719.512500", "155720.302500", "155721.090000", "155721.877500", "155722.665000", "155723.455000", "155724.242500", "155725.030000", "155725.820000", "155726.607500", "155727.395000", "155728.182500", "155728.972500", "155729.760000", "155730.547500", "155731.335000", "155732.125000", "155732.912500", "155733.700000", "155734.487500", "155735.277500", "155736.065000", "155736.852500", "155737.640000", "155738.430000", "155739.217500", "155740.005000", "155740.792500", "155741.582500", "155742.370000", "155743.157500", "155743.947500", "155744.735000", "155745.522500", "155746.310000", "155747.100000", "155747.887500", "155748.675000", "155749.462500", "155750.252500", "155751.040000", "155751.827500", "155752.615000", "155753.405000", "155754.192500", "155754.980000", "155755.767500", "155756.557500", "155757.345000", "155758.132500", "155758.920000", "155759.710000", "155800.497500", "155801.285000", "155802.075000", "155802.862500", "155803.650000", "155804.437500", "155805.227500", "155806.015000", "155806.802500", "155807.590000", "155808.380000", "155809.167500", "155809.955000", "155810.742500", "155811.532500", "155812.320000", "155813.107500", "155813.895000", "155814.685000", "155815.472500", "155816.260000", "155817.047500", "155817.837500", "155818.625000", "155819.412500", "155820.202500", "155820.990000", "155821.777500", "155822.565000", "155823.355000", "155824.142500", "155824.930000", "155825.717500", "155826.507500", "155827.295000", "155828.082500", "155828.870000", "155829.660000", "155830.447500", "155831.235000", "155832.022500", "155832.812500", "155833.600000", "155834.387500", "155835.175000", "155835.965000", "155836.752500", "155837.540000", "155838.330000", "155839.117500", "155839.905000", "155840.692500", "155841.482500", "155842.270000", "155843.057500", "155843.845000", "155844.635000", "155845.422500", "155846.210000", "155846.997500", "155847.787500", "155848.575000", "155849.362500", "155850.150000", "155850.940000", "155851.727500", "155852.515000", "155853.302500", "155854.092500", "155854.880000", "155855.667500", "155856.457500", "155857.245000", "155858.032500", "155858.820000", "155859.610000", "155900.397500", "155901.185000", "155901.972500", "155902.762500", "155903.550000", "155904.337500", "155905.125000", "155905.915000", "155906.702500", "155907.490000", "155908.277500", "155909.067500", "155909.855000", "155910.642500", "155911.430000", "155912.220000", "155913.007500", "155913.795000", "155914.585000", "155915.372500", "155916.160000", "155916.947500", "155917.737500", "155918.525000", "155919.312500", "155920.100000", "155920.890000", "155921.677500", "155922.465000", "155923.252500", "155924.042500", "155924.830000", "155925.617500", "155926.405000", "155927.195000", "155927.982500", "155928.770000", "155929.557500", "155930.347500", "155931.135000", "155931.922500", "155932.712500", "155933.500000", "155934.287500", "155935.075000", "155935.865000", "155936.652500", "155937.440000", "155938.227500", "155939.017500", "155939.805000", "155940.592500", "155941.380000", "155942.170000", "155942.957500", "155943.745000", "155944.532500", "155945.322500", "155946.110000", "155946.897500", "155947.685000", "155948.475000", "155949.262500", "155950.050000", "155950.840000", "155951.627500", "155952.415000", "155953.202500", "155953.992500", "155954.780000", "155955.567500", "155956.355000", "155957.145000", "155957.932500", "155958.720000", "155959.507500", "160000.297500", "160001.085000", "160001.872500", "160002.660000", "160003.450000", "160004.237500", "160005.025000", "160005.812500", "160006.602500", "160007.390000", "160008.177500", "160008.967500", "160009.755000", "160010.542500", "160011.330000", "160012.120000", "160012.907500", "160013.695000", "160014.482500", "160015.272500", "160016.060000", "160016.847500", "160017.635000", "160018.425000", "160019.212500", "160020.000000", "160020.787500", "160021.577500", "160022.365000", "160023.152500", "160023.942500", "160024.730000", "160025.517500", "160026.305000", "160027.095000", "160027.882500", "160028.670000", "160029.457500", "160030.247500", "160031.035000", "160031.822500", "160032.610000", "160033.400000", "160034.187500", "160034.975000", "160035.762500", "160036.552500", "160037.340000", "160038.127500", "160038.915000", "160039.705000", "160040.492500", "160041.280000", "160042.070000", "160042.857500", "160043.645000", "160044.432500", "160045.222500", "160046.010000", "160046.797500", "160047.585000", "160048.375000", "160049.162500", "160049.950000", "160050.737500", "160051.527500", "160052.315000", "160053.102500", "160053.890000", "160054.680000", "160055.467500", "160056.255000", "160057.042500", "160057.832500", "160058.620000", "160059.407500", "160100.197500", "160100.985000", "160101.772500", "160102.560000", "160103.350000", "160104.137500", "160104.925000", "160105.712500", "160106.502500", "160107.290000", "160108.077500", "160108.865000", "160109.655000", "160110.442500", "160111.230000", "160112.017500", "160112.807500", "160113.595000", "160114.382500", "160115.170000", "160115.960000", "160116.747500", "160117.535000", "160118.325000", "160119.112500", "160119.900000", "160120.687500", "160121.477500", "160122.265000", "160123.052500", "160123.840000", "160124.630000", "160125.417500", "160126.205000", "160126.992500", "160127.782500", "160128.570000", "160129.357500", "160130.145000", "160130.935000", "160131.722500", "160132.510000", "160133.297500", "160134.087500", "160134.875000", "160135.662500", "160136.452500", "160137.240000", "160138.027500", "160138.815000", "160139.605000", "160140.392500", "160141.180000", "160141.967500", "160142.757500", "160143.545000", "160144.332500", "160145.120000", "160145.910000", "160146.697500", "160147.485000", "160148.272500", "160149.062500", "160149.850000", "160150.637500", "160151.425000", "160152.215000", "160153.002500", "160153.790000", "160154.580000", "160155.367500", "160156.155000", "160156.942500", "160157.732500", "160158.520000", "160159.307500", "160200.095000", "160200.885000", "160201.672500", "160202.460000", "160203.247500", "160204.037500", "160204.825000", "160205.612500", "160206.400000", "160207.190000", "160207.977500", "160208.765000", "160209.552500", "160210.342500", "160211.130000", "160211.917500", "160212.707500", "160213.495000", "160214.282500", "160215.070000", "160215.860000", "160216.647500", "160217.435000", "160218.222500", "160219.012500", "160219.800000", "160220.587500", "160221.375000", "160222.165000", "160222.952500", "160223.740000", "160224.527500", "160225.317500", "160226.105000", "160226.892500", "160227.680000", "160228.470000", "160229.257500", "160230.045000", "160230.835000", "160231.622500", "160232.410000", "160233.197500", "160233.987500", "160234.775000", "160235.562500", "160236.350000", "160237.140000", "160237.927500", "160238.715000", "160239.502500", "160240.292500", "160241.080000", "160241.867500", "160242.655000", "160243.445000", "160244.232500", "160245.020000", "160245.807500", "160246.597500", "160247.385000", "160248.172500", "160248.962500", "160249.750000", "160250.537500", "160251.325000", "160252.115000", "160252.902500", "160253.690000", "160254.477500", "160255.267500", "160256.055000", "160256.842500", "160257.630000", "160258.420000", "160259.207500", "160259.995000", "160300.782500", "160301.572500", "160302.360000", "160303.147500", "160303.935000", "160304.725000", "160305.512500", "160306.300000", "160307.090000", "160307.877500", "160308.665000", "160309.452500", "160310.242500", "160311.030000", "160311.817500", "160312.605000", "160313.395000", "160314.182500", "160314.970000", "160315.757500", "160316.547500", "160317.335000", "160318.122500", "160318.910000", "160319.700000", "160320.487500", "160321.275000", "160322.062500", "160322.852500", "160323.640000", "160324.427500", "160325.217500", "160326.005000", "160326.792500", "160327.580000", "160328.370000", "160329.157500", "160329.945000", "160330.732500", "160331.522500", "160332.310000", "160333.097500", "160333.885000", "160334.675000", "160335.462500", "160336.250000", "160337.037500", "160337.827500", "160338.615000", "160339.402500", "160340.192500", "160340.980000", "160341.767500", "160342.555000", "160343.345000", "160344.132500", "160344.920000", "160345.707500", "160346.497500", "160347.285000", "160348.072500", "160348.860000", "160349.650000", "160350.437500", "160351.225000", "160352.012500", "160352.802500", "160353.590000", "160354.377500", "160355.165000", "160355.955000", "160356.742500", "160357.530000", "160358.320000", "160359.107500", "160359.895000", "160400.682500", "160401.472500", "160402.260000", "160403.047500", "160403.835000", "160404.625000", "160405.412500", "160406.200000", "160406.987500", "160407.777500", "160408.565000", "160409.352500", "160410.140000", "160410.930000", "160411.717500", "160412.505000", "160413.292500", "160414.082500", "160414.870000", "160415.657500", "160416.447500", "160417.235000", "160418.022500", "160418.810000", "160419.600000", "160420.387500", "160421.175000", "160421.962500", "160422.752500", "160423.540000", "160424.327500", "160425.115000", "160425.905000", "160426.692500", "160427.480000", "160428.267500", "160429.057500", "160429.845000", "160430.632500", "160431.420000", "160432.210000", "160432.997500", "160433.785000", "160434.575000", "160435.362500", "160436.150000", "160436.937500", "160437.727500", "160438.515000", "160439.302500", "160440.090000", "160440.880000", "160441.667500", "160442.455000", "160443.242500", "160444.032500", "160444.820000", "160445.607500", "160446.395000", "160447.185000", "160447.972500", "160448.760000", "160449.547500", "160450.337500", "160451.125000", "160451.912500", "160452.702500", "160453.490000", "160454.277500", "160455.065000", "160455.855000"],
      "ContentTime": ["164029.968000", "164029.968000", "164029.968000", "164029.984000", "164029.984000", "164129.953000", "164129.953000", "164129.953000", "164129.953000", "164129.953000", "164129.953000", "164129.968000", "164129.968000", "164129.968000", "164129.968000", "164129.968000", "164129.968000", "164129.968000", "164129.984000", "164129.984000", "164129.984000", "164129.984000", "164129.984000", "164129.984000", "164130.000000", "164130.000000", "164130.000000", "164130.000000", "164130.000000", "164130.000000", "164130.000000", "164130.015000", "164229.953000", "164229.953000", "164229.953000", "164229.953000", "164229.953000", "164229.953000", "164229.953000", "164229.968000", "164229.968000", "164229.968000", "164229.968000", "164229.968000", "164229.968000", "164229.984000", "164229.984000", "164229.984000", "164229.984000", "164229.984000", "164229.984000", "164229.984000", "164230.000000", "164230.000000", "164230.000000", "164230.000000", "164230.000000", "164230.000000", "164230.015000", "164230.015000", "164329.953000", "164329.953000", "164329.953000", "164329.953000", "164329.953000", "164329.953000", "164329.953000", "164329.968000", "164329.968000", "164329.968000", "164329.968000", "164329.968000", "164329.968000", "164329.984000", "164329.984000", "164329.984000", "164329.984000", "164329.984000", "164329.984000", "164329.984000", "164330.000000", "164330.000000", "164330.000000", "164330.000000", "164330.000000", "164330.000000", "164330.000000", "164429.953000", "164429.953000", "164429.953000", "164429.953000", "164429.953000", "164429.953000", "164429.953000", "164429.968000", "164429.968000", "164429.968000", "164429.968000", "164429.968000", "164429.968000", "164429.984000", "164429.984000", "164429.984000", "164429.984000", "164429.984000", "164429.984000", "164430.000000", "164430.000000", "164430.000000", "164430.000000", "164430.000000", "164430.000000", "164430.000000", "164430.015000", "164430.015000", "164529.953000", "164529.953000", "164529.953000", "164529.953000", "164529.953000", "164529.953000", "164529.953000", "164529.968000", "164529.968000", "164529.968000", "164529.968000", "164529.968000", "164529.968000", "164529.984000", "164529.984000", "164529.984000", "164529.984000", "164529.984000", "164529.984000", "164529.984000", "164530.000000", "164530.000000", "164530.000000", "164530.000000", "164530.000000", "164530.000000", "164530.000000", "164629.953000", "164629.953000", "164629.953000", "164629.953000", "164629.953000", "164629.953000", "164629.953000", "164629.968000", "164629.968000", "164629.968000", "164629.968000", "164629.968000", "164629.968000", "164629.984000", "164629.984000", "164629.984000", "164629.984000", "164629.984000", "164629.984000", "164629.984000", "164630.000000", "164630.000000", "164630.000000", "164630.000000", "164630.000000", "164630.000000", "164630.015000", "164630.015000", "164729.953000", "164729.953000", "164729.953000", "164729.953000", "164729.953000", "164729.953000", "164729.953000", "164729.968000", "164729.968000", "164729.968000", "164729.968000", "164729.968000", "164729.968000", "164729.984000", "164729.984000", "164729.984000", "164729.984000", "164729.984000", "164729.984000", "164729.984000", "164730.000000", "164730.000000", "164730.000000", "164730.000000", "164730.000000", "164730.015000", "164730.015000", "164829.953000", "164829.953000", "164829.953000", "164829.953000", "164829.953000", "164829.953000", "164829.953000", "164829.968000", "164829.968000", "164829.968000", "164829.968000", "164829.968000", "164829.968000", "164829.984000", "164829.984000", "164829.984000", "164829.984000", "164829.984000", "164829.984000", "164829.984000", "164830.000000", "164830.000000", "164830.000000", "164830.000000", "164830.015000", "164830.015000", "164830.015000", "164929.953000", "164929.953000", "164929.953000", "164929.953000", "164929.953000", "164929.953000", "164929.968000", "164929.968000", "164929.968000", "164929.968000", "164929.968000", "164929.968000", "164929.984000", "164929.984000", "164929.984000", "164929.984000", "164929.984000", "164929.984000", "164930.000000", "164930.000000", "164930.000000", "164930.000000", "164930.000000", "164930.000000", "164930.015000", "164930.015000", "164930.015000", "164930.015000", "165029.953000", "165029.953000", "165029.953000", "165029.953000", "165029.953000", "165029.953000", "165029.953000", "165029.968000", "165029.968000", "165029.968000", "165029.968000", "165029.968000", "165029.968000", "165029.984000", "165029.984000", "165029.984000", "165029.984000", "165029.984000", "165029.984000", "165029.984000", "165030.000000", "165030.000000", "165030.000000", "165030.000000", "165030.000000", "165030.000000", "165030.000000", "165129.953000", "165129.953000", "165129.953000", "165129.953000", "165129.953000", "165129.953000", "165129.968000", "165129.968000", "165129.968000", "165129.968000", "165129.968000", "165129.968000", "165129.984000", "165129.984000", "165129.984000", "165129.984000", "165129.984000", "165129.984000", "165130.000000", "165130.000000", "165130.000000", "165130.000000", "165130.000000", "165130.015000", "165130.015000", "165130.015000", "165130.015000", "165229.953000", "165229.953000", "165229.953000", "165229.953000", "165229.953000", "165229.953000", "165229.953000", "165229.968000", "165229.968000", "165229.968000", "165229.968000", "165229.968000", "165229.968000", "165229.984000", "165229.984000", "165229.984000", "165229.984000", "165229.984000", "165229.984000", "165229.984000", "165230.000000", "165230.000000", "165230.000000", "165230.000000", "165230.000000", "165230.015000", "165230.015000", "165230.015000", "165329.953000", "165329.953000", "165329.953000", "165329.953000", "165329.953000", "165329.953000", "165329.953000", "165329.968000", "165329.968000", "165329.968000", "165329.968000", "165329.968000", "165329.968000", "165329.984000", "165329.984000", "165329.984000", "165329.984000", "165329.984000", "165329.984000", "165330.000000", "165330.000000", "165330.000000", "165330.000000", "165330.000000", "165330.000000", "165330.015000", "165330.015000", "165429.937000", "165429.937000", "165429.937000", "165429.953000", "165429.953000", "165429.953000", "165429.953000", "165429.953000", "165429.953000", "165429.968000", "165429.968000", "165429.968000", "165429.968000", "165429.968000", "165429.968000", "165429.968000", "165429.984000", "165429.984000", "165429.984000", "165429.984000", "165429.984000", "165429.984000", "165430.000000", "165430.000000", "165430.000000", "165430.000000", "165430.000000", "165430.000000", "165529.937000", "165529.937000", "165529.937000", "165529.953000", "165529.953000", "165529.953000", "165529.953000", "165529.953000", "165529.953000", "165529.968000", "165529.968000", "165529.968000", "165529.968000", "165529.968000", "165529.968000", "165529.968000", "165529.984000", "165529.984000", "165529.984000", "165529.984000", "165529.984000", "165529.984000", "165529.984000", "165530.000000", "165530.000000", "165530.000000", "165530.000000", "165530.000000", "165629.937000", "165629.937000", "165629.937000", "165629.953000", "165629.953000", "165629.953000", "165629.953000", "165629.953000", "165629.953000", "165629.968000", "165629.968000", "165629.968000", "165629.968000", "165629.968000", "165629.968000", "165629.984000", "165629.984000", "165629.984000", "165629.984000", "165629.984000", "165629.984000", "165629.984000", "165630.000000", "165630.000000", "165630.000000", "165630.000000", "165630.000000", "165630.000000", "165729.937000", "165729.937000", "165729.937000", "165729.953000", "165729.953000", "165729.953000", "165729.953000", "165729.953000", "165729.953000", "165729.953000", "165729.968000", "165729.968000", "165729.968000", "165729.968000", "165729.968000", "165729.968000", "165729.984000", "165729.984000", "165729.984000", "165729.984000", "165729.984000", "165729.984000", "165729.984000", "165730.000000", "165730.000000", "165730.000000", "165730.000000", "165829.937000", "165829.937000", "165829.937000", "165829.953000", "165829.953000", "165829.953000", "165829.953000", "165829.953000", "165829.953000", "165829.968000", "165829.968000", "165829.968000", "165829.968000", "165829.968000", "165829.968000", "165829.984000", "165829.984000", "165829.984000", "165829.984000", "165829.984000", "165829.984000", "165830.000000", "165830.000000", "165830.000000", "165830.000000", "165830.000000", "165830.000000", "165830.015000", "165929.937000", "165929.937000", "165929.937000", "165929.937000", "165929.953000", "165929.953000", "165929.953000", "165929.953000", "165929.953000", "165929.953000", "165929.953000", "165929.968000", "165929.968000", "165929.968000", "165929.968000", "165929.968000", "165929.968000", "165929.968000", "165929.984000", "165929.984000", "165929.984000", "165929.984000", "165929.984000", "165929.984000", "165930.000000", "165930.000000", "165930.000000", "165930.000000", "170029.937000", "170029.937000", "170029.937000", "170029.937000", "170029.953000", "170029.953000", "170029.953000", "170029.953000", "170029.953000", "170029.953000", "170029.953000", "170029.968000", "170029.968000", "170029.968000", "170029.968000", "170029.968000", "170029.968000", "170029.968000", "170029.984000", "170029.984000", "170029.984000", "170029.984000", "170029.984000", "170029.984000", "170030.000000", "170030.000000", "170030.000000", "170030.000000", "170122.843000", "170122.843000", "170122.843000", "170122.843000", "170122.859000", "170122.859000", "170122.859000", "170122.859000", "170122.875000", "170122.875000", "170122.875000", "170122.875000", "170122.875000", "170122.875000", "170122.875000", "170122.890000", "170122.890000", "170122.890000", "170122.890000", "170122.890000", "170122.890000", "170122.890000", "170122.906000", "170122.906000", "170122.906000"],
