{
  "AcquisitionMatrixPE": 104,
  "AcquisitionNumber": 1,
  "AcquisitionTime": "15:49:2.145000",
  "BandwidthPerPixelPhaseEncode": 13.935,
  "BaseResolution": 104,
  "CoilString": "C:HEA;HEP",
  "ConversionSoftware": "dcm2niix",
  "ConversionSoftwareVersion": "v1.0.20210317",
  "DerivedVendorReportedEchoSpacing": 0.000690017,
  "DeviceSerialNumber": "35450",
  "DwellTime": 2.5e-06,
  "EchoTime": 0.0348,
  "EffectiveEchoSpacing": 0.000690017,
  "FlipAngle": 55,
  "ImageComments": "Unaliased MB8/PE3",
  "ImageOrientationPatientDICOM": [1, 1.66966e-07, -1.05239e-05, -1.61649e-09, 0.999877, 0.0157099],
  "ImageType": [
    "ORIGINAL",
    "PRIMARY",
    "M",
    "MB",
    "ND",
    "MOSAIC"
],
  "ImagingFrequency": 123.235,
  "InPlanePhaseEncodingDirectionDICOM": "COL",
  "InstitutionAddress": "Univeristy Ave. 197,Newark,North East,US,07102-1814",
  "InstitutionName": "RUBIC",
  "InstitutionalDepartmentName": "Department",
  "MRAcquisitionType": "2D",
  "MagneticFieldStrength": 3,
  "Manufacturer": "Siemens",
  "ManufacturersModelName": "TrioTim",
  "Modality": "MR",
  "MultibandAccelerationFactor": 8,
  "PartialFourier": 0.875,
  "PatientPosition": "HFS",
  "PercentPhaseFOV": 100,
  "PercentSampling": 100,
  "PhaseEncodingDirection": "j-",
  "PhaseEncodingSteps": 91,
  "PhaseResolution": 1,
  "PixelBandwidth": 1923,
  "ProcedureStepDescription": "Cole^Michael",
  "ProtocolName": "cmrr_mbep2d_bold_2mm_MB8_Task_8x",
  "PulseSequenceDetails": "%CustomerSeq%\\cmrr_mbep2d_bold",
  "ReceiveCoilName": "32Ch_Head",
  "ReconMatrixPE": 104,
  "RepetitionTime": 0.785,
  "SAR": 0.146691,
  "ScanOptions": "PFP\\FS",
  "ScanningSequence": "EP",
  "SequenceName": "epfid2d1_104",
  "SequenceVariant": "SK\\SS",
  "SeriesDescription": "cmrr_mbep2d_bold_2mm_MB8_Task_8x",
  "SeriesNumber": 13,
  "ShimSetting": [2084, -394, -7267, 505, -100, -411, 424, 52],
  "SliceThickness": 2,
  "SliceTiming": [0, 0.4375, 0.0875, 0.525, 0.175, 0.6125, 0.2625, 0.7, 0.35, 0, 0.4375, 0.0875, 0.525, 0.175, 0.6125, 0.2625, 0.7, 0.35, 0, 0.4375, 0.0875, 0.525, 0.175, 0.6125, 0.2625, 0.7, 0.35, 0, 0.4375, 0.0875, 0.525, 0.175, 0.6125, 0.2625, 0.7, 0.35, 0, 0.4375, 0.0875, 0.525, 0.175, 0.6125, 0.2625, 0.7, 0.35, 0, 0.4375, 0.0875, 0.525, 0.175, 0.6125, 0.2625, 0.7, 0.35, 0, 0.4375, 0.0875, 0.525, 0.175, 0.6125, 0.2625, 0.7, 0.35, 0, 0.4375, 0.0875, 0.525, 0.175, 0.6125, 0.2625, 0.7, 0.35],
  "SoftwareVersions": "syngo MR B19",
  "SpacingBetweenSlices": 2,
  "StationName": "MRC35450",
  "TaskName": "cpro",
  "TotalReadoutTime": 0.0710717,
  "TxRefAmp": 351.498,
  "dcmmeta_affine": [
    [-2.0, -3.232978107448048e-09, -2.105039129673969e-05, 106.00995635986328],
    [-3.3393141052329156e-07, 1.9997532367706299, 0.03141973167657852, -82.43989562988281],
    [-2.1047742848168127e-05, -0.03141973167657852, 1.9997531175613403, -94.73805236816406],
    [0.0, 0.0, 0.0, 1.0]
],
  "dcmmeta_reorient_transform": [
    [0.0, -1.0, 0.0, 103.0],
    [1.0, 0.0, 0.0, 0.0],
    [0.0, 0.0, 1.0, 0.0],
    [0.0, 0.0, 0.0, 1.0]
],
  "dcmmeta_shape": [104, 104, 72, 581],
  "dcmmeta_slice_dim": 2,
  "dcmmeta_version": 0.6,
  "global": {
    "const": {
      "AcquisitionMatrix": [104, 0, 0, 104],
      "AngioFlag": "N",
      "BitsAllocated": 16,
      "BitsStored": 12,
      "Columns": 936,
      "EchoNumbers": 1,
      "EchoTime": 34.8,
      "EchoTrainLength": 1,
      "FlipAngle": 55.0,
      "HighBit": 11,
      "ImageOrientationPatient": [0.99999999994461, 1.66965699e-07, -1.05238712e-05, -1.616489e-09, 0.9998765924413, 0.01570986594363],
      "ImagePositionPatient": [-938.00995193396, -955.43214550795, -111.03613691417],
      "ImageType": [
        "ORIGINAL",
        "PRIMARY",
        "M",
        "MB",
        "ND",
        "MOSAIC"
],
      "ImagedNucleus": "1H",
      "ImagingFrequency": 123.234722,
      "InPlanePhaseEncodingDirection": "COL",
      "MRAcquisitionType": "2D",
      "MagneticFieldStrength": 3.0,
      "Manufacturer": "SIEMENS",
      "ManufacturerModelName": "TrioTim",
      "Modality": "MR",
      "NumberOfAverages": 1.0,
      "NumberOfPhaseEncodingSteps": 91,
      "PercentPhaseFieldOfView": 100.0,
      "PercentSampling": 100.0,
      "PerformedProcedureStepStartTime": "143538.906000",
      "PhotometricInterpretation": "MONOCHROME2",
      "PixelBandwidth": 1923.0,
      "PixelRepresentation": 0,
      "PixelSpacing": [2.0, 2.0],
      "ProtocolName": "cmrr_mbep2d_bold_2mm_MB8_Task_8x",
      "RepetitionTime": 785.0,
      "Rows": 936,
      "SAR": 0.14669084940497,
      "SamplesPerPixel": 1,
      "ScanOptions": [
        "PFP",
        "FS"
],
      "ScanningSequence": "EP",
      "SequenceName": "epfid2d1_104",
      "SequenceVariant": [
        "SK",
        "SS"
],
      "SeriesDescription": "cmrr_mbep2d_bold_2mm_MB8_Task_8x",
      "SeriesNumber": 13,
      "SeriesTime": "161856.812000",
      "SliceLocation": -96.022596024229,
      "SliceThickness": 2.0,
      "SmallestImagePixelValue": 0,
      "SoftwareVersions": "syngo MR B19",
      "SpacingBetweenSlices": 1.9999999881239,
      "SpecificCharacterSet": "ISO_IR 100",
      "StudyID": "1",
      "StudyTime": "143538.875000",
      "TransmitCoilName": "Body",
      "VariableFlipAngleFlag": "N",
      "WindowCenterWidthExplanation": "Algo1",
      "dBdt": 0.0},
    "slices": {}
  },
  "time": {
    "samples": {
      "AcquisitionNumber": [1, 2, 3, 4, 5, 6, 7, 8, 9, 10, 11, 12, 13, 14, 15, 16, 17, 18, 19, 20, 21, 22, 23, 24, 25, 26, 27, 28, 29, 30, 31, 32, 33, 34, 35, 36, 37, 38, 39, 40, 41, 42, 43, 44, 45, 46, 47, 48, 49, 50, 51, 52, 53, 54, 55, 56, 57, 58, 59, 60, 61, 62, 63, 64, 65, 66, 67, 68, 69, 70, 71, 72, 73, 74, 75, 76, 77, 78, 79, 80, 81, 82, 83, 84, 85, 86, 87, 88, 89, 90, 91, 92, 93, 94, 95, 96, 97, 98, 99, 100, 101, 102, 103, 104, 105, 106, 107, 108, 109, 110, 111, 112, 113, 114, 115, 116, 117, 118, 119, 120, 121, 122, 123, 124, 125, 126, 127, 128, 129, 130, 131, 132, 133, 134, 135, 136, 137, 138, 139, 140, 141, 142, 143, 144, 145, 146, 147, 148, 149, 150, 151, 152, 153, 154, 155, 156, 157, 158, 159, 160, 161, 162, 163, 164, 165, 166, 167, 168, 169, 170, 171, 172, 173, 174, 175, 176, 177, 178, 179, 180, 181, 182, 183, 184, 185, 186, 187, 188, 189, 190, 191, 192, 193, 194, 195, 196, 197, 198, 199, 200, 201, 202, 203, 204, 205, 206, 207, 208, 209, 210, 211, 212, 213, 214, 215, 216, 217, 218, 219, 220, 221, 222, 223, 224, 225, 226, 227, 228, 229, 230, 231, 232, 233, 234, 235, 236, 237, 238, 239, 240, 241, 242, 243, 244, 245, 246, 247, 248, 249, 250, 251, 252, 253, 254, 255, 256, 257, 258, 259, 260, 261, 262, 263, 264, 265, 266, 267, 268, 269, 270, 271, 272, 273, 274, 275, 276, 277, 278, 279, 280, 281, 282, 283, 284, 285, 286, 287, 288, 289, 290, 291, 292, 293, 294, 295, 296, 297, 298, 299, 300, 301, 302, 303, 304, 305, 306, 307, 308, 309, 310, 311, 312, 313, 314, 315, 316, 317, 318, 319, 320, 321, 322, 323, 324, 325, 326, 327, 328, 329, 330, 331, 332, 333, 334, 335, 336, 337, 338, 339, 340, 341, 342, 343, 344, 345, 346, 347, 348, 349, 350, 351, 352, 353, 354, 355, 356, 357, 358, 359, 360, 361, 362, 363, 364, 365, 366, 367, 368, 369, 370, 371, 372, 373, 374, 375, 376, 377, 378, 379, 380, 381, 382, 383, 384, 385, 386, 387, 388, 389, 390, 391, 392, 393, 394, 395, 396, 397, 398, 399, 400, 401, 402, 403, 404, 405, 406, 407, 408, 409, 410, 411, 412, 413, 414, 415, 416, 417, 418, 419, 420, 421, 422, 423, 424, 425, 426, 427, 428, 429, 430, 431, 432, 433, 434, 435, 436, 437, 438, 439, 440, 441, 442, 443, 444, 445, 446, 447, 448, 449, 450, 451, 452, 453, 454, 455, 456, 457, 458, 459, 460, 461, 462, 463, 464, 465, 466, 467, 468, 469, 470, 471, 472, 473, 474, 475, 476, 477, 478, 479, 480, 481, 482, 483, 484, 485, 486, 487, 488, 489, 490, 491, 492, 493, 494, 495, 496, 497, 498, 499, 500, 501, 502, 503, 504, 505, 506, 507, 508, 509, 510, 511, 512, 513, 514, 515, 516, 517, 518, 519, 520, 521, 522, 523, 524, 525, 526, 527, 528, 529, 530, 531, 532, 533, 534, 535, 536, 537, 538, 539, 540, 541, 542, 543, 544, 545, 546, 547, 548, 549, 550, 551, 552, 553, 554, 555, 556, 557, 558, 559, 560, 561, 562, 563, 564, 565, 566, 567, 568, 569, 570, 571, 572, 573, 574, 575, 576, 577, 578, 579, 580, 581],
      "AcquisitionTime": ["154902.145000", "154902.932500", "154903.722500", "154904.510000", "154905.297500", "154906.087500", "154906.875000", "154907.662500", "154908.450000", "154909.240000", "154910.027500", "154910.815000", "154911.602500", "154912.392500", "154913.180000", "154913.967500", "154914.755000", "154915.545000", "154916.332500", "154917.120000", "154917.907500", "154918.697500", "154919.485000", "154920.272500", "154921.060000", "154921.850000", "154922.637500", "154923.425000", "154924.215000", "154925.002500", "154925.790000", "154926.577500", "154927.367500", "154928.155000", "154928.942500", "154929.730000", "154930.520000", "154931.307500", "154932.095000", "154932.882500", "154933.672500", "154934.460000", "154935.247500", "154936.035000", "154936.825000", "154937.612500", "154938.400000", "154939.190000", "154939.977500", "154940.765000", "154941.552500", "154942.342500", "154943.130000", "154943.917500", "154944.705000", "154945.495000", "154946.282500", "154947.070000", "154947.857500", "154948.647500", "154949.435000", "154950.222500", "154951.010000", "154951.800000", "154952.587500", "154953.375000", "154954.162500", "154954.952500", "154955.740000", "154956.527500", "154957.317500", "154958.105000", "154958.892500", "154959.680000", "155000.470000", "155001.257500", "155002.045000", "155002.832500", "155003.622500", "155004.410000", "155005.197500", "155005.985000", "155006.775000", "155007.562500", "155008.350000", "155009.137500", "155009.927500", "155010.715000", "155011.502500", "155012.290000", "155013.080000", "155013.867500", "155014.655000", "155015.445000", "155016.232500", "155017.020000", "155017.807500", "155018.597500", "155019.385000", "155020.172500", "155020.960000", "155021.750000", "155022.537500", "155023.325000", "155024.112500", "155024.902500", "155025.690000", "155026.477500", "155027.265000", "155028.055000", "155028.842500", "155029.630000", "155030.417500", "155031.207500", "155031.995000", "155032.782500", "155033.572500", "155034.360000", "155035.147500", "155035.935000", "155036.725000", "155037.512500", "155038.300000", "155039.087500", "155039.877500", "155040.665000", "155041.452500", "155042.240000", "155043.030000", "155043.817500", "155044.605000", "155045.392500", "155046.182500", "155046.970000", "155047.757500", "155048.545000", "155049.335000", "155050.122500", "155050.910000", "155051.700000", "155052.487500", "155053.275000", "155054.062500", "155054.852500", "155055.640000", "155056.427500", "155057.215000", "155058.005000", "155058.792500", "155059.580000", "155100.367500", "155101.157500", "155101.945000", "155102.732500", "155103.520000", "155104.310000", "155105.097500", "155105.885000", "155106.672500", "155107.462500", "155108.250000", "155109.037500", "155109.827500", "155110.615000", "155111.402500", "155112.190000", "155112.980000", "155113.767500", "155114.555000", "155115.342500", "155116.132500", "155116.920000", "155117.707500", "155118.495000", "155119.285000", "155120.072500", "155120.860000", "155121.647500", "155122.437500", "155123.225000", "155124.012500", "155124.800000", "155125.590000", "155126.377500", "155127.165000", "155127.955000", "155128.742500", "155129.530000", "155130.317500", "155131.107500", "155131.895000", "155132.682500", "155133.470000", "155134.260000", "155135.047500", "155135.835000", "155136.622500", "155137.412500", "155138.200000", "155138.987500", "155139.775000", "155140.565000", "155141.352500", "155142.140000", "155142.927500", "155143.717500", "155144.505000", "155145.292500", "155146.082500", "155146.870000", "155147.657500", "155148.445000", "155149.235000", "155150.022500", "155150.810000", "155151.597500", "155152.387500", "155153.175000", "155153.962500", "155154.750000", "155155.540000", "155156.327500", "155157.115000", "155157.902500", "155158.692500", "155159.480000", "155200.267500", "155201.055000", "155201.845000", "155202.632500", "155203.420000", "155204.210000", "155204.997500", "155205.785000", "155206.572500", "155207.362500", "155208.150000", "155208.937500", "155209.725000", "155210.515000", "155211.302500", "155212.090000", "155212.877500", "155213.667500", "155214.455000", "155215.242500", "155216.030000", "155216.820000", "155217.607500", "155218.395000", "155219.182500", "155219.972500", "155220.760000", "155221.547500", "155222.337500", "155223.125000", "155223.912500", "155224.700000", "155225.490000", "155226.277500", "155227.065000", "155227.852500", "155228.642500", "155229.430000", "155230.217500", "155231.005000", "155231.795000", "155232.582500", "155233.370000", "155234.157500", "155234.947500", "155235.735000", "155236.522500", "155237.310000", "155238.100000", "155238.887500", "155239.675000", "155240.465000", "155241.252500", "155242.040000", "155242.827500", "155243.617500", "155244.405000", "155245.192500", "155245.980000", "155246.770000", "155247.557500", "155248.345000", "155249.132500", "155249.922500", "155250.710000", "155251.497500", "155252.285000", "155253.075000", "155253.862500", "155254.650000", "155255.440000", "155256.227500", "155257.015000", "155257.802500", "155258.592500", "155259.380000", "155300.167500", "155300.955000", "155301.745000", "155302.532500", "155303.320000", "155304.107500", "155304.897500", "155305.685000", "155306.472500", "155307.260000", "155308.050000", "155308.837500", "155309.625000", "155310.412500", "155311.202500", "155311.990000", "155312.777500", "155313.567500", "155314.355000", "155315.142500", "155315.930000", "155316.720000", "155317.507500", "155318.295000", "155319.082500", "155319.872500", "155320.660000", "155321.447500", "155322.235000", "155323.025000", "155323.812500", "155324.600000", "155325.387500", "155326.177500", "155326.965000", "155327.752500", "155328.540000", "155329.330000", "155330.117500", "155330.905000", "155331.695000", "155332.482500", "155333.270000", "155334.057500", "155334.847500", "155335.635000", "155336.422500", "155337.210000", "155338.000000", "155338.787500", "155339.575000", "155340.362500", "155341.152500", "155341.940000", "155342.727500", "155343.515000", "155344.305000", "155345.092500", "155345.880000", "155346.667500", "155347.457500", "155348.245000", "155349.032500", "155349.822500", "155350.610000", "155351.397500", "155352.185000", "155352.975000", "155353.762500", "155354.550000", "155355.337500", "155356.127500", "155356.915000", "155357.702500", "155358.490000", "155359.280000", "155400.067500", "155400.855000", "155401.642500", "155402.432500", "155403.220000", "155404.007500", "155404.795000", "155405.585000", "155406.372500", "155407.160000", "155407.950000", "155408.737500", "155409.525000", "155410.312500", "155411.102500", "155411.890000", "155412.677500", "155413.465000", "155414.255000", "155415.042500", "155415.830000", "155416.617500", "155417.407500", "155418.195000", "155418.982500", "155419.770000", "155420.560000", "155421.347500", "155422.135000", "155422.922500", "155423.712500", "155424.500000", "155425.287500", "155426.077500", "155426.865000", "155427.652500", "155428.440000", "155429.230000", "155430.017500", "155430.805000", "155431.592500", "155432.382500", "155433.170000", "155433.957500", "155434.745000", "155435.535000", "155436.322500", "155437.110000", "155437.897500", "155438.687500", "155439.475000", "155440.262500", "155441.050000", "155441.840000", "155442.627500", "155443.415000", "155444.205000", "155444.992500", "155445.780000", "155446.567500", "155447.357500", "155448.145000", "155448.932500", "155449.720000", "155450.510000", "155451.297500", "155452.085000", "155452.872500", "155453.662500", "155454.450000", "155455.237500", "155456.025000", "155456.815000", "155457.602500", "155458.390000", "155459.177500", "155459.967500", "155500.755000", "155501.542500", "155502.332500", "155503.120000", "155503.907500", "155504.695000", "155505.485000", "155506.272500", "155507.060000", "155507.847500", "155508.637500", "155509.425000", "155510.212500", "155511.000000", "155511.790000", "155512.577500", "155513.365000", "155514.152500", "155514.942500", "155515.730000", "155516.517500", "155517.305000", "155518.095000", "155518.882500", "155519.670000", "155520.460000", "155521.247500", "155522.035000", "155522.822500", "155523.612500", "155524.400000", "155525.187500", "155525.975000", "155526.765000", "155527.552500", "155528.340000", "155529.127500", "155529.917500", "155530.705000", "155531.492500", "155532.280000", "155533.070000", "155533.857500", "155534.645000", "155535.432500", "155536.222500", "155537.010000", "155537.797500", "155538.587500", "155539.375000", "155540.162500", "155540.950000", "155541.740000", "155542.527500", "155543.315000", "155544.102500", "155544.892500", "155545.680000", "155546.467500", "155547.255000", "155548.045000", "155548.832500", "155549.620000", "155550.407500", "155551.197500", "155551.985000", "155552.772500", "155553.560000", "155554.350000", "155555.137500", "155555.925000", "155556.715000", "155557.502500", "155558.290000", "155559.077500", "155559.867500", "155600.655000", "155601.442500", "155602.230000", "155603.020000", "155603.807500", "155604.595000", "155605.382500", "155606.172500", "155606.960000", "155607.747500", "155608.535000", "155609.325000", "155610.112500", "155610.900000", "155611.690000", "155612.477500", "155613.265000", "155614.052500", "155614.842500", "155615.630000", "155616.417500", "155617.205000", "155617.995000", "155618.782500", "155619.570000", "155620.357500", "155621.147500", "155621.935000", "155622.722500", "155623.510000", "155624.300000", "155625.087500", "155625.875000", "155626.662500", "155627.452500", "155628.240000", "155629.027500", "155629.817500", "155630.605000", "155631.392500", "155632.180000", "155632.970000", "155633.757500", "155634.545000", "155635.332500", "155636.122500", "155636.910000", "155637.697500", "155638.485000", "155639.275000"],
      "ContentTime": ["161856.812000", "161936.781000", "161936.796000", "161936.796000", "161936.796000", "161936.796000", "161936.796000", "161936.812000", "161936.812000", "161936.812000", "161936.812000", "161936.812000", "161936.812000", "161936.812000", "161936.828000", "161936.828000", "161936.828000", "161936.828000", "161936.828000", "162036.781000", "162036.796000", "162036.796000", "162036.796000", "162036.796000", "162036.796000", "162036.796000", "162036.812000", "162036.812000", "162036.812000", "162036.812000", "162036.812000", "162036.812000", "162036.812000", "162036.828000", "162036.828000", "162036.828000", "162036.828000", "162036.828000", "162036.828000", "162036.843000", "162036.843000", "162036.843000", "162036.843000", "162036.843000", "162036.843000", "162036.843000", "162036.859000", "162136.781000", "162136.796000", "162136.796000", "162136.796000", "162136.796000", "162136.796000", "162136.796000", "162136.812000", "162136.812000", "162136.812000", "162136.812000", "162136.812000", "162136.812000", "162136.828000", "162136.828000", "162136.828000", "162136.828000", "162136.828000", "162136.828000", "162136.828000", "162136.843000", "162136.843000", "162136.843000", "162136.843000", "162136.843000", "162136.843000", "162136.843000", "162136.859000", "162236.781000", "162236.796000", "162236.796000", "162236.796000", "162236.796000", "162236.796000", "162236.796000", "162236.812000", "162236.812000", "162236.812000", "162236.812000", "162236.812000", "162236.812000", "162236.812000", "162236.828000", "162236.828000", "162236.828000", "162236.828000", "162236.828000", "162236.828000", "162236.843000", "162236.843000", "162236.843000", "162236.843000", "162236.843000", "162236.859000", "162236.859000", "162336.781000", "162336.796000", "162336.796000", "162336.796000", "162336.796000", "162336.796000", "162336.796000", "162336.812000", "162336.812000", "162336.812000", "162336.812000", "162336.812000", "162336.812000", "162336.812000", "162336.828000", "162336.828000", "162336.828000", "162336.828000", "162336.843000", "162336.843000", "162336.843000", "162336.843000", "162336.843000", "162336.859000", "162336.859000", "162336.859000", "162336.859000", "162336.859000", "162436.781000", "162436.796000", "162436.796000", "162436.796000", "162436.796000", "162436.796000", "162436.796000", "162436.812000", "162436.812000", "162436.812000", "162436.812000", "162436.812000", "162436.812000", "162436.828000", "162436.828000", "162436.828000", "162436.828000", "162436.828000", "162436.828000", "162436.828000", "162436.843000", "162436.843000", "162436.843000", "162436.843000", "162436.843000", "162436.843000", "162436.859000", "162536.781000", "162536.796000", "162536.796000", "162536.796000", "162536.796000", "162536.812000", "162536.812000", "162536.812000", "162536.812000", "162536.812000", "162536.828000", "162536.828000", "162536.828000", "162536.828000", "162536.828000", "162536.828000", "162536.828000", "162536.843000", "162536.843000", "162536.843000", "162536.843000", "162536.843000", "162536.843000", "162536.859000", "162536.859000", "162536.859000", "162536.859000", "162536.859000", "162636.781000", "162636.796000", "162636.796000", "162636.796000", "162636.796000", "162636.796000", "162636.796000", "162636.812000", "162636.812000", "162636.812000", "162636.812000", "162636.828000", "162636.828000", "162636.828000", "162636.828000", "162636.828000", "162636.828000", "162636.828000", "162636.843000", "162636.843000", "162636.843000", "162636.843000", "162636.843000", "162636.843000", "162636.859000", "162636.859000", "162636.859000", "162736.781000", "162736.796000", "162736.796000", "162736.796000", "162736.796000", "162736.796000", "162736.796000", "162736.812000", "162736.812000", "162736.812000", "162736.812000", "162736.812000", "162736.812000", "162736.812000", "162736.828000", "162736.828000", "162736.828000", "162736.828000", "162736.828000", "162736.828000", "162736.843000", "162736.843000", "162736.843000", "162736.843000", "162736.843000", "162736.843000", "162736.859000", "162736.859000", "162836.781000", "162836.796000", "162836.796000", "162836.796000", "162836.796000", "162836.796000", "162836.796000", "162836.812000", "162836.812000", "162836.812000", "162836.812000", "162836.812000", "162836.812000", "162836.812000", "162836.828000", "162836.828000", "162836.828000", "162836.828000", "162836.828000", "162836.828000", "162836.843000", "162836.843000", "162836.843000", "162836.843000", "162836.843000", "162836.843000", "162836.859000", "162936.781000", "162936.796000", "162936.796000", "162936.796000", "162936.796000", "162936.796000", "162936.796000", "162936.812000", "162936.812000", "162936.812000", "162936.812000", "162936.812000", "162936.812000", "162936.828000", "162936.828000", "162936.828000", "162936.828000", "162936.828000", "162936.828000", "162936.828000", "162936.843000", "162936.843000", "162936.843000", "162936.843000", "162936.843000", "162936.859000", "162936.859000", "163036.796000", "163036.796000", "163036.796000", "163036.796000", "163036.796000", "163036.796000", "163036.812000", "163036.812000", "163036.812000", "163036.812000", "163036.812000", "163036.812000", "163036.812000", "163036.828000", "163036.828000", "163036.828000", "163036.828000", "163036.828000", "163036.828000", "163036.843000", "163036.843000", "163036.843000", "163036.843000", "163036.843000", "163036.843000", "163036.843000", "163036.859000", "163036.859000", "163136.796000", "163136.796000", "163136.796000", "163136.796000", "163136.796000", "163136.796000", "163136.812000", "163136.812000", "163136.812000", "163136.812000", "163136.812000", "163136.828000", "163136.828000", "163136.828000", "163136.828000", "163136.843000", "163136.843000", "163136.843000", "163136.843000", "163136.843000", "163136.859000", "163136.859000", "163136.859000", "163136.859000", "163136.875000", "163136.875000", "163136.875000", "163236.796000", "163236.796000", "163236.796000", "163236.796000", "163236.796000", "163236.796000", "163236.812000", "163236.812000", "163236.812000", "163236.812000", "163236.812000", "163236.812000", "163236.812000", "163236.828000", "163236.828000", "163236.828000", "163236.828000", "163236.828000", "163236.843000", "163236.843000", "163236.843000", "163236.843000", "163236.843000", "163236.843000", "163236.843000", "163236.859000", "163236.859000", "163236.859000", "163336.796000", "163336.796000", "163336.796000", "163336.796000", "163336.796000", "163336.796000", "163336.812000", "163336.812000", "163336.812000", "163336.812000", "163336.812000", "163336.812000", "163336.812000", "163336.828000", "163336.828000", "163336.828000", "163336.828000", "163336.828000", "163336.828000", "163336.843000", "163336.843000", "163336.843000", "163336.843000", "163336.843000", "163336.843000", "163336.843000", "163336.859000", "163436.796000", "163436.796000", "163436.796000", "163436.796000", "163436.796000", "163436.796000", "163436.812000", "163436.812000", "163436.812000", "163436.812000", "163436.812000", "163436.812000", "163436.812000", "163436.828000", "163436.828000", "163436.828000", "163436.828000", "163436.828000", "163436.828000", "163436.828000", "163436.843000", "163436.843000", "163436.843000", "163436.843000", "163436.843000", "163436.843000", "163436.859000", "163436.859000", "163536.796000", "163536.796000", "163536.796000", "163536.796000", "163536.796000", "163536.796000", "163536.812000", "163536.812000", "163536.812000", "163536.812000", "163536.812000", "163536.812000", "163536.812000", "163536.828000", "163536.828000", "163536.828000", "163536.828000", "163536.828000", "163536.828000", "163536.828000", "163536.843000", "163536.843000", "163536.843000", "163536.843000", "163536.843000", "163536.843000", "163536.859000", "163636.796000", "163636.796000", "163636.796000", "163636.796000", "163636.796000", "163636.812000", "163636.812000", "163636.812000", "163636.812000", "163636.812000", "163636.812000", "163636.828000", "163636.828000", "163636.828000", "163636.828000", "163636.828000", "163636.828000", "163636.828000", "163636.843000", "163636.843000", "163636.843000", "163636.843000", "163636.843000", "163636.843000", "163636.859000", "163636.859000", "163636.859000", "163736.796000", "163736.796000", "163736.796000", "163736.796000", "163736.796000", "163736.796000", "163736.812000", "163736.812000", "163736.812000", "163736.812000", "163736.812000", "163736.812000", "163736.812000", "163736.828000", "163736.828000", "163736.828000", "163736.828000", "163736.828000", "163736.843000", "163736.843000", "163736.843000", "163736.843000", "163736.843000", "163736.843000", "163736.859000", "163736.859000", "163736.859000", "163736.859000", "163836.796000", "163836.796000", "163836.796000", "163836.796000", "163836.796000", "163836.796000", "163836.812000", "163836.812000", "163836.812000", "163836.812000", "163836.812000", "163836.812000", "163836.812000", "163836.828000", "163836.828000", "163836.828000", "163836.828000", "163836.828000", "163836.828000", "163836.843000", "163836.843000", "163836.843000", "163836.843000", "163836.843000", "163836.843000", "163836.843000", "163836.859000", "163936.796000", "163936.796000", "163936.796000", "163936.796000", "163936.796000", "163936.796000", "163936.796000", "163936.812000", "163936.812000", "163936.812000", "163936.812000", "163936.812000", "163936.812000", "163936.828000", "163936.828000", "163936.828000", "163936.828000", "163936.828000", "163936.828000", "163936.828000", "163936.843000", "163936.843000", "163936.843000", "163936.843000", "163936.843000", "163936.843000", "163936.843000", "163936.859000", "164001.953000", "164001.953000", "164001.953000", "164001.968000", "164001.968000", "164001.968000", "164001.968000", "164001.968000", "164001.968000", "164001.968000", "164001.984000", "164001.984000"],
