{
  "AcquisitionMatrixPE": 104,
  "AcquisitionNumber": 1,
  "AcquisitionTime": "16:21:56.690000",
  "BandwidthPerPixelPhaseEncode": 13.935,
  "BaseResolution": 104,
  "CoilString": "C:HEA;HEP",
  "ConversionSoftware": "dcm2niix",
  "ConversionSoftwareVersion": "v1.0.20210317",
  "DerivedVendorReportedEchoSpacing": 0.000690017,
  "DeviceSerialNumber": "35450",
  "DwellTime": 2.5e-06,
  "EchoTime": 0.0348,
  "EffectiveEchoSpacing": 0.000690017,
  "FlipAngle": 55,
  "ImageComments": "Unaliased MB8/PE3",
  "ImageOrientationPatientDICOM": [1, 1.66966e-07, -1.05239e-05, -1.61649e-09, 0.999877, 0.0157099],
  "ImageType": [
    "ORIGINAL",
    "PRIMARY",
    "M",
    "MB",
    "ND",
    "MOSAIC"
],
  "ImagingFrequency": 123.235,
  "InPlanePhaseEncodingDirectionDICOM": "COL",
  "InstitutionAddress": "Univeristy Ave. 197,Newark,North East,US,07102-1814",
  "InstitutionName": "RUBIC",
  "InstitutionalDepartmentName": "Department",
  "MRAcquisitionType": "2D",
  "MagneticFieldStrength": 3,
  "Manufacturer": "Siemens",
  "ManufacturersModelName": "TrioTim",
  "Modality": "MR",
  "MultibandAccelerationFactor": 8,
  "PartialFourier": 0.875,
  "PatientPosition": "HFS",
  "PercentPhaseFOV": 100,
  "PercentSampling": 100,
  "PhaseEncodingDirection": "j-",
  "PhaseEncodingSteps": 91,
  "PhaseResolution": 1,
  "PixelBandwidth": 1923,
  "ProcedureStepDescription": "Cole^Michael",
  "ProtocolName": "cmrr_mbep2d_bold_2mm_MB8_Task_8x",
  "PulseSequenceDetails": "%CustomerSeq%\\cmrr_mbep2d_bold",
  "ReceiveCoilName": "32Ch_Head",
  "ReconMatrixPE": 104,
  "RepetitionTime": 0.785,
  "SAR": 0.13389,
  "ScanOptions": "PFP\\FS",
  "ScanningSequence": "EP",
  "SequenceName": "epfid2d1_104",
  "SequenceVariant": "SK\\SS",
  "SeriesDescription": "cmrr_mbep2d_bold_2mm_MB8_Task_8x",
  "SeriesNumber": 21,
  "ShimSetting": [2084, -394, -7267, 505, -100, -411, 424, 52],
  "SliceThickness": 2,
  "SliceTiming": [0, 0.4375, 0.0875, 0.525, 0.175, 0.6125, 0.2625, 0.7, 0.35, 0, 0.4375, 0.0875, 0.525, 0.175, 0.6125, 0.2625, 0.7, 0.35, 0, 0.4375, 0.0875, 0.525, 0.175, 0.6125, 0.2625, 0.7, 0.35, 0, 0.4375, 0.0875, 0.525, 0.175, 0.6125, 0.2625, 0.7, 0.35, 0, 0.4375, 0.0875, 0.525, 0.175, 0.6125, 0.2625, 0.7, 0.35, 0, 0.4375, 0.0875, 0.525, 0.175, 0.6125, 0.2625, 0.7, 0.35, 0, 0.4375, 0.0875, 0.525, 0.175, 0.6125, 0.2625, 0.7, 0.35, 0, 0.4375, 0.0875, 0.525, 0.175, 0.6125, 0.2625, 0.7, 0.35],
  "SoftwareVersions": "syngo MR B19",
  "SpacingBetweenSlices": 2,
  "StationName": "MRC35450",
  "TaskName": "cpro",
  "TotalReadoutTime": 0.0710717,
  "TxRefAmp": 351.498,
  "dcmmeta_affine": [
    [-2.0, -3.232978107448048e-09, -2.105039129673969e-05, 106.00995635986328],
    [-3.3393141052329156e-07, 1.9997532367706299, 0.03141973167657852, -82.43989562988281],
    [-2.1047742848168127e-05, -0.03141973167657852, 1.9997531175613403, -94.73805236816406],
    [0.0, 0.0, 0.0, 1.0]
],
  "dcmmeta_reorient_transform": [
    [0.0, -1.0, 0.0, 103.0],
    [1.0, 0.0, 0.0, 0.0],
    [0.0, 0.0, 1.0, 0.0],
    [0.0, 0.0, 0.0, 1.0]
],
  "dcmmeta_shape": [104, 104, 72, 581],
  "dcmmeta_slice_dim": 2,
  "dcmmeta_version": 0.6,
  "global": {
    "const": {
      "AcquisitionMatrix": [104, 0, 0, 104],
      "AngioFlag": "N",
      "BitsAllocated": 16,
      "BitsStored": 12,
      "Columns": 936,
      "EchoNumbers": 1,
      "EchoTime": 34.8,
      "EchoTrainLength": 1,
      "FlipAngle": 55.0,
      "HighBit": 11,
      "ImageOrientationPatient": [0.99999999994461, 1.66965699e-07, -1.05238712e-05, -1.616489e-09, 0.9998765924413, 0.01570986594363],
      "ImagePositionPatient": [-938.00995193396, -955.43214550795, -111.03613691417],
      "ImageType": [
        "ORIGINAL",
        "PRIMARY",
        "M",
        "MB",
        "ND",
        "MOSAIC"
],
      "ImagedNucleus": "1H",
      "ImagingFrequency": 123.234722,
      "InPlanePhaseEncodingDirection": "COL",
      "MRAcquisitionType": "2D",
      "MagneticFieldStrength": 3.0,
      "Manufacturer": "SIEMENS",
      "ManufacturerModelName": "TrioTim",
      "Modality": "MR",
      "NumberOfAverages": 1.0,
      "NumberOfPhaseEncodingSteps": 91,
      "PercentPhaseFieldOfView": 100.0,
      "PercentSampling": 100.0,
      "PerformedProcedureStepStartTime": "143538.906000",
      "PhotometricInterpretation": "MONOCHROME2",
      "PixelBandwidth": 1923.0,
      "PixelRepresentation": 0,
      "PixelSpacing": [2.0, 2.0],
      "ProtocolName": "cmrr_mbep2d_bold_2mm_MB8_Task_8x",
      "RepetitionTime": 785.0,
      "Rows": 936,
      "SAR": 0.13388966697326,
      "SamplesPerPixel": 1,
      "ScanOptions": [
        "PFP",
        "FS"
],
      "ScanningSequence": "EP",
      "SequenceName": "epfid2d1_104",
      "SequenceVariant": [
        "SK",
        "SS"
],
      "SeriesDescription": "cmrr_mbep2d_bold_2mm_MB8_Task_8x",
      "SeriesNumber": 21,
      "SeriesTime": "174328.515000",
      "SliceLocation": -96.022596024229,
      "SliceThickness": 2.0,
      "SmallestImagePixelValue": 0,
      "SoftwareVersions": "syngo MR B19",
      "SpacingBetweenSlices": 1.9999999881239,
      "SpecificCharacterSet": "ISO_IR 100",
      "StudyID": "1",
      "StudyTime": "143538.875000",
      "TransmitCoilName": "Body",
      "VariableFlipAngleFlag": "N",
      "WindowCenterWidthExplanation": "Algo1",
      "dBdt": 0.0},
    "slices": {}
  },
  "time": {
    "samples": {
      "AcquisitionNumber": [1, 2, 3, 4, 5, 6, 7, 8, 9, 10, 11, 12, 13, 14, 15, 16, 17, 18, 19, 20, 21, 22, 23, 24, 25, 26, 27, 28, 29, 30, 31, 32, 33, 34, 35, 36, 37, 38, 39, 40, 41, 42, 43, 44, 45, 46, 47, 48, 49, 50, 51, 52, 53, 54, 55, 56, 57, 58, 59, 60, 61, 62, 63, 64, 65, 66, 67, 68, 69, 70, 71, 72, 73, 74, 75, 76, 77, 78, 79, 80, 81, 82, 83, 84, 85, 86, 87, 88, 89, 90, 91, 92, 93, 94, 95, 96, 97, 98, 99, 100, 101, 102, 103, 104, 105, 106, 107, 108, 109, 110, 111, 112, 113, 114, 115, 116, 117, 118, 119, 120, 121, 122, 123, 124, 125, 126, 127, 128, 129, 130, 131, 132, 133, 134, 135, 136, 137, 138, 139, 140, 141, 142, 143, 144, 145, 146, 147, 148, 149, 150, 151, 152, 153, 154, 155, 156, 157, 158, 159, 160, 161, 162, 163, 164, 165, 166, 167, 168, 169, 170, 171, 172, 173, 174, 175, 176, 177, 178, 179, 180, 181, 182, 183, 184, 185, 186, 187, 188, 189, 190, 191, 192, 193, 194, 195, 196, 197, 198, 199, 200, 201, 202, 203, 204, 205, 206, 207, 208, 209, 210, 211, 212, 213, 214, 215, 216, 217, 218, 219, 220, 221, 222, 223, 224, 225, 226, 227, 228, 229, 230, 231, 232, 233, 234, 235, 236, 237, 238, 239, 240, 241, 242, 243, 244, 245, 246, 247, 248, 249, 250, 251, 252, 253, 254, 255, 256, 257, 258, 259, 260, 261, 262, 263, 264, 265, 266, 267, 268, 269, 270, 271, 272, 273, 274, 275, 276, 277, 278, 279, 280, 281, 282, 283, 284, 285, 286, 287, 288, 289, 290, 291, 292, 293, 294, 295, 296, 297, 298, 299, 300, 301, 302, 303, 304, 305, 306, 307, 308, 309, 310, 311, 312, 313, 314, 315, 316, 317, 318, 319, 320, 321, 322, 323, 324, 325, 326, 327, 328, 329, 330, 331, 332, 333, 334, 335, 336, 337, 338, 339, 340, 341, 342, 343, 344, 345, 346, 347, 348, 349, 350, 351, 352, 353, 354, 355, 356, 357, 358, 359, 360, 361, 362, 363, 364, 365, 366, 367, 368, 369, 370, 371, 372, 373, 374, 375, 376, 377, 378, 379, 380, 381, 382, 383, 384, 385, 386, 387, 388, 389, 390, 391, 392, 393, 394, 395, 396, 397, 398, 399, 400, 401, 402, 403, 404, 405, 406, 407, 408, 409, 410, 411, 412, 413, 414, 415, 416, 417, 418, 419, 420, 421, 422, 423, 424, 425, 426, 427, 428, 429, 430, 431, 432, 433, 434, 435, 436, 437, 438, 439, 440, 441, 442, 443, 444, 445, 446, 447, 448, 449, 450, 451, 452, 453, 454, 455, 456, 457, 458, 459, 460, 461, 462, 463, 464, 465, 466, 467, 468, 469, 470, 471, 472, 473, 474, 475, 476, 477, 478, 479, 480, 481, 482, 483, 484, 485, 486, 487, 488, 489, 490, 491, 492, 493, 494, 495, 496, 497, 498, 499, 500, 501, 502, 503, 504, 505, 506, 507, 508, 509, 510, 511, 512, 513, 514, 515, 516, 517, 518, 519, 520, 521, 522, 523, 524, 525, 526, 527, 528, 529, 530, 531, 532, 533, 534, 535, 536, 537, 538, 539, 540, 541, 542, 543, 544, 545, 546, 547, 548, 549, 550, 551, 552, 553, 554, 555, 556, 557, 558, 559, 560, 561, 562, 563, 564, 565, 566, 567, 568, 569, 570, 571, 572, 573, 574, 575, 576, 577, 578, 579, 580, 581],
      "AcquisitionTime": ["162156.690000", "162157.480000", "162158.267500", "162159.055000", "162159.842500", "162200.632500", "162201.420000", "162202.207500", "162202.995000", "162203.785000", "162204.572500", "162205.360000", "162206.147500", "162206.937500", "162207.725000", "162208.512500", "162209.300000", "162210.090000", "162210.877500", "162211.665000", "162212.452500", "162213.242500", "162214.030000", "162214.817500", "162215.607500", "162216.395000", "162217.182500", "162217.970000", "162218.760000", "162219.547500", "162220.335000", "162221.122500", "162221.912500", "162222.700000", "162223.487500", "162224.275000", "162225.065000", "162225.852500", "162226.640000", "162227.427500", "162228.217500", "162229.005000", "162229.792500", "162230.580000", "162231.370000", "162232.157500", "162232.945000", "162233.735000", "162234.522500", "162235.310000", "162236.097500", "162236.887500", "162237.675000", "162238.462500", "162239.250000", "162240.040000", "162240.827500", "162241.615000", "162242.402500", "162243.192500", "162243.980000", "162244.767500", "162245.555000", "162246.345000", "162247.132500", "162247.920000", "162248.707500", "162249.497500", "162250.285000", "162251.072500", "162251.862500", "162252.650000", "162253.437500", "162254.225000", "162255.015000", "162255.802500", "162256.590000", "162257.377500", "162258.167500", "162258.955000", "162259.742500", "162300.530000", "162301.320000", "162302.107500", "162302.895000", "162303.682500", "162304.472500", "162305.260000", "162306.047500", "162306.835000", "162307.625000", "162308.412500", "162309.200000", "162309.990000", "162310.777500", "162311.565000", "162312.352500", "162313.142500", "162313.930000", "162314.717500", "162315.505000", "162316.295000", "162317.082500", "162317.870000", "162318.657500", "162319.447500", "162320.235000", "162321.022500", "162321.810000", "162322.600000", "162323.387500", "162324.175000", "162324.962500", "162325.752500", "162326.540000", "162327.327500", "162328.117500", "162328.905000", "162329.692500", "162330.480000", "162331.270000", "162332.057500", "162332.845000", "162333.632500", "162334.422500", "162335.210000", "162335.997500", "162336.785000", "162337.575000", "162338.362500", "162339.150000", "162339.937500", "162340.727500", "162341.515000", "162342.302500", "162343.090000", "162343.880000", "162344.667500", "162345.455000", "162346.245000", "162347.032500", "162347.820000", "162348.607500", "162349.397500", "162350.185000", "162350.972500", "162351.760000", "162352.550000", "162353.337500", "162354.125000", "162354.912500", "162355.702500", "162356.490000", "162357.277500", "162358.065000", "162358.855000", "162359.642500", "162400.430000", "162401.217500", "162402.007500", "162402.795000", "162403.582500", "162404.372500", "162405.160000", "162405.947500", "162406.735000", "162407.525000", "162408.312500", "162409.100000", "162409.887500", "162410.677500", "162411.465000", "162412.252500", "162413.040000", "162413.830000", "162414.617500", "162415.405000", "162416.192500", "162416.982500", "162417.770000", "162418.557500", "162419.345000", "162420.135000", "162420.922500", "162421.710000", "162422.500000", "162423.287500", "162424.075000", "162424.862500", "162425.652500", "162426.440000", "162427.227500", "162428.015000", "162428.805000", "162429.592500", "162430.380000", "162431.167500", "162431.957500", "162432.745000", "162433.532500", "162434.320000", "162435.110000", "162435.897500", "162436.685000", "162437.475000", "162438.262500", "162439.050000", "162439.837500", "162440.627500", "162441.415000", "162442.202500", "162442.990000", "162443.780000", "162444.567500", "162445.355000", "162446.142500", "162446.932500", "162447.720000", "162448.507500", "162449.295000", "162450.085000", "162450.872500", "162451.660000", "162452.447500", "162453.237500", "162454.025000", "162454.812500", "162455.602500", "162456.390000", "162457.177500", "162457.965000", "162458.755000", "162459.542500", "162500.330000", "162501.117500", "162501.907500", "162502.695000", "162503.482500", "162504.270000", "162505.060000", "162505.847500", "162506.635000", "162507.422500", "162508.212500", "162509.000000", "162509.787500", "162510.575000", "162511.365000", "162512.152500", "162512.940000", "162513.730000", "162514.517500", "162515.305000", "162516.092500", "162516.882500", "162517.670000", "162518.457500", "162519.245000", "162520.035000", "162520.822500", "162521.610000", "162522.397500", "162523.187500", "162523.975000", "162524.762500", "162525.550000", "162526.340000", "162527.127500", "162527.915000", "162528.702500", "162529.492500", "162530.280000", "162531.067500", "162531.857500", "162532.645000", "162533.432500", "162534.220000", "162535.010000", "162535.797500", "162536.585000", "162537.372500", "162538.162500", "162538.950000", "162539.737500", "162540.525000", "162541.315000", "162542.102500", "162542.890000", "162543.677500", "162544.467500", "162545.255000", "162546.042500", "162546.830000", "162547.620000", "162548.407500", "162549.195000", "162549.985000", "162550.772500", "162551.560000", "162552.347500", "162553.137500", "162553.925000", "162554.712500", "162555.500000", "162556.290000", "162557.077500", "162557.865000", "162558.652500", "162559.442500", "162600.230000", "162601.017500", "162601.805000", "162602.595000", "162603.382500", "162604.170000", "162604.957500", "162605.747500", "162606.535000", "162607.322500", "162608.112500", "162608.900000", "162609.687500", "162610.475000", "162611.265000", "162612.052500", "162612.840000", "162613.627500", "162614.417500", "162615.205000", "162615.992500", "162616.780000", "162617.570000", "162618.357500", "162619.145000", "162619.932500", "162620.722500", "162621.510000", "162622.297500", "162623.085000", "162623.875000", "162624.662500", "162625.450000", "162626.240000", "162627.027500", "162627.815000", "162628.602500", "162629.392500", "162630.180000", "162630.967500", "162631.755000", "162632.545000", "162633.332500", "162634.120000", "162634.907500", "162635.697500", "162636.485000", "162637.272500", "162638.060000", "162638.850000", "162639.637500", "162640.425000", "162641.212500", "162642.002500", "162642.790000", "162643.577500", "162644.367500", "162645.155000", "162645.942500", "162646.730000", "162647.520000", "162648.307500", "162649.095000", "162649.882500", "162650.672500", "162651.460000", "162652.247500", "162653.035000", "162653.825000", "162654.612500", "162655.400000", "162656.187500", "162656.977500", "162657.765000", "162658.552500", "162659.340000", "162700.130000", "162700.917500", "162701.705000", "162702.495000", "162703.282500", "162704.070000", "162704.857500", "162705.647500", "162706.435000", "162707.222500", "162708.010000", "162708.800000", "162709.587500", "162710.375000", "162711.162500", "162711.952500", "162712.740000", "162713.527500", "162714.315000", "162715.105000", "162715.892500", "162716.680000", "162717.467500", "162718.257500", "162719.045000", "162719.832500", "162720.622500", "162721.410000", "162722.197500", "162722.985000", "162723.775000", "162724.562500", "162725.350000", "162726.137500", "162726.927500", "162727.715000", "162728.502500", "162729.290000", "162730.080000", "162730.867500", "162731.655000", "162732.442500", "162733.232500", "162734.020000", "162734.807500", "162735.595000", "162736.385000", "162737.172500", "162737.960000", "162738.750000", "162739.537500", "162740.325000", "162741.112500", "162741.902500", "162742.690000", "162743.477500", "162744.265000", "162745.055000", "162745.842500", "162746.630000", "162747.417500", "162748.207500", "162748.995000", "162749.782500", "162750.570000", "162751.360000", "162752.147500", "162752.935000", "162753.725000", "162754.512500", "162755.300000", "162756.087500", "162756.877500", "162757.665000", "162758.452500", "162759.240000", "162800.030000", "162800.817500", "162801.605000", "162802.392500", "162803.182500", "162803.970000", "162804.757500", "162805.545000", "162806.335000", "162807.122500", "162807.910000", "162808.697500", "162809.487500", "162810.275000", "162811.062500", "162811.852500", "162812.640000", "162813.427500", "162814.215000", "162815.005000", "162815.792500", "162816.580000", "162817.367500", "162818.157500", "162818.945000", "162819.732500", "162820.520000", "162821.310000", "162822.097500", "162822.885000", "162823.672500", "162824.462500", "162825.250000", "162826.037500", "162826.825000", "162827.615000", "162828.402500", "162829.190000", "162829.980000", "162830.767500", "162831.555000", "162832.342500", "162833.132500", "162833.920000", "162834.707500", "162835.495000", "162836.285000", "162837.072500", "162837.860000", "162838.647500", "162839.437500", "162840.225000", "162841.012500", "162841.800000", "162842.590000", "162843.377500", "162844.165000", "162844.952500", "162845.742500", "162846.530000", "162847.317500", "162848.107500", "162848.895000", "162849.682500", "162850.470000", "162851.260000", "162852.047500", "162852.835000", "162853.622500", "162854.412500", "162855.200000", "162855.987500", "162856.775000", "162857.565000", "162858.352500", "162859.140000", "162859.927500", "162900.717500", "162901.505000", "162902.292500", "162903.080000", "162903.870000", "162904.657500", "162905.445000", "162906.235000", "162907.022500", "162907.810000", "162908.597500", "162909.387500", "162910.175000", "162910.962500", "162911.750000", "162912.540000", "162913.327500", "162914.115000", "162914.902500", "162915.692500", "162916.480000", "162917.267500", "162918.055000", "162918.845000", "162919.632500", "162920.420000", "162921.207500", "162921.997500", "162922.785000", "162923.572500", "162924.362500", "162925.150000", "162925.937500", "162926.725000", "162927.515000", "162928.302500", "162929.090000", "162929.877500", "162930.667500", "162931.455000", "162932.242500", "162933.030000", "162933.820000"],
      "ContentTime": ["174328.515000", "174328.515000", "174428.500000", "174428.500000", "174428.500000", "174428.500000", "174428.500000", "174428.515000", "174428.515000", "174428.515000", "174428.515000", "174428.515000", "174428.515000", "174428.531000", "174428.531000", "174428.531000", "174428.531000", "174428.531000", "174428.531000", "174428.531000", "174428.546000", "174428.546000", "174428.546000", "174428.546000", "174428.546000", "174428.546000", "174428.546000", "174428.562000", "174428.562000", "174428.562000", "174528.500000", "174528.500000", "174528.500000", "174528.515000", "174528.515000", "174528.515000", "174528.515000", "174528.515000", "174528.515000", "174528.531000", "174528.531000", "174528.531000", "174528.531000", "174528.531000", "174528.531000", "174528.531000", "174528.546000", "174528.546000", "174528.546000", "174528.546000", "174528.546000", "174528.562000", "174528.562000", "174528.562000", "174528.562000", "174528.562000", "174528.562000", "174528.562000", "174628.500000", "174628.500000", "174628.500000", "174628.500000", "174628.500000", "174628.515000", "174628.515000", "174628.515000", "174628.515000", "174628.515000", "174628.515000", "174628.531000", "174628.531000", "174628.531000", "174628.531000", "174628.531000", "174628.531000", "174628.531000", "174628.546000", "174628.546000", "174628.546000", "174628.546000", "174628.546000", "174628.562000", "174628.562000", "174628.562000", "174628.562000", "174628.562000", "174628.562000", "174728.500000", "174728.500000", "174728.500000", "174728.500000", "174728.500000", "174728.515000", "174728.515000", "174728.515000", "174728.515000", "174728.515000", "174728.515000", "174728.531000", "174728.531000", "174728.531000", "174728.531000", "174728.531000", "174728.531000", "174728.531000", "174728.546000", "174728.546000", "174728.546000", "174728.546000", "174728.546000", "174728.546000", "174728.562000", "174728.562000", "174728.562000", "174728.562000", "174828.500000", "174828.500000", "174828.500000", "174828.500000", "174828.500000", "174828.515000", "174828.515000", "174828.515000", "174828.515000", "174828.515000", "174828.515000", "174828.531000", "174828.531000", "174828.531000", "174828.531000", "174828.531000", "174828.531000", "174828.531000", "174828.546000", "174828.546000", "174828.546000", "174828.546000", "174828.546000", "174828.546000", "174828.546000", "174828.562000", "174828.562000", "174828.562000", "174928.500000", "174928.500000", "174928.500000", "174928.500000", "174928.515000", "174928.515000", "174928.515000", "174928.515000", "174928.515000", "174928.531000", "174928.531000", "174928.531000", "174928.531000", "174928.531000", "174928.531000", "174928.531000", "174928.546000", "174928.546000", "174928.546000", "174928.546000", "174928.546000", "174928.546000", "174928.562000", "174928.562000", "174928.562000", "174928.562000", "174928.562000", "174928.578000", "174948.500000", "174948.500000", "174948.500000", "174948.500000", "174948.515000", "174948.515000", "174948.515000", "174948.515000", "174948.515000", "174948.515000", "175048.500000", "175048.500000", "175048.500000", "175048.500000", "175048.500000", "175048.515000", "175048.515000", "175048.515000", "175048.515000", "175048.515000", "175048.515000", "175048.531000", "175048.531000", "175048.531000", "175048.531000", "175048.531000", "175048.531000", "175048.531000", "175048.546000", "175048.546000", "175048.546000", "175048.546000", "175048.546000", "175048.546000", "175048.562000", "175048.562000", "175048.562000", "175048.562000", "175148.500000", "175148.500000", "175148.500000", "175148.500000", "175148.515000", "175148.515000", "175148.515000", "175148.515000", "175148.515000", "175148.515000", "175148.515000", "175148.531000", "175148.531000", "175148.531000", "175148.531000", "175148.531000", "175148.531000", "175148.531000", "175148.546000", "175148.546000", "175148.546000", "175148.546000", "175148.546000", "175148.546000", "175148.562000", "175148.562000", "175148.562000", "175148.562000", "175248.500000", "175248.500000", "175248.500000", "175248.500000", "175248.500000", "175248.515000", "175248.515000", "175248.515000", "175248.515000", "175248.515000", "175248.515000", "175248.531000", "175248.531000", "175248.531000", "175248.531000", "175248.531000", "175248.531000", "175248.531000", "175248.546000", "175248.546000", "175248.546000", "175248.546000", "175248.546000", "175248.546000", "175248.562000", "175248.562000", "175248.562000", "175248.562000", "175248.562000", "175348.500000", "175348.500000", "175348.500000", "175348.500000", "175348.500000", "175348.515000", "175348.515000", "175348.515000", "175348.515000", "175348.515000", "175348.515000", "175348.531000", "175348.531000", "175348.531000", "175348.531000", "175348.531000", "175348.531000", "175348.531000", "175348.546000", "175348.546000", "175348.546000", "175348.546000", "175348.546000", "175348.546000", "175348.562000", "175348.562000", "175348.562000", "175348.562000", "175448.500000", "175448.500000", "175448.500000", "175448.515000", "175448.515000", "175448.515000", "175448.515000", "175448.515000", "175448.531000", "175448.531000", "175448.531000", "175448.531000", "175448.531000", "175448.531000", "175448.546000", "175448.546000", "175448.546000", "175448.546000", "175448.546000", "175448.546000", "175448.546000", "175448.562000", "175448.562000", "175448.562000", "175448.562000", "175448.562000", "175448.562000", "175448.578000", "175548.500000", "175548.500000", "175548.500000", "175548.500000", "175548.500000", "175548.515000", "175548.515000", "175548.515000", "175548.515000", "175548.515000", "175548.515000", "175548.531000", "175548.531000", "175548.531000", "175548.531000", "175548.531000", "175548.546000", "175548.546000", "175548.546000", "175548.546000", "175548.546000", "175548.546000", "175548.546000", "175548.562000", "175548.562000", "175548.562000", "175548.562000", "175548.562000", "175648.500000", "175648.500000", "175648.500000", "175648.500000", "175648.500000", "175648.515000", "175648.515000", "175648.515000", "175648.515000", "175648.515000", "175648.515000", "175648.531000", "175648.531000", "175648.531000", "175648.531000", "175648.531000", "175648.531000", "175648.531000", "175648.546000", "175648.546000", "175648.546000", "175648.546000", "175648.562000", "175648.562000", "175648.562000", "175648.562000", "175648.562000", "175648.562000", "175648.562000", "175748.500000", "175748.500000", "175748.500000", "175748.500000", "175748.515000", "175748.515000", "175748.515000", "175748.515000", "175748.515000", "175748.515000", "175748.515000", "175748.531000", "175748.531000", "175748.531000", "175748.531000", "175748.531000", "175748.531000", "175748.546000", "175748.546000", "175748.546000", "175748.546000", "175748.546000", "175748.546000", "175748.546000", "175748.562000", "175748.562000", "175748.562000", "175748.562000", "175848.500000", "175848.500000", "175848.500000", "175848.500000", "175848.500000", "175848.515000", "175848.515000", "175848.515000", "175848.515000", "175848.515000", "175848.515000", "175848.531000", "175848.531000", "175848.531000", "175848.531000", "175848.531000", "175848.531000", "175848.531000", "175848.546000", "175848.546000", "175848.546000", "175848.546000", "175848.562000", "175848.562000", "175848.562000", "175848.562000", "175848.562000", "175848.562000", "175948.500000", "175948.500000", "175948.500000", "175948.500000", "175948.500000", "175948.515000", "175948.515000", "175948.515000", "175948.515000", "175948.515000", "175948.515000", "175948.531000", "175948.531000", "175948.531000", "175948.531000", "175948.546000", "175948.546000", "175948.546000", "175948.546000", "175948.546000", "175948.546000", "175948.546000", "175948.562000", "175948.562000", "175948.562000", "175948.562000", "175948.562000", "175948.562000", "180048.500000", "180048.500000", "180048.500000", "180048.500000", "180048.515000", "180048.515000", "180048.515000", "180048.515000", "180048.515000", "180048.515000", "180048.515000", "180048.531000", "180048.531000", "180048.531000", "180048.531000", "180048.531000", "180048.531000", "180048.546000", "180048.546000", "180048.546000", "180048.546000", "180048.546000", "180048.546000", "180048.546000", "180048.562000", "180048.562000", "180048.562000", "180048.562000", "180048.562000", "180148.500000", "180148.500000", "180148.500000", "180148.500000", "180148.500000", "180148.515000", "180148.515000", "180148.515000", "180148.515000", "180148.515000", "180148.515000", "180148.531000", "180148.531000", "180148.531000", "180148.531000", "180148.531000", "180148.531000", "180148.531000", "180148.546000", "180148.546000", "180148.546000", "180148.546000", "180148.546000", "180148.546000", "180148.562000", "180148.562000", "180148.562000", "180148.562000", "180248.500000", "180248.500000", "180248.500000", "180248.515000", "180248.515000", "180248.515000", "180248.515000", "180248.515000", "180248.515000", "180248.531000", "180248.531000", "180248.531000", "180248.531000", "180248.531000", "180248.531000", "180248.531000", "180248.546000", "180248.546000", "180248.546000", "180248.546000", "180248.546000", "180248.546000", "180248.562000", "180248.562000", "180248.562000", "180248.562000", "180248.562000", "180248.562000", "180348.500000", "180348.500000", "180348.500000", "180348.500000", "180348.500000", "180348.515000", "180348.515000", "180348.515000", "180348.515000", "180348.515000", "180348.515000", "180348.531000", "180348.531000", "180348.531000", "180348.531000", "180348.546000", "180348.546000", "180348.546000", "180348.546000", "180348.546000", "180348.562000", "180348.562000", "180348.562000", "180348.562000", "180348.562000", "180348.562000", "180348.578000", "180348.578000", "180356.953000", "180356.953000", "180356.953000", "180356.953000", "180356.953000"],
