{
  "AcquisitionMatrixPE": 104,
  "AcquisitionNumber": 1,
  "AcquisitionTime": "16:12:40.837500",
  "BandwidthPerPixelPhaseEncode": 13.935,
  "BaseResolution": 104,
  "CoilString": "C:HEA;HEP",
  "ConversionSoftware": "dcm2niix",
  "ConversionSoftwareVersion": "v1.0.20210317",
  "DerivedVendorReportedEchoSpacing": 0.000690017,
  "DeviceSerialNumber": "35450",
  "DwellTime": 2.5e-06,
  "EchoTime": 0.0348,
  "EffectiveEchoSpacing": 0.000690017,
  "FlipAngle": 55,
  "ImageComments": "Unaliased MB8/PE3",
  "ImageOrientationPatientDICOM": [1, 0, 0, 0, 0.952129, -0.305695],
  "ImageType": [
    "ORIGINAL",
    "PRIMARY",
    "M",
    "MB",
    "ND",
    "MOSAIC"
],
  "ImagingFrequency": 123.235,
  "InPlanePhaseEncodingDirectionDICOM": "COL",
  "InstitutionAddress": "Univeristy Ave. 197,Newark,North East,US,07102-1814",
  "InstitutionName": "RUBIC",
  "InstitutionalDepartmentName": "Department",
  "MRAcquisitionType": "2D",
  "MagneticFieldStrength": 3,
  "Manufacturer": "Siemens",
  "ManufacturersModelName": "TrioTim",
  "Modality": "MR",
  "MultibandAccelerationFactor": 8,
  "PartialFourier": 0.875,
  "PatientPosition": "HFS",
  "PercentPhaseFOV": 100,
  "PercentSampling": 100,
  "PhaseEncodingDirection": "j-",
  "PhaseEncodingSteps": 91,
  "PhaseResolution": 1,
  "PixelBandwidth": 1923,
  "ProcedureStepDescription": "Cole^Michael",
  "ProtocolName": "cmrr_mbep2d_bold_2mm_MB8_Task_8x",
  "PulseSequenceDetails": "%CustomerSeq%\\cmrr_mbep2d_bold",
  "ReceiveCoilName": "32Ch_Head",
  "ReconMatrixPE": 104,
  "RepetitionTime": 0.785,
  "SAR": 0.165486,
  "ScanOptions": "PFP\\FS",
  "ScanningSequence": "EP",
  "SequenceName": "epfid2d1_104",
  "SequenceVariant": "SK\\SS",
  "SeriesDescription": "cmrr_mbep2d_bold_2mm_MB8_Task_8x",
  "SeriesNumber": 13,
  "ShimSetting": [2135, -321, -7297, 320, 201, -240, -156, 27],
  "SliceThickness": 2,
  "SliceTiming": [0, 0.4375, 0.0875, 0.525, 0.175, 0.6125, 0.2625, 0.7, 0.35, 0, 0.4375, 0.0875, 0.525, 0.175, 0.6125, 0.2625, 0.7, 0.35, 0, 0.4375, 0.0875, 0.525, 0.175, 0.6125, 0.2625, 0.7, 0.35, 0, 0.4375, 0.0875, 0.525, 0.175, 0.6125, 0.2625, 0.7, 0.35, 0, 0.4375, 0.0875, 0.525, 0.175, 0.6125, 0.2625, 0.7, 0.35, 0, 0.4375, 0.0875, 0.525, 0.175, 0.6125, 0.2625, 0.7, 0.35, 0, 0.4375, 0.0875, 0.525, 0.175, 0.6125, 0.2625, 0.7, 0.35, 0, 0.4375, 0.0875, 0.525, 0.175, 0.6125, 0.2625, 0.7, 0.35],
  "SoftwareVersions": "syngo MR B19",
  "SpacingBetweenSlices": 2,
  "StationName": "MRC35450",
  "TaskName": "cpro",
  "TotalReadoutTime": 0.0710717,
  "TxRefAmp": 344.952,
  "dcmmeta_affine": [
    [-2.0, 0.0, 0.0, 102.6440658569336],
    [0.0, 1.9042588472366333, -0.6113905906677246, -64.6802749633789],
    [0.0, 0.6113905906677246, 1.9042587280273438, -121.13286590576172],
    [0.0, 0.0, 0.0, 1.0]
],
  "dcmmeta_reorient_transform": [
    [0.0, -1.0, 0.0, 103.0],
    [1.0, 0.0, 0.0, 0.0],
    [0.0, 0.0, 1.0, 0.0],
    [0.0, 0.0, 0.0, 1.0]
],
  "dcmmeta_shape": [104, 104, 72, 581],
  "dcmmeta_slice_dim": 2,
  "dcmmeta_version": 0.6,
  "global": {
    "const": {
      "AcquisitionMatrix": [104, 0, 0, 104],
      "AngioFlag": "N",
      "BitsAllocated": 16,
      "BitsStored": 12,
      "Columns": 936,
      "EchoNumbers": 1,
      "EchoTime": 34.8,
      "EchoTrainLength": 1,
      "FlipAngle": 55.0,
      "HighBit": 11,
      "ImageOrientationPatient": [1.0, 0.0, 0.0, 0.0, 0.95212939539477, -0.3056952967011],
      "ImagePositionPatient": [-934.64406776428, -923.63003425552, 196.1788552684],
      "ImageType": [
        "ORIGINAL",
        "PRIMARY",
        "M",
        "MB",
        "ND",
        "MOSAIC"
],
      "ImagedNucleus": "1H",
      "ImagingFrequency": 123.234707,
      "InPlanePhaseEncodingDirection": "COL",
      "MRAcquisitionType": "2D",
      "MagneticFieldStrength": 3.0,
      "Manufacturer": "SIEMENS",
      "ManufacturerModelName": "TrioTim",
      "Modality": "MR",
      "NumberOfAverages": 1.0,
      "NumberOfPhaseEncodingSteps": 91,
      "PercentPhaseFieldOfView": 100.0,
      "PercentSampling": 100.0,
      "PerformedProcedureStepStartTime": "150120.031000",
      "PhotometricInterpretation": "MONOCHROME2",
      "PixelBandwidth": 1923.0,
      "PixelRepresentation": 0,
      "PixelSpacing": [2.0, 2.0],
      "ProtocolName": "cmrr_mbep2d_bold_2mm_MB8_Task_8x",
      "RepetitionTime": 785.0,
      "Rows": 936,
      "SAR": 0.16548636897854,
      "SamplesPerPixel": 1,
      "ScanOptions": [
        "PFP",
        "FS"
],
      "ScanningSequence": "EP",
      "SequenceName": "epfid2d1_104",
      "SequenceVariant": [
        "SK",
        "SS"
],
      "SeriesDescription": "cmrr_mbep2d_bold_2mm_MB8_Task_8x",
      "SeriesNumber": 13,
      "SeriesTime": "164226.921000",
      "SliceLocation": -95.561702507867,
      "SliceThickness": 2.0,
      "SmallestImagePixelValue": 0,
      "SoftwareVersions": "syngo MR B19",
      "SpacingBetweenSlices": 1.9999999926155,
      "SpecificCharacterSet": "ISO_IR 100",
      "StudyID": "1",
      "StudyTime": "150119.984000",
      "TransmitCoilName": "Body",
      "VariableFlipAngleFlag": "N",
      "WindowCenterWidthExplanation": "Algo1",
      "dBdt": 0.0},
    "slices": {}
  },
  "time": {
    "samples": {
      "AcquisitionNumber": [1, 2, 3, 4, 5, 6, 7, 8, 9, 10, 11, 12, 13, 14, 15, 16, 17, 18, 19, 20, 21, 22, 23, 24, 25, 26, 27, 28, 29, 30, 31, 32, 33, 34, 35, 36, 37, 38, 39, 40, 41, 42, 43, 44, 45, 46, 47, 48, 49, 50, 51, 52, 53, 54, 55, 56, 57, 58, 59, 60, 61, 62, 63, 64, 65, 66, 67, 68, 69, 70, 71, 72, 73, 74, 75, 76, 77, 78, 79, 80, 81, 82, 83, 84, 85, 86, 87, 88, 89, 90, 91, 92, 93, 94, 95, 96, 97, 98, 99, 100, 101, 102, 103, 104, 105, 106, 107, 108, 109, 110, 111, 112, 113, 114, 115, 116, 117, 118, 119, 120, 121, 122, 123, 124, 125, 126, 127, 128, 129, 130, 131, 132, 133, 134, 135, 136, 137, 138, 139, 140, 141, 142, 143, 144, 145, 146, 147, 148, 149, 150, 151, 152, 153, 154, 155, 156, 157, 158, 159, 160, 161, 162, 163, 164, 165, 166, 167, 168, 169, 170, 171, 172, 173, 174, 175, 176, 177, 178, 179, 180, 181, 182, 183, 184, 185, 186, 187, 188, 189, 190, 191, 192, 193, 194, 195, 196, 197, 198, 199, 200, 201, 202, 203, 204, 205, 206, 207, 208, 209, 210, 211, 212, 213, 214, 215, 216, 217, 218, 219, 220, 221, 222, 223, 224, 225, 226, 227, 228, 229, 230, 231, 232, 233, 234, 235, 236, 237, 238, 239, 240, 241, 242, 243, 244, 245, 246, 247, 248, 249, 250, 251, 252, 253, 254, 255, 256, 257, 258, 259, 260, 261, 262, 263, 264, 265, 266, 267, 268, 269, 270, 271, 272, 273, 274, 275, 276, 277, 278, 279, 280, 281, 282, 283, 284, 285, 286, 287, 288, 289, 290, 291, 292, 293, 294, 295, 296, 297, 298, 299, 300, 301, 302, 303, 304, 305, 306, 307, 308, 309, 310, 311, 312, 313, 314, 315, 316, 317, 318, 319, 320, 321, 322, 323, 324, 325, 326, 327, 328, 329, 330, 331, 332, 333, 334, 335, 336, 337, 338, 339, 340, 341, 342, 343, 344, 345, 346, 347, 348, 349, 350, 351, 352, 353, 354, 355, 356, 357, 358, 359, 360, 361, 362, 363, 364, 365, 366, 367, 368, 369, 370, 371, 372, 373, 374, 375, 376, 377, 378, 379, 380, 381, 382, 383, 384, 385, 386, 387, 388, 389, 390, 391, 392, 393, 394, 395, 396, 397, 398, 399, 400, 401, 402, 403, 404, 405, 406, 407, 408, 409, 410, 411, 412, 413, 414, 415, 416, 417, 418, 419, 420, 421, 422, 423, 424, 425, 426, 427, 428, 429, 430, 431, 432, 433, 434, 435, 436, 437, 438, 439, 440, 441, 442, 443, 444, 445, 446, 447, 448, 449, 450, 451, 452, 453, 454, 455, 456, 457, 458, 459, 460, 461, 462, 463, 464, 465, 466, 467, 468, 469, 470, 471, 472, 473, 474, 475, 476, 477, 478, 479, 480, 481, 482, 483, 484, 485, 486, 487, 488, 489, 490, 491, 492, 493, 494, 495, 496, 497, 498, 499, 500, 501, 502, 503, 504, 505, 506, 507, 508, 509, 510, 511, 512, 513, 514, 515, 516, 517, 518, 519, 520, 521, 522, 523, 524, 525, 526, 527, 528, 529, 530, 531, 532, 533, 534, 535, 536, 537, 538, 539, 540, 541, 542, 543, 544, 545, 546, 547, 548, 549, 550, 551, 552, 553, 554, 555, 556, 557, 558, 559, 560, 561, 562, 563, 564, 565, 566, 567, 568, 569, 570, 571, 572, 573, 574, 575, 576, 577, 578, 579, 580, 581],
      "AcquisitionTime": ["161240.837500", "161241.627500", "161242.415000", "161243.202500", "161243.990000", "161244.780000", "161245.567500", "161246.355000", "161247.142500", "161247.932500", "161248.720000", "161249.507500", "161250.297500", "161251.085000", "161251.872500", "161252.660000", "161253.450000", "161254.237500", "161255.025000", "161255.812500", "161256.602500", "161257.390000", "161258.177500", "161258.965000", "161259.755000", "161300.542500", "161301.330000", "161302.117500", "161302.907500", "161303.695000", "161304.482500", "161305.270000", "161306.060000", "161306.847500", "161307.635000", "161308.425000", "161309.212500", "161310.000000", "161310.787500", "161311.577500", "161312.365000", "161313.152500", "161313.940000", "161314.730000", "161315.517500", "161316.305000", "161317.092500", "161317.882500", "161318.670000", "161319.457500", "161320.245000", "161321.035000", "161321.822500", "161322.610000", "161323.397500", "161324.187500", "161324.975000", "161325.762500", "161326.552500", "161327.340000", "161328.127500", "161328.915000", "161329.705000", "161330.492500", "161331.280000", "161332.067500", "161332.857500", "161333.645000", "161334.432500", "161335.220000", "161336.010000", "161336.797500", "161337.585000", "161338.372500", "161339.162500", "161339.950000", "161340.737500", "161341.525000", "161342.315000", "161343.102500", "161343.890000", "161344.680000", "161345.467500", "161346.255000", "161347.042500", "161347.832500", "161348.620000", "161349.407500", "161350.195000", "161350.985000", "161351.772500", "161352.560000", "161353.347500", "161354.137500", "161354.925000", "161355.712500", "161356.500000", "161357.290000", "161358.077500", "161358.865000", "161359.652500", "161400.442500", "161401.230000", "161402.017500", "161402.807500", "161403.595000", "161404.382500", "161405.170000", "161405.960000", "161406.747500", "161407.535000", "161408.322500", "161409.112500", "161409.900000", "161410.687500", "161411.475000", "161412.265000", "161413.052500", "161413.840000", "161414.627500", "161415.417500", "161416.205000", "161416.992500", "161417.780000", "161418.570000", "161419.357500", "161420.145000", "161420.935000", "161421.722500", "161422.510000", "161423.297500", "161424.087500", "161424.875000", "161425.662500", "161426.450000", "161427.240000", "161428.027500", "161428.815000", "161429.602500", "161430.392500", "161431.180000", "161431.967500", "161432.755000", "161433.545000", "161434.332500", "161435.120000", "161435.907500", "161436.697500", "161437.485000", "161438.272500", "161439.062500", "161439.850000", "161440.637500", "161441.425000", "161442.215000", "161443.002500", "161443.790000", "161444.577500", "161445.367500", "161446.155000", "161446.942500", "161447.730000", "161448.520000", "161449.307500", "161450.095000", "161450.882500", "161451.672500", "161452.460000", "161453.247500", "161454.035000", "161454.825000", "161455.612500", "161456.400000", "161457.190000", "161457.977500", "161458.765000", "161459.552500", "161500.342500", "161501.130000", "161501.917500", "161502.705000", "161503.495000", "161504.282500", "161505.070000", "161505.857500", "161506.647500", "161507.435000", "161508.222500", "161509.010000", "161509.800000", "161510.587500", "161511.375000", "161512.165000", "161512.952500", "161513.740000", "161514.527500", "161515.317500", "161516.105000", "161516.892500", "161517.680000", "161518.470000", "161519.257500", "161520.045000", "161520.832500", "161521.622500", "161522.410000", "161523.197500", "161523.985000", "161524.775000", "161525.562500", "161526.350000", "161527.137500", "161527.927500", "161528.715000", "161529.502500", "161530.292500", "161531.080000", "161531.867500", "161532.655000", "161533.445000", "161534.232500", "161535.020000", "161535.807500", "161536.597500", "161537.385000", "161538.172500", "161538.960000", "161539.750000", "161540.537500", "161541.325000", "161542.112500", "161542.902500", "161543.690000", "161544.477500", "161545.265000", "161546.055000", "161546.842500", "161547.630000", "161548.420000", "161549.207500", "161549.995000", "161550.782500", "161551.572500", "161552.360000", "161553.147500", "161553.935000", "161554.725000", "161555.512500", "161556.300000", "161557.087500", "161557.877500", "161558.665000", "161559.452500", "161600.240000", "161601.030000", "161601.817500", "161602.605000", "161603.392500", "161604.182500", "161604.970000", "161605.757500", "161606.547500", "161607.335000", "161608.122500", "161608.910000", "161609.700000", "161610.487500", "161611.275000", "161612.062500", "161612.852500", "161613.640000", "161614.427500", "161615.215000", "161616.005000", "161616.792500", "161617.580000", "161618.367500", "161619.157500", "161619.945000", "161620.732500", "161621.520000", "161622.310000", "161623.097500", "161623.885000", "161624.675000", "161625.462500", "161626.250000", "161627.037500", "161627.827500", "161628.615000", "161629.402500", "161630.190000", "161630.980000", "161631.767500", "161632.555000", "161633.342500", "161634.132500", "161634.920000", "161635.707500", "161636.495000", "161637.285000", "161638.072500", "161638.860000", "161639.647500", "161640.437500", "161641.225000", "161642.012500", "161642.802500", "161643.590000", "161644.377500", "161645.165000", "161645.955000", "161646.742500", "161647.530000", "161648.317500", "161649.107500", "161649.895000", "161650.682500", "161651.470000", "161652.260000", "161653.047500", "161653.835000", "161654.622500", "161655.412500", "161656.200000", "161656.987500", "161657.775000", "161658.565000", "161659.352500", "161700.140000", "161700.930000", "161701.717500", "161702.505000", "161703.292500", "161704.082500", "161704.870000", "161705.657500", "161706.445000", "161707.235000", "161708.022500", "161708.810000", "161709.597500", "161710.387500", "161711.175000", "161711.962500", "161712.750000", "161713.540000", "161714.327500", "161715.115000", "161715.902500", "161716.692500", "161717.480000", "161718.267500", "161719.057500", "161719.845000", "161720.632500", "161721.420000", "161722.210000", "161722.997500", "161723.785000", "161724.572500", "161725.362500", "161726.150000", "161726.937500", "161727.725000", "161728.515000", "161729.302500", "161730.090000", "161730.877500", "161731.667500", "161732.455000", "161733.242500", "161734.030000", "161734.820000", "161735.607500", "161736.395000", "161737.185000", "161737.972500", "161738.760000", "161739.547500", "161740.337500", "161741.125000", "161741.912500", "161742.700000", "161743.490000", "161744.277500", "161745.065000", "161745.852500", "161746.642500", "161747.430000", "161748.217500", "161749.005000", "161749.795000", "161750.582500", "161751.370000", "161752.157500", "161752.947500", "161753.735000", "161754.522500", "161755.312500", "161756.100000", "161756.887500", "161757.675000", "161758.465000", "161759.252500", "161800.040000", "161800.827500", "161801.617500", "161802.405000", "161803.192500", "161803.980000", "161804.770000", "161805.557500", "161806.345000", "161807.132500", "161807.922500", "161808.710000", "161809.497500", "161810.285000", "161811.075000", "161811.862500", "161812.650000", "161813.440000", "161814.227500", "161815.015000", "161815.802500", "161816.592500", "161817.380000", "161818.167500", "161818.955000", "161819.745000", "161820.532500", "161821.320000", "161822.107500", "161822.897500", "161823.685000", "161824.472500", "161825.260000", "161826.050000", "161826.837500", "161827.625000", "161828.415000", "161829.202500", "161829.990000", "161830.777500", "161831.567500", "161832.355000", "161833.142500", "161833.930000", "161834.720000", "161835.507500", "161836.295000", "161837.082500", "161837.872500", "161838.660000", "161839.447500", "161840.235000", "161841.025000", "161841.812500", "161842.600000", "161843.387500", "161844.177500", "161844.965000", "161845.752500", "161846.542500", "161847.330000", "161848.117500", "161848.905000", "161849.695000", "161850.482500", "161851.270000", "161852.057500", "161852.847500", "161853.635000", "161854.422500", "161855.210000", "161856.000000", "161856.787500", "161857.575000", "161858.362500", "161859.152500", "161859.940000", "161900.727500", "161901.515000", "161902.305000", "161903.092500", "161903.880000", "161904.670000", "161905.457500", "161906.245000", "161907.032500", "161907.822500", "161908.610000", "161909.397500", "161910.185000", "161910.975000", "161911.762500", "161912.550000", "161913.337500", "161914.127500", "161914.915000", "161915.702500", "161916.490000", "161917.280000", "161918.067500", "161918.855000", "161919.642500", "161920.432500", "161921.220000", "161922.007500", "161922.797500", "161923.585000", "161924.372500", "161925.160000", "161925.950000", "161926.737500", "161927.525000", "161928.312500", "161929.102500", "161929.890000", "161930.677500", "161931.465000", "161932.255000", "161933.042500", "161933.830000", "161934.617500", "161935.407500", "161936.195000", "161936.982500", "161937.770000", "161938.560000", "161939.347500", "161940.135000", "161940.925000", "161941.712500", "161942.500000", "161943.287500", "161944.077500", "161944.865000", "161945.652500", "161946.440000", "161947.230000", "161948.017500", "161948.805000", "161949.592500", "161950.382500", "161951.170000", "161951.957500", "161952.745000", "161953.535000", "161954.322500", "161955.110000", "161955.897500", "161956.687500", "161957.475000", "161958.262500", "161959.052500", "161959.840000", "162000.627500", "162001.415000", "162002.205000", "162002.992500", "162003.780000", "162004.567500", "162005.357500", "162006.145000", "162006.932500", "162007.720000", "162008.510000", "162009.297500", "162010.085000", "162010.872500", "162011.662500", "162012.450000", "162013.237500", "162014.025000", "162014.815000", "162015.602500", "162016.390000", "162017.180000", "162017.967500"],
      "ContentTime": ["164226.921000", "164226.921000", "164326.906000", "164326.906000", "164326.906000", "164326.906000", "164326.906000", "164326.906000", "164326.921000", "164326.921000", "164326.921000", "164326.921000", "164326.921000", "164326.921000", "164326.921000", "164326.937000", "164326.937000", "164326.937000", "164326.937000", "164326.937000", "164326.937000", "164326.953000", "164326.953000", "164326.953000", "164326.953000", "164326.953000", "164326.953000", "164326.968000", "164326.968000", "164326.968000", "164406.906000", "164406.906000", "164406.906000", "164406.906000", "164406.906000", "164406.906000", "164406.921000", "164406.921000", "164406.921000", "164406.921000", "164406.921000", "164406.921000", "164406.921000", "164406.937000", "164406.937000", "164406.937000", "164406.937000", "164406.937000", "164506.906000", "164506.906000", "164506.906000", "164506.906000", "164506.906000", "164506.906000", "164506.921000", "164506.921000", "164506.921000", "164506.921000", "164506.921000", "164506.921000", "164506.921000", "164506.937000", "164506.937000", "164506.937000", "164506.937000", "164506.937000", "164506.937000", "164506.937000", "164506.953000", "164506.953000", "164506.953000", "164506.953000", "164506.953000", "164506.953000", "164506.953000", "164606.906000", "164606.906000", "164606.906000", "164606.906000", "164606.906000", "164606.906000", "164606.921000", "164606.921000", "164606.921000", "164606.937000", "164606.937000", "164606.937000", "164606.937000", "164606.937000", "164606.937000", "164606.937000", "164606.953000", "164606.953000", "164606.953000", "164606.953000", "164606.953000", "164606.953000", "164606.968000", "164606.968000", "164606.968000", "164606.968000", "164606.968000", "164606.968000", "164706.906000", "164706.906000", "164706.906000", "164706.906000", "164706.906000", "164706.906000", "164706.921000", "164706.921000", "164706.921000", "164706.921000", "164706.921000", "164706.921000", "164706.921000", "164706.937000", "164706.937000", "164706.937000", "164706.937000", "164706.937000", "164706.937000", "164706.937000", "164706.953000", "164706.953000", "164706.953000", "164706.953000", "164706.953000", "164706.953000", "164706.953000", "164706.968000", "164806.906000", "164806.906000", "164806.906000", "164806.906000", "164806.906000", "164806.906000", "164806.921000", "164806.921000", "164806.921000", "164806.921000", "164806.921000", "164806.921000", "164806.937000", "164806.937000", "164806.937000", "164806.937000", "164806.937000", "164806.953000", "164806.953000", "164806.953000", "164806.953000", "164806.953000", "164806.953000", "164806.953000", "164806.968000", "164806.968000", "164806.968000", "164906.906000", "164906.906000", "164906.906000", "164906.906000", "164906.906000", "164906.921000", "164906.921000", "164906.921000", "164906.921000", "164906.921000", "164906.921000", "164906.921000", "164906.937000", "164906.937000", "164906.937000", "164906.937000", "164906.953000", "164906.953000", "164906.953000", "164906.953000", "164906.953000", "164906.953000", "164906.953000", "164906.968000", "164906.968000", "164906.968000", "164906.968000", "165006.906000", "165006.906000", "165006.906000", "165006.906000", "165006.906000", "165006.906000", "165006.921000", "165006.921000", "165006.921000", "165006.921000", "165006.921000", "165006.921000", "165006.921000", "165006.937000", "165006.937000", "165006.937000", "165006.937000", "165006.937000", "165006.937000", "165006.953000", "165006.953000", "165006.953000", "165006.953000", "165006.953000", "165006.968000", "165006.968000", "165006.968000", "165006.968000", "165106.906000", "165106.906000", "165106.906000", "165106.906000", "165106.906000", "165106.906000", "165106.921000", "165106.921000", "165106.921000", "165106.921000", "165106.921000", "165106.921000", "165106.937000", "165106.937000", "165106.937000", "165106.937000", "165106.937000", "165106.937000", "165106.937000", "165106.953000", "165106.953000", "165106.953000", "165106.953000", "165106.953000", "165106.953000", "165106.953000", "165106.968000", "165206.906000", "165206.906000", "165206.906000", "165206.906000", "165206.906000", "165206.906000", "165206.921000", "165206.921000", "165206.921000", "165206.921000", "165206.921000", "165206.921000", "165206.937000", "165206.937000", "165206.937000", "165206.937000", "165206.937000", "165206.937000", "165206.937000", "165206.953000", "165206.953000", "165206.953000", "165206.953000", "165206.953000", "165206.953000", "165206.968000", "165206.968000", "165206.968000", "165306.906000", "165306.906000", "165306.906000", "165306.906000", "165306.906000", "165306.906000", "165306.921000", "165306.921000", "165306.921000", "165306.921000", "165306.921000", "165306.921000", "165306.937000", "165306.937000", "165306.937000", "165306.937000", "165306.937000", "165306.937000", "165306.937000", "165306.953000", "165306.953000", "165306.953000", "165306.953000", "165306.968000", "165306.968000", "165306.968000", "165306.968000", "165406.906000", "165406.906000", "165406.906000", "165406.906000", "165406.906000", "165406.906000", "165406.921000", "165406.921000", "165406.921000", "165406.921000", "165406.921000", "165406.921000", "165406.921000", "165406.937000", "165406.937000", "165406.937000", "165406.937000", "165406.937000", "165406.937000", "165406.937000", "165406.953000", "165406.953000", "165406.953000", "165406.953000", "165406.953000", "165406.953000", "165406.953000", "165406.968000", "165506.906000", "165506.906000", "165506.906000", "165506.921000", "165506.921000", "165506.921000", "165506.921000", "165506.921000", "165506.921000", "165506.921000", "165506.937000", "165506.937000", "165506.937000", "165506.937000", "165506.937000", "165506.937000", "165506.937000", "165506.953000", "165506.953000", "165506.953000", "165506.953000", "165506.968000", "165506.968000", "165506.968000", "165506.968000", "165506.968000", "165506.968000", "165506.968000", "165606.906000", "165606.906000", "165606.906000", "165606.921000", "165606.921000", "165606.921000", "165606.921000", "165606.921000", "165606.921000", "165606.937000", "165606.937000", "165606.937000", "165606.937000", "165606.937000", "165606.953000", "165606.953000", "165606.953000", "165606.953000", "165606.953000", "165606.953000", "165606.953000", "165606.968000", "165606.968000", "165606.968000", "165606.968000", "165606.968000", "165606.968000", "165706.906000", "165706.906000", "165706.906000", "165706.921000", "165706.921000", "165706.921000", "165706.921000", "165706.921000", "165706.921000", "165706.921000", "165706.937000", "165706.937000", "165706.937000", "165706.937000", "165706.937000", "165706.937000", "165706.937000", "165706.953000", "165706.953000", "165706.953000", "165706.953000", "165706.953000", "165706.953000", "165706.953000", "165706.968000", "165706.968000", "165706.968000", "165706.968000", "165806.906000", "165806.906000", "165806.906000", "165806.921000", "165806.921000", "165806.921000", "165806.921000", "165806.921000", "165806.921000", "165806.921000", "165806.937000", "165806.937000", "165806.937000", "165806.937000", "165806.937000", "165806.937000", "165806.937000", "165806.953000", "165806.953000", "165806.953000", "165806.953000", "165806.953000", "165806.953000", "165806.953000", "165806.968000", "165806.968000", "165806.968000", "165906.906000", "165906.906000", "165906.906000", "165906.921000", "165906.921000", "165906.921000", "165906.921000", "165906.921000", "165906.921000", "165906.921000", "165906.937000", "165906.937000", "165906.937000", "165906.937000", "165906.937000", "165906.937000", "165906.937000", "165906.953000", "165906.953000", "165906.953000", "165906.953000", "165906.953000", "165906.953000", "165906.953000", "165906.968000", "165906.968000", "165906.968000", "165906.968000", "170006.906000", "170006.906000", "170006.906000", "170006.921000", "170006.921000", "170006.921000", "170006.921000", "170006.921000", "170006.921000", "170006.921000", "170006.937000", "170006.937000", "170006.937000", "170006.937000", "170006.937000", "170006.937000", "170006.937000", "170006.953000", "170006.953000", "170006.953000", "170006.953000", "170006.953000", "170006.953000", "170006.968000", "170006.968000", "170006.968000", "170006.968000", "170106.906000", "170106.906000", "170106.906000", "170106.921000", "170106.921000", "170106.921000", "170106.921000", "170106.921000", "170106.921000", "170106.921000", "170106.937000", "170106.937000", "170106.937000", "170106.937000", "170106.937000", "170106.937000", "170106.937000", "170106.953000", "170106.953000", "170106.953000", "170106.953000", "170106.953000", "170106.953000", "170106.953000", "170106.968000", "170106.968000", "170106.968000", "170206.906000", "170206.906000", "170206.906000", "170206.921000", "170206.921000", "170206.921000", "170206.921000", "170206.921000", "170206.921000", "170206.921000", "170206.937000", "170206.937000", "170206.937000", "170206.937000", "170206.937000", "170206.937000", "170206.937000", "170206.953000", "170206.953000", "170206.953000", "170206.953000", "170206.953000", "170206.953000", "170206.953000", "170206.968000", "170206.968000", "170206.968000", "170206.968000", "170306.921000", "170306.921000", "170306.921000", "170306.921000", "170306.921000", "170306.921000", "170306.921000", "170306.937000", "170306.937000", "170306.937000", "170306.937000", "170306.937000", "170306.937000", "170306.953000", "170306.953000", "170306.953000", "170306.953000", "170306.953000", "170306.953000", "170306.953000", "170306.968000", "170306.968000", "170306.968000", "170306.968000", "170306.968000", "170306.968000", "170306.968000", "170328.375000", "170328.375000", "170328.375000", "170328.375000", "170328.375000", "170328.390000", "170328.390000", "170328.390000", "170328.390000", "170328.390000", "170328.390000"],
