{
  "AcquisitionMatrixPE": 104,
  "AcquisitionNumber": 1,
  "AcquisitionTime": "15:23:20.705000",
  "BandwidthPerPixelPhaseEncode": 13.935,
  "BaseResolution": 104,
  "CoilString": "C:HEA;HEP",
  "ConversionSoftware": "dcm2niix",
  "ConversionSoftwareVersion": "v1.0.20210317",
  "DerivedVendorReportedEchoSpacing": 0.000690017,
  "DeviceSerialNumber": "35450",
  "DwellTime": 2.5e-06,
  "EchoTime": 0.0348,
  "EffectiveEchoSpacing": 0.000690017,
  "FlipAngle": 55,
  "ImageComments": "Unaliased MB8/PE3 (remote)",
  "ImageOrientationPatientDICOM": [0.999935, -0.0012935, -0.0113533, -8.93079e-09, 0.993572, -0.1132],
  "ImageType": [
    "ORIGINAL",
    "PRIMARY",
    "M",
    "MB",
    "ND",
    "MOSAIC"
],
  "ImagingFrequency": 123.235,
  "InPlanePhaseEncodingDirectionDICOM": "COL",
  "InstitutionAddress": "Univeristy Ave. 197,Newark,North East,US,07102-1814",
  "InstitutionName": "RUBIC",
  "InstitutionalDepartmentName": "Department",
  "MRAcquisitionType": "2D",
  "MagneticFieldStrength": 3,
  "Manufacturer": "Siemens",
  "ManufacturersModelName": "TrioTim",
  "Modality": "MR",
  "MultibandAccelerationFactor": 8,
  "PartialFourier": 0.875,
  "PatientPosition": "HFS",
  "PercentPhaseFOV": 100,
  "PercentSampling": 100,
  "PhaseEncodingDirection": "j-",
  "PhaseEncodingSteps": 91,
  "PhaseResolution": 1,
  "PixelBandwidth": 1923,
  "ProcedureStepDescription": "Cole^Michael",
  "ProtocolName": "cmrr_mbep2d_bold_2mm_MB8_Task_8x",
  "PulseSequenceDetails": "%CustomerSeq%\\cmrr_mbep2d_bold",
  "ReceiveCoilName": "32Ch_Head",
  "ReconMatrixPE": 104,
  "RepetitionTime": 0.785,
  "SAR": 0.15084,
  "ScanOptions": "PFP\\FS",
  "ScanningSequence": "EP",
  "SequenceName": "epfid2d1_104",
  "SequenceVariant": "SK\\SS",
  "SeriesDescription": "cmrr_mbep2d_bold_2mm_MB8_Task_8x",
  "SeriesNumber": 17,
  "ShimSetting": [2089, -434, -7278, 644, -91, -205, -7, -64],
  "SliceThickness": 2,
  "SliceTiming": [0, 0.4375, 0.0875, 0.525, 0.175, 0.6125, 0.2625, 0.7, 0.35, 0, 0.4375, 0.0875, 0.525, 0.175, 0.6125, 0.2625, 0.7, 0.35, 0, 0.4375, 0.0875, 0.525, 0.175, 0.6125, 0.2625, 0.7, 0.35, 0, 0.4375, 0.0875, 0.525, 0.175, 0.6125, 0.2625, 0.7, 0.35, 0, 0.4375, 0.0875, 0.525, 0.175, 0.6125, 0.2625, 0.7, 0.35, 0, 0.4375, 0.0875, 0.525, 0.175, 0.6125, 0.2625, 0.7, 0.35, 0, 0.4375, 0.0875, 0.525, 0.175, 0.6125, 0.2625, 0.7, 0.35, 0, 0.4375, 0.0875, 0.525, 0.175, 0.6125, 0.2625, 0.7, 0.35],
  "SoftwareVersions": "syngo MR B19",
  "SpacingBetweenSlices": 2,
  "StationName": "MRC35450",
  "TaskName": "cpro",
  "TotalReadoutTime": 0.0710717,
  "TxRefAmp": 341.118,
  "dcmmeta_affine": [
    [-1.999869465827942, -1.786158954075745e-08, -0.022853493690490723, 106.18873596191406],
    [0.0025869966484606266, 1.9871444702148438, -0.22638513147830963, -77.83424377441406],
    [-0.02270659990608692, 0.22639989852905273, 1.9870147705078125, -112.12376403808594],
    [0.0, 0.0, 0.0, 1.0]
],
  "dcmmeta_reorient_transform": [
    [0.0, -1.0, 0.0, 103.0],
    [1.0, 0.0, 0.0, 0.0],
    [0.0, 0.0, 1.0, 0.0],
    [0.0, 0.0, 0.0, 1.0]
],
  "dcmmeta_shape": [104, 104, 72, 581],
  "dcmmeta_slice_dim": 2,
  "dcmmeta_version": 0.6,
  "global": {
    "const": {
      "AcquisitionMatrix": [104, 0, 0, 104],
      "AngioFlag": "N",
      "BitsAllocated": 16,
      "BitsStored": 12,
      "Columns": 936,
      "EchoNumbers": 1,
      "EchoTime": 34.8,
      "EchoTrainLength": 1,
      "FlipAngle": 55.0,
      "HighBit": 11,
      "ImageOrientationPatient": [0.9999347125934, -0.0012934983654, -0.0113532996412, -8.930795e-09, 0.99357222722644, -0.1131999526691],
      "ImagePositionPatient": [-938.13441018176, -952.41753781221, 14.823734116093],
      "ImageType": [
        "ORIGINAL",
        "PRIMARY",
        "M",
        "MB",
        "ND",
        "MOSAIC"
],
      "ImagedNucleus": "1H",
      "ImagingFrequency": 123.234521,
      "InPlanePhaseEncodingDirection": "COL",
      "MRAcquisitionType": "2D",
      "MagneticFieldStrength": 3.0,
      "Manufacturer": "SIEMENS",
      "ManufacturerModelName": "TrioTim",
      "Modality": "MR",
      "NumberOfAverages": 1.0,
      "NumberOfPhaseEncodingSteps": 91,
      "PercentPhaseFieldOfView": 100.0,
      "PercentSampling": 100.0,
      "PerformedProcedureStepStartTime": "135217.078000",
      "PhotometricInterpretation": "MONOCHROME2",
      "PixelBandwidth": 1923.0,
      "PixelRepresentation": 0,
      "PixelSpacing": [2.0, 2.0],
      "ProtocolName": "cmrr_mbep2d_bold_2mm_MB8_Task_8x",
      "RepetitionTime": 785.0,
      "Rows": 936,
      "SAR": 0.15083981697198,
      "SamplesPerPixel": 1,
      "ScanOptions": [
        "PFP",
        "FS"
],
      "ScanningSequence": "EP",
      "SequenceName": "epfid2d1_104",
      "SequenceVariant": [
        "SK",
        "SS"
],
      "SeriesDescription": "cmrr_mbep2d_bold_2mm_MB8_Task_8x",
      "SeriesNumber": 17,
      "SeriesTime": "152355.546000",
      "SliceLocation": -103.79891719905,
      "SliceThickness": 2.0,
      "SmallestImagePixelValue": 0,
      "SoftwareVersions": "syngo MR B19",
      "SpacingBetweenSlices": 1.9999999969701,
      "SpecificCharacterSet": "ISO_IR 100",
      "StudyID": "1",
      "StudyTime": "135217.031000",
      "TransmitCoilName": "Body",
      "VariableFlipAngleFlag": "N",
      "WindowCenterWidthExplanation": "Algo1",
      "dBdt": 0.0},
    "slices": {}
  },
  "time": {
    "samples": {
      "AcquisitionNumber": [1, 2, 3, 4, 5, 6, 7, 8, 9, 10, 11, 12, 13, 14, 15, 16, 17, 18, 19, 20, 21, 22, 23, 24, 25, 26, 27, 28, 29, 30, 31, 32, 33, 34, 35, 36, 37, 38, 39, 40, 41, 42, 43, 44, 45, 46, 47, 48, 49, 50, 51, 52, 53, 54, 55, 56, 57, 58, 59, 60, 61, 62, 63, 64, 65, 66, 67, 68, 69, 70, 71, 72, 73, 74, 75, 76, 77, 78, 79, 80, 81, 82, 83, 84, 85, 86, 87, 88, 89, 90, 91, 92, 93, 94, 95, 96, 97, 98, 99, 100, 101, 102, 103, 104, 105, 106, 107, 108, 109, 110, 111, 112, 113, 114, 115, 116, 117, 118, 119, 120, 121, 122, 123, 124, 125, 126, 127, 128, 129, 130, 131, 132, 133, 134, 135, 136, 137, 138, 139, 140, 141, 142, 143, 144, 145, 146, 147, 148, 149, 150, 151, 152, 153, 154, 155, 156, 157, 158, 159, 160, 161, 162, 163, 164, 165, 166, 167, 168, 169, 170, 171, 172, 173, 174, 175, 176, 177, 178, 179, 180, 181, 182, 183, 184, 185, 186, 187, 188, 189, 190, 191, 192, 193, 194, 195, 196, 197, 198, 199, 200, 201, 202, 203, 204, 205, 206, 207, 208, 209, 210, 211, 212, 213, 214, 215, 216, 217, 218, 219, 220, 221, 222, 223, 224, 225, 226, 227, 228, 229, 230, 231, 232, 233, 234, 235, 236, 237, 238, 239, 240, 241, 242, 243, 244, 245, 246, 247, 248, 249, 250, 251, 252, 253, 254, 255, 256, 257, 258, 259, 260, 261, 262, 263, 264, 265, 266, 267, 268, 269, 270, 271, 272, 273, 274, 275, 276, 277, 278, 279, 280, 281, 282, 283, 284, 285, 286, 287, 288, 289, 290, 291, 292, 293, 294, 295, 296, 297, 298, 299, 300, 301, 302, 303, 304, 305, 306, 307, 308, 309, 310, 311, 312, 313, 314, 315, 316, 317, 318, 319, 320, 321, 322, 323, 324, 325, 326, 327, 328, 329, 330, 331, 332, 333, 334, 335, 336, 337, 338, 339, 340, 341, 342, 343, 344, 345, 346, 347, 348, 349, 350, 351, 352, 353, 354, 355, 356, 357, 358, 359, 360, 361, 362, 363, 364, 365, 366, 367, 368, 369, 370, 371, 372, 373, 374, 375, 376, 377, 378, 379, 380, 381, 382, 383, 384, 385, 386, 387, 388, 389, 390, 391, 392, 393, 394, 395, 396, 397, 398, 399, 400, 401, 402, 403, 404, 405, 406, 407, 408, 409, 410, 411, 412, 413, 414, 415, 416, 417, 418, 419, 420, 421, 422, 423, 424, 425, 426, 427, 428, 429, 430, 431, 432, 433, 434, 435, 436, 437, 438, 439, 440, 441, 442, 443, 444, 445, 446, 447, 448, 449, 450, 451, 452, 453, 454, 455, 456, 457, 458, 459, 460, 461, 462, 463, 464, 465, 466, 467, 468, 469, 470, 471, 472, 473, 474, 475, 476, 477, 478, 479, 480, 481, 482, 483, 484, 485, 486, 487, 488, 489, 490, 491, 492, 493, 494, 495, 496, 497, 498, 499, 500, 501, 502, 503, 504, 505, 506, 507, 508, 509, 510, 511, 512, 513, 514, 515, 516, 517, 518, 519, 520, 521, 522, 523, 524, 525, 526, 527, 528, 529, 530, 531, 532, 533, 534, 535, 536, 537, 538, 539, 540, 541, 542, 543, 544, 545, 546, 547, 548, 549, 550, 551, 552, 553, 554, 555, 556, 557, 558, 559, 560, 561, 562, 563, 564, 565, 566, 567, 568, 569, 570, 571, 572, 573, 574, 575, 576, 577, 578, 579, 580, 581],
      "AcquisitionTime": ["152320.705000", "152321.495000", "152322.282500", "152323.070000", "152323.857500", "152324.647500", "152325.435000", "152326.222500", "152327.010000", "152327.800000", "152328.587500", "152329.375000", "152330.162500", "152330.952500", "152331.740000", "152332.527500", "152333.315000", "152334.105000", "152334.892500", "152335.680000", "152336.467500", "152337.257500", "152338.045000", "152338.832500", "152339.622500", "152340.410000", "152341.197500", "152341.985000", "152342.775000", "152343.562500", "152344.350000", "152345.137500", "152345.927500", "152346.715000", "152347.502500", "152348.290000", "152349.080000", "152349.867500", "152350.655000", "152351.442500", "152352.232500", "152353.020000", "152353.807500", "152354.597500", "152355.385000", "152356.172500", "152356.960000", "152357.750000", "152358.537500", "152359.325000", "152400.112500", "152400.902500", "152401.690000", "152402.477500", "152403.265000", "152404.055000", "152404.842500", "152405.630000", "152406.417500", "152407.207500", "152407.995000", "152408.782500", "152409.570000", "152410.360000", "152411.147500", "152411.935000", "152412.725000", "152413.512500", "152414.300000", "152415.087500", "152415.877500", "152416.665000", "152417.452500", "152418.240000", "152419.030000", "152419.817500", "152420.605000", "152421.392500", "152422.182500", "152422.970000", "152423.757500", "152424.545000", "152425.335000", "152426.122500", "152426.910000", "152427.697500", "152428.487500", "152429.275000", "152430.062500", "152430.852500", "152431.640000", "152432.427500", "152433.215000", "152434.005000", "152434.792500", "152435.580000", "152436.367500", "152437.157500", "152437.945000", "152438.732500", "152439.520000", "152440.310000", "152441.097500", "152441.885000", "152442.672500", "152443.462500", "152444.250000", "152445.037500", "152445.825000", "152446.615000", "152447.402500", "152448.190000", "152448.980000", "152449.767500", "152450.555000", "152451.342500", "152452.132500", "152452.920000", "152453.707500", "152454.495000", "152455.285000", "152456.072500", "152456.860000", "152457.647500", "152458.437500", "152459.225000", "152500.012500", "152500.800000", "152501.590000", "152502.377500", "152503.165000", "152503.952500", "152504.742500", "152505.530000", "152506.317500", "152507.107500", "152507.895000", "152508.682500", "152509.470000", "152510.260000", "152511.047500", "152511.835000", "152512.622500", "152513.412500", "152514.200000", "152514.987500", "152515.775000", "152516.565000", "152517.352500", "152518.140000", "152518.927500", "152519.717500", "152520.505000", "152521.292500", "152522.080000", "152522.870000", "152523.657500", "152524.445000", "152525.235000", "152526.022500", "152526.810000", "152527.597500", "152528.387500", "152529.175000", "152529.962500", "152530.750000", "152531.540000", "152532.327500", "152533.115000", "152533.902500", "152534.692500", "152535.480000", "152536.267500", "152537.055000", "152537.845000", "152538.632500", "152539.420000", "152540.207500", "152540.997500", "152541.785000", "152542.572500", "152543.362500", "152544.150000", "152544.937500", "152545.725000", "152546.515000", "152547.302500", "152548.090000", "152548.877500", "152549.667500", "152550.455000", "152551.242500", "152552.030000", "152552.820000", "152553.607500", "152554.395000", "152555.182500", "152555.972500", "152556.760000", "152557.547500", "152558.335000", "152559.125000", "152559.912500", "152600.700000", "152601.490000", "152602.277500", "152603.065000", "152603.852500", "152604.642500", "152605.430000", "152606.217500", "152607.005000", "152607.795000", "152608.582500", "152609.370000", "152610.157500", "152610.947500", "152611.735000", "152612.522500", "152613.310000", "152614.100000", "152614.887500", "152615.675000", "152616.462500", "152617.252500", "152618.040000", "152618.827500", "152619.617500", "152620.405000", "152621.192500", "152621.980000", "152622.770000", "152623.557500", "152624.345000", "152625.132500", "152625.922500", "152626.710000", "152627.497500", "152628.285000", "152629.075000", "152629.862500", "152630.650000", "152631.437500", "152632.227500", "152633.015000", "152633.802500", "152634.590000", "152635.380000", "152636.167500", "152636.955000", "152637.745000", "152638.532500", "152639.320000", "152640.107500", "152640.897500", "152641.685000", "152642.472500", "152643.260000", "152644.050000", "152644.837500", "152645.625000", "152646.412500", "152647.202500", "152647.990000", "152648.777500", "152649.565000", "152650.355000", "152651.142500", "152651.930000", "152652.717500", "152653.507500", "152654.295000", "152655.082500", "152655.872500", "152656.660000", "152657.447500", "152658.235000", "152659.025000", "152659.812500", "152700.600000", "152701.387500", "152702.177500", "152702.965000", "152703.752500", "152704.540000", "152705.330000", "152706.117500", "152706.905000", "152707.692500", "152708.482500", "152709.270000", "152710.057500", "152710.847500", "152711.635000", "152712.422500", "152713.210000", "152714.000000", "152714.787500", "152715.575000", "152716.362500", "152717.152500", "152717.940000", "152718.727500", "152719.515000", "152720.305000", "152721.092500", "152721.880000", "152722.667500", "152723.457500", "152724.245000", "152725.032500", "152725.820000", "152726.610000", "152727.397500", "152728.185000", "152728.975000", "152729.762500", "152730.550000", "152731.337500", "152732.127500", "152732.915000", "152733.702500", "152734.490000", "152735.280000", "152736.067500", "152736.855000", "152737.642500", "152738.432500", "152739.220000", "152740.007500", "152740.795000", "152741.585000", "152742.372500", "152743.160000", "152743.947500", "152744.737500", "152745.525000", "152746.312500", "152747.102500", "152747.890000", "152748.677500", "152749.465000", "152750.255000", "152751.042500", "152751.830000", "152752.617500", "152753.407500", "152754.195000", "152754.982500", "152755.770000", "152756.560000", "152757.347500", "152758.135000", "152758.922500", "152759.712500", "152800.500000", "152801.287500", "152802.075000", "152802.865000", "152803.652500", "152804.440000", "152805.230000", "152806.017500", "152806.805000", "152807.592500", "152808.382500", "152809.170000", "152809.957500", "152810.745000", "152811.535000", "152812.322500", "152813.110000", "152813.897500", "152814.687500", "152815.475000", "152816.262500", "152817.050000", "152817.840000", "152818.627500", "152819.415000", "152820.202500", "152820.992500", "152821.780000", "152822.567500", "152823.357500", "152824.145000", "152824.932500", "152825.720000", "152826.510000", "152827.297500", "152828.085000", "152828.872500", "152829.662500", "152830.450000", "152831.237500", "152832.025000", "152832.815000", "152833.602500", "152834.390000", "152835.177500", "152835.967500", "152836.755000", "152837.542500", "152838.330000", "152839.120000", "152839.907500", "152840.695000", "152841.485000", "152842.272500", "152843.060000", "152843.847500", "152844.637500", "152845.425000", "152846.212500", "152847.000000", "152847.790000", "152848.577500", "152849.365000", "152850.152500", "152850.942500", "152851.730000", "152852.517500", "152853.305000", "152854.095000", "152854.882500", "152855.670000", "152856.457500", "152857.247500", "152858.035000", "152858.822500", "152859.612500", "152900.400000", "152901.187500", "152901.975000", "152902.765000", "152903.552500", "152904.340000", "152905.127500", "152905.917500", "152906.705000", "152907.492500", "152908.280000", "152909.070000", "152909.857500", "152910.645000", "152911.432500", "152912.222500", "152913.010000", "152913.797500", "152914.585000", "152915.375000", "152916.162500", "152916.950000", "152917.740000", "152918.527500", "152919.315000", "152920.102500", "152920.892500", "152921.680000", "152922.467500", "152923.255000", "152924.045000", "152924.832500", "152925.620000", "152926.407500", "152927.197500", "152927.985000", "152928.772500", "152929.560000", "152930.350000", "152931.137500", "152931.925000", "152932.712500", "152933.502500", "152934.290000", "152935.077500", "152935.867500", "152936.655000", "152937.442500", "152938.230000", "152939.020000", "152939.807500", "152940.595000", "152941.382500", "152942.172500", "152942.960000", "152943.747500", "152944.535000", "152945.325000", "152946.112500", "152946.900000", "152947.687500", "152948.477500", "152949.265000", "152950.052500", "152950.840000", "152951.630000", "152952.417500", "152953.205000", "152953.995000", "152954.782500", "152955.570000", "152956.357500", "152957.147500", "152957.935000", "152958.722500", "152959.510000", "153000.300000", "153001.087500", "153001.875000", "153002.662500", "153003.452500", "153004.240000", "153005.027500", "153005.815000", "153006.605000", "153007.392500", "153008.180000", "153008.967500", "153009.757500", "153010.545000", "153011.332500", "153012.122500", "153012.910000", "153013.697500", "153014.485000", "153015.275000", "153016.062500", "153016.850000", "153017.637500", "153018.427500", "153019.215000", "153020.002500", "153020.790000", "153021.580000", "153022.367500", "153023.155000", "153023.942500", "153024.732500", "153025.520000", "153026.307500", "153027.097500", "153027.885000", "153028.672500", "153029.460000", "153030.250000", "153031.037500", "153031.825000", "153032.612500", "153033.402500", "153034.190000", "153034.977500", "153035.765000", "153036.555000", "153037.342500", "153038.130000", "153038.917500", "153039.707500", "153040.495000", "153041.282500", "153042.070000", "153042.860000", "153043.647500", "153044.435000", "153045.225000", "153046.012500", "153046.800000", "153047.587500", "153048.377500", "153049.165000", "153049.952500", "153050.740000", "153051.530000", "153052.317500", "153053.105000", "153053.892500", "153054.682500", "153055.470000", "153056.257500", "153057.045000", "153057.835000"],
      "ContentTime": ["152355.546000", "152355.546000", "152355.546000", "152355.546000", "152355.546000", "152355.546000", "152355.562000", "152355.562000", "152355.562000", "152355.562000", "152355.562000", "152355.562000", "152355.562000", "152355.578000", "152355.578000", "152355.578000", "152355.578000", "152355.578000", "152355.578000", "152355.578000", "152355.578000", "152355.593000", "152355.593000", "152355.593000", "152355.593000", "152355.593000", "152355.593000", "152355.593000", "152355.609000", "152355.609000", "152355.609000", "152355.609000", "152355.609000", "152355.609000", "152355.609000", "152355.609000", "152355.625000", "152355.625000", "152355.625000", "152355.625000", "152355.625000", "152355.625000", "152415.515000", "152415.515000", "152415.515000", "152415.515000", "152415.515000", "152415.531000", "152415.531000", "152415.531000", "152415.531000", "152415.531000", "152415.531000", "152415.531000", "152415.531000", "152415.546000", "152415.546000", "152415.546000", "152415.546000", "152415.546000", "152415.546000", "152415.562000", "152415.562000", "152415.562000", "152415.562000", "152415.562000", "152415.562000", "152435.515000", "152435.515000", "152435.515000", "152435.515000", "152435.515000", "152435.515000", "152435.531000", "152435.531000", "152435.531000", "152435.531000", "152435.531000", "152435.531000", "152435.531000", "152435.546000", "152435.546000", "152435.546000", "152435.546000", "152435.546000", "152435.562000", "152435.562000", "152435.562000", "152435.562000", "152435.562000", "152435.562000", "152435.562000", "152435.562000", "152455.515000", "152455.515000", "152455.515000", "152455.515000", "152455.515000", "152455.531000", "152455.531000", "152455.531000", "152455.531000", "152455.531000", "152455.531000", "152455.531000", "152455.531000", "152455.546000", "152455.546000", "152455.546000", "152455.546000", "152455.546000", "152455.546000", "152455.546000", "152455.562000", "152455.562000", "152455.562000", "152455.562000", "152455.562000", "152515.515000", "152515.515000", "152515.515000", "152515.515000", "152515.515000", "152515.531000", "152515.531000", "152515.531000", "152515.531000", "152515.531000", "152515.531000", "152515.531000", "152515.531000", "152515.546000", "152515.546000", "152515.546000", "152515.546000", "152515.546000", "152515.546000", "152515.546000", "152515.562000", "152515.562000", "152515.562000", "152515.562000", "152515.562000", "152515.562000", "152535.515000", "152535.515000", "152535.515000", "152535.515000", "152535.515000", "152535.531000", "152535.531000", "152535.531000", "152535.531000", "152535.531000", "152535.531000", "152535.531000", "152535.531000", "152535.546000", "152535.546000", "152535.546000", "152535.546000", "152535.546000", "152535.546000", "152535.546000", "152535.562000", "152535.562000", "152535.562000", "152535.562000", "152535.562000", "152555.515000", "152555.515000", "152555.515000", "152555.515000", "152555.515000", "152555.531000", "152555.531000", "152555.531000", "152555.531000", "152555.531000", "152555.531000", "152555.531000", "152555.531000", "152555.546000", "152555.546000", "152555.546000", "152555.546000", "152555.546000", "152555.546000", "152555.546000", "152555.562000", "152555.562000", "152555.562000", "152555.562000", "152555.562000", "152555.562000", "152615.515000", "152615.515000", "152615.515000", "152615.515000", "152615.515000", "152615.531000", "152615.531000", "152615.531000", "152615.531000", "152615.531000", "152615.531000", "152615.531000", "152615.531000", "152615.546000", "152615.546000", "152615.546000", "152615.546000", "152615.546000", "152615.546000", "152615.546000", "152615.562000", "152615.562000", "152615.562000", "152615.562000", "152615.562000", "152635.515000", "152635.515000", "152635.515000", "152635.515000", "152635.515000", "152635.531000", "152635.531000", "152635.531000", "152635.531000", "152635.531000", "152635.531000", "152635.531000", "152635.531000", "152635.546000", "152635.546000", "152635.546000", "152635.546000", "152635.546000", "152635.546000", "152635.546000", "152635.562000", "152635.562000", "152635.562000", "152635.562000", "152635.562000", "152635.562000", "152655.515000", "152655.515000", "152655.515000", "152655.515000", "152655.515000", "152655.531000", "152655.531000", "152655.531000", "152655.531000", "152655.531000", "152655.531000", "152655.546000", "152655.546000", "152655.546000", "152655.546000", "152655.546000", "152655.546000", "152655.546000", "152655.562000", "152655.562000", "152655.562000", "152655.562000", "152655.562000", "152655.562000", "152655.562000", "152715.515000", "152715.515000", "152715.515000", "152715.515000", "152715.515000", "152715.531000", "152715.531000", "152715.531000", "152715.531000", "152715.531000", "152715.531000", "152715.531000", "152715.531000", "152715.546000", "152715.546000", "152715.546000", "152715.546000", "152715.546000", "152715.546000", "152715.546000", "152715.562000", "152715.562000", "152715.562000", "152715.562000", "152715.562000", "152715.578000", "152735.515000", "152735.515000", "152735.515000", "152735.515000", "152735.515000", "152735.531000", "152735.531000", "152735.531000", "152735.531000", "152735.531000", "152735.531000", "152735.531000", "152735.531000", "152735.546000", "152735.546000", "152735.546000", "152735.546000", "152735.546000", "152735.546000", "152735.546000", "152735.562000", "152735.562000", "152735.562000", "152735.562000", "152735.562000", "152755.515000", "152755.515000", "152755.515000", "152755.515000", "152755.515000", "152755.531000", "152755.531000", "152755.531000", "152755.531000", "152755.531000", "152755.531000", "152755.531000", "152755.531000", "152755.546000", "152755.546000", "152755.546000", "152755.546000", "152755.546000", "152755.546000", "152755.546000", "152755.562000", "152755.562000", "152755.562000", "152755.562000", "152755.562000", "152755.562000", "152815.515000", "152815.515000", "152815.515000", "152815.515000", "152815.515000", "152815.531000", "152815.531000", "152815.531000", "152815.531000", "152815.531000", "152815.531000", "152815.531000", "152815.546000", "152815.546000", "152815.546000", "152815.546000", "152815.546000", "152815.546000", "152815.546000", "152815.562000", "152815.562000", "152815.562000", "152815.562000", "152815.562000", "152815.562000", "152835.515000", "152835.515000", "152835.515000", "152835.515000", "152835.515000", "152835.531000", "152835.531000", "152835.531000", "152835.531000", "152835.531000", "152835.531000", "152835.531000", "152835.531000", "152835.546000", "152835.546000", "152835.546000", "152835.546000", "152835.546000", "152835.546000", "152835.546000", "152835.562000", "152835.562000", "152835.562000", "152835.562000", "152835.562000", "152835.562000", "152855.515000", "152855.515000", "152855.515000", "152855.515000", "152855.515000", "152855.531000", "152855.531000", "152855.531000", "152855.531000", "152855.531000", "152855.531000", "152855.531000", "152855.531000", "152855.546000", "152855.546000", "152855.546000", "152855.546000", "152855.546000", "152855.546000", "152855.546000", "152855.562000", "152855.562000", "152855.562000", "152855.562000", "152855.562000", "152915.515000", "152915.515000", "152915.515000", "152915.531000", "152915.531000", "152915.531000", "152915.531000", "152915.531000", "152915.531000", "152915.531000", "152915.546000", "152915.546000", "152915.546000", "152915.546000", "152915.546000", "152915.546000", "152915.546000", "152915.546000", "152915.562000", "152915.562000", "152915.562000", "152915.562000", "152915.562000", "152915.562000", "152915.562000", "152915.578000", "152935.515000", "152935.515000", "152935.515000", "152935.515000", "152935.515000", "152935.531000", "152935.531000", "152935.531000", "152935.531000", "152935.531000", "152935.531000", "152935.531000", "152935.531000", "152935.546000", "152935.546000", "152935.546000", "152935.546000", "152935.546000", "152935.546000", "152935.546000", "152935.546000", "152935.562000", "152935.562000", "152935.562000", "152935.562000", "152955.515000", "152955.515000", "152955.515000", "152955.531000", "152955.546000", "152955.546000", "152955.546000", "152955.546000", "152955.546000", "152955.546000", "152955.562000", "152955.562000", "152955.562000", "152955.562000", "152955.562000", "152955.562000", "152955.562000", "152955.578000", "152955.578000", "152955.578000", "152955.578000", "152955.578000", "152955.578000", "152955.578000", "152955.593000", "152955.593000", "153015.515000", "153015.515000", "153015.515000", "153015.515000", "153015.515000", "153015.531000", "153015.531000", "153015.531000", "153015.531000", "153015.531000", "153015.531000", "153015.531000", "153015.531000", "153015.546000", "153015.546000", "153015.546000", "153015.546000", "153015.546000", "153015.546000", "153015.546000", "153015.562000", "153015.562000", "153015.562000", "153015.562000", "153015.562000", "153035.515000", "153035.515000", "153035.515000", "153035.515000", "153035.515000", "153035.531000", "153035.531000", "153035.531000", "153035.531000", "153035.531000", "153035.531000", "153035.531000", "153035.546000", "153035.546000", "153035.546000", "153035.546000", "153035.562000", "153035.562000", "153035.562000", "153035.562000", "153035.562000", "153035.578000", "153035.578000", "153035.578000", "153035.578000", "153055.515000", "153055.515000", "153055.515000", "153055.515000", "153055.515000", "153055.531000", "153055.531000", "153055.531000", "153055.531000", "153055.531000", "153055.531000", "153055.531000", "153055.531000", "153055.546000", "153055.546000", "153055.546000", "153055.546000", "153055.546000", "153055.546000", "153055.546000", "153055.562000", "153055.562000", "153055.562000", "153055.562000", "153055.562000", "153055.562000", "153058.375000", "153058.375000", "153058.390000", "153058.390000"],
