{
  "AcquisitionMatrixPE": 104,
  "AcquisitionNumber": 1,
  "AcquisitionTime": "15:14:20.710000",
  "BandwidthPerPixelPhaseEncode": 13.935,
  "BaseResolution": 104,
  "CoilString": "C:HEA;HEP",
  "ConversionSoftware": "dcm2niix",
  "ConversionSoftwareVersion": "v1.0.20210317",
  "DerivedVendorReportedEchoSpacing": 0.000690017,
  "DeviceSerialNumber": "35450",
  "DwellTime": 2.5e-06,
  "EchoTime": 0.0348,
  "EffectiveEchoSpacing": 0.000690017,
  "FlipAngle": 55,
  "ImageComments": "Unaliased MB8/PE3 (remote)",
  "ImageOrientationPatientDICOM": [0.999935, -0.0012935, -0.0113533, -8.93079e-09, 0.993572, -0.1132],
  "ImageType": [
    "ORIGINAL",
    "PRIMARY",
    "M",
    "MB",
    "ND",
    "MOSAIC"
],
  "ImagingFrequency": 123.235,
  "InPlanePhaseEncodingDirectionDICOM": "COL",
  "InstitutionAddress": "Univeristy Ave. 197,Newark,North East,US,07102-1814",
  "InstitutionName": "RUBIC",
  "InstitutionalDepartmentName": "Department",
  "MRAcquisitionType": "2D",
  "MagneticFieldStrength": 3,
  "Manufacturer": "Siemens",
  "ManufacturersModelName": "TrioTim",
  "Modality": "MR",
  "MultibandAccelerationFactor": 8,
  "PartialFourier": 0.875,
  "PatientPosition": "HFS",
  "PercentPhaseFOV": 100,
  "PercentSampling": 100,
  "PhaseEncodingDirection": "j-",
  "PhaseEncodingSteps": 91,
  "PhaseResolution": 1,
  "PixelBandwidth": 1923,
  "ProcedureStepDescription": "Cole^Michael",
  "ProtocolName": "cmrr_mbep2d_bold_2mm_MB8_Task_8x",
  "PulseSequenceDetails": "%CustomerSeq%\\cmrr_mbep2d_bold",
  "ReceiveCoilName": "32Ch_Head",
  "ReconMatrixPE": 104,
  "RepetitionTime": 0.785,
  "SAR": 0.15084,
  "ScanOptions": "PFP\\FS",
  "ScanningSequence": "EP",
  "SequenceName": "epfid2d1_104",
  "SequenceVariant": "SK\\SS",
  "SeriesDescription": "cmrr_mbep2d_bold_2mm_MB8_Task_8x",
  "SeriesNumber": 15,
  "ShimSetting": [2089, -434, -7278, 644, -91, -205, -7, -64],
  "SliceThickness": 2,
  "SliceTiming": [0, 0.4375, 0.0875, 0.525, 0.175, 0.6125, 0.2625, 0.7, 0.35, 0, 0.4375, 0.0875, 0.525, 0.175, 0.6125, 0.2625, 0.7, 0.35, 0, 0.4375, 0.0875, 0.525, 0.175, 0.6125, 0.2625, 0.7, 0.35, 0, 0.4375, 0.0875, 0.525, 0.175, 0.6125, 0.2625, 0.7, 0.35, 0, 0.4375, 0.0875, 0.525, 0.175, 0.6125, 0.2625, 0.7, 0.35, 0, 0.4375, 0.0875, 0.525, 0.175, 0.6125, 0.2625, 0.7, 0.35, 0, 0.4375, 0.0875, 0.525, 0.175, 0.6125, 0.2625, 0.7, 0.35, 0, 0.4375, 0.0875, 0.525, 0.175, 0.6125, 0.2625, 0.7, 0.35],
  "SoftwareVersions": "syngo MR B19",
  "SpacingBetweenSlices": 2,
  "StationName": "MRC35450",
  "TaskName": "cpro",
  "TotalReadoutTime": 0.0710717,
  "TxRefAmp": 341.118,
  "dcmmeta_affine": [
    [-1.999869465827942, -1.786158954075745e-08, -0.022853493690490723, 106.18873596191406],
    [0.0025869966484606266, 1.9871444702148438, -0.22638513147830963, -77.83424377441406],
    [-0.02270659990608692, 0.22639989852905273, 1.9870147705078125, -112.12376403808594],
    [0.0, 0.0, 0.0, 1.0]
],
  "dcmmeta_reorient_transform": [
    [0.0, -1.0, 0.0, 103.0],
    [1.0, 0.0, 0.0, 0.0],
    [0.0, 0.0, 1.0, 0.0],
    [0.0, 0.0, 0.0, 1.0]
],
  "dcmmeta_shape": [104, 104, 72, 581],
  "dcmmeta_slice_dim": 2,
  "dcmmeta_version": 0.6,
  "global": {
    "const": {
      "AcquisitionMatrix": [104, 0, 0, 104],
      "AngioFlag": "N",
      "BitsAllocated": 16,
      "BitsStored": 12,
      "Columns": 936,
      "EchoNumbers": 1,
      "EchoTime": 34.8,
      "EchoTrainLength": 1,
      "FlipAngle": 55.0,
      "HighBit": 11,
      "ImageOrientationPatient": [0.9999347125934, -0.0012934983654, -0.0113532996412, -8.930795e-09, 0.99357222722644, -0.1131999526691],
      "ImagePositionPatient": [-938.13441018176, -952.41753781221, 14.823734116093],
      "ImageType": [
        "ORIGINAL",
        "PRIMARY",
        "M",
        "MB",
        "ND",
        "MOSAIC"
],
      "ImagedNucleus": "1H",
      "ImagingFrequency": 123.234521,
      "InPlanePhaseEncodingDirection": "COL",
      "MRAcquisitionType": "2D",
      "MagneticFieldStrength": 3.0,
      "Manufacturer": "SIEMENS",
      "ManufacturerModelName": "TrioTim",
      "Modality": "MR",
      "NumberOfAverages": 1.0,
      "NumberOfPhaseEncodingSteps": 91,
      "PercentPhaseFieldOfView": 100.0,
      "PercentSampling": 100.0,
      "PerformedProcedureStepStartTime": "135217.078000",
      "PhotometricInterpretation": "MONOCHROME2",
      "PixelBandwidth": 1923.0,
      "PixelRepresentation": 0,
      "PixelSpacing": [2.0, 2.0],
      "ProtocolName": "cmrr_mbep2d_bold_2mm_MB8_Task_8x",
      "RepetitionTime": 785.0,
      "Rows": 936,
      "SAR": 0.15083981697198,
      "SamplesPerPixel": 1,
      "ScanOptions": [
        "PFP",
        "FS"
],
      "ScanningSequence": "EP",
      "SequenceName": "epfid2d1_104",
      "SequenceVariant": [
        "SK",
        "SS"
],
      "SeriesDescription": "cmrr_mbep2d_bold_2mm_MB8_Task_8x",
      "SeriesNumber": 15,
      "SeriesTime": "151454.765000",
      "SliceLocation": -103.79891719905,
      "SliceThickness": 2.0,
      "SmallestImagePixelValue": 0,
      "SoftwareVersions": "syngo MR B19",
      "SpacingBetweenSlices": 1.9999999969701,
      "SpecificCharacterSet": "ISO_IR 100",
      "StudyID": "1",
      "StudyTime": "135217.031000",
      "TransmitCoilName": "Body",
      "VariableFlipAngleFlag": "N",
      "WindowCenterWidthExplanation": "Algo1",
      "dBdt": 0.0},
    "slices": {}
  },
  "time": {
    "samples": {
      "AcquisitionNumber": [1, 2, 3, 4, 5, 6, 7, 8, 9, 10, 11, 12, 13, 14, 15, 16, 17, 18, 19, 20, 21, 22, 23, 24, 25, 26, 27, 28, 29, 30, 31, 32, 33, 34, 35, 36, 37, 38, 39, 40, 41, 42, 43, 44, 45, 46, 47, 48, 49, 50, 51, 52, 53, 54, 55, 56, 57, 58, 59, 60, 61, 62, 63, 64, 65, 66, 67, 68, 69, 70, 71, 72, 73, 74, 75, 76, 77, 78, 79, 80, 81, 82, 83, 84, 85, 86, 87, 88, 89, 90, 91, 92, 93, 94, 95, 96, 97, 98, 99, 100, 101, 102, 103, 104, 105, 106, 107, 108, 109, 110, 111, 112, 113, 114, 115, 116, 117, 118, 119, 120, 121, 122, 123, 124, 125, 126, 127, 128, 129, 130, 131, 132, 133, 134, 135, 136, 137, 138, 139, 140, 141, 142, 143, 144, 145, 146, 147, 148, 149, 150, 151, 152, 153, 154, 155, 156, 157, 158, 159, 160, 161, 162, 163, 164, 165, 166, 167, 168, 169, 170, 171, 172, 173, 174, 175, 176, 177, 178, 179, 180, 181, 182, 183, 184, 185, 186, 187, 188, 189, 190, 191, 192, 193, 194, 195, 196, 197, 198, 199, 200, 201, 202, 203, 204, 205, 206, 207, 208, 209, 210, 211, 212, 213, 214, 215, 216, 217, 218, 219, 220, 221, 222, 223, 224, 225, 226, 227, 228, 229, 230, 231, 232, 233, 234, 235, 236, 237, 238, 239, 240, 241, 242, 243, 244, 245, 246, 247, 248, 249, 250, 251, 252, 253, 254, 255, 256, 257, 258, 259, 260, 261, 262, 263, 264, 265, 266, 267, 268, 269, 270, 271, 272, 273, 274, 275, 276, 277, 278, 279, 280, 281, 282, 283, 284, 285, 286, 287, 288, 289, 290, 291, 292, 293, 294, 295, 296, 297, 298, 299, 300, 301, 302, 303, 304, 305, 306, 307, 308, 309, 310, 311, 312, 313, 314, 315, 316, 317, 318, 319, 320, 321, 322, 323, 324, 325, 326, 327, 328, 329, 330, 331, 332, 333, 334, 335, 336, 337, 338, 339, 340, 341, 342, 343, 344, 345, 346, 347, 348, 349, 350, 351, 352, 353, 354, 355, 356, 357, 358, 359, 360, 361, 362, 363, 364, 365, 366, 367, 368, 369, 370, 371, 372, 373, 374, 375, 376, 377, 378, 379, 380, 381, 382, 383, 384, 385, 386, 387, 388, 389, 390, 391, 392, 393, 394, 395, 396, 397, 398, 399, 400, 401, 402, 403, 404, 405, 406, 407, 408, 409, 410, 411, 412, 413, 414, 415, 416, 417, 418, 419, 420, 421, 422, 423, 424, 425, 426, 427, 428, 429, 430, 431, 432, 433, 434, 435, 436, 437, 438, 439, 440, 441, 442, 443, 444, 445, 446, 447, 448, 449, 450, 451, 452, 453, 454, 455, 456, 457, 458, 459, 460, 461, 462, 463, 464, 465, 466, 467, 468, 469, 470, 471, 472, 473, 474, 475, 476, 477, 478, 479, 480, 481, 482, 483, 484, 485, 486, 487, 488, 489, 490, 491, 492, 493, 494, 495, 496, 497, 498, 499, 500, 501, 502, 503, 504, 505, 506, 507, 508, 509, 510, 511, 512, 513, 514, 515, 516, 517, 518, 519, 520, 521, 522, 523, 524, 525, 526, 527, 528, 529, 530, 531, 532, 533, 534, 535, 536, 537, 538, 539, 540, 541, 542, 543, 544, 545, 546, 547, 548, 549, 550, 551, 552, 553, 554, 555, 556, 557, 558, 559, 560, 561, 562, 563, 564, 565, 566, 567, 568, 569, 570, 571, 572, 573, 574, 575, 576, 577, 578, 579, 580, 581],
      "AcquisitionTime": ["151420.710000", "151421.497500", "151422.285000", "151423.075000", "151423.862500", "151424.650000", "151425.437500", "151426.227500", "151427.015000", "151427.802500", "151428.592500", "151429.380000", "151430.167500", "151430.955000", "151431.745000", "151432.532500", "151433.320000", "151434.107500", "151434.897500", "151435.685000", "151436.472500", "151437.260000", "151438.050000", "151438.837500", "151439.625000", "151440.412500", "151441.202500", "151441.990000", "151442.777500", "151443.565000", "151444.355000", "151445.142500", "151445.930000", "151446.720000", "151447.507500", "151448.295000", "151449.082500", "151449.872500", "151450.660000", "151451.447500", "151452.235000", "151453.025000", "151453.812500", "151454.600000", "151455.387500", "151456.177500", "151456.965000", "151457.752500", "151458.540000", "151459.330000", "151500.117500", "151500.905000", "151501.692500", "151502.482500", "151503.270000", "151504.057500", "151504.847500", "151505.635000", "151506.422500", "151507.210000", "151508.000000", "151508.787500", "151509.575000", "151510.362500", "151511.152500", "151511.940000", "151512.727500", "151513.515000", "151514.305000", "151515.092500", "151515.880000", "151516.667500", "151517.457500", "151518.245000", "151519.032500", "151519.820000", "151520.610000", "151521.397500", "151522.185000", "151522.975000", "151523.762500", "151524.550000", "151525.337500", "151526.127500", "151526.915000", "151527.702500", "151528.490000", "151529.280000", "151530.067500", "151530.855000", "151531.642500", "151532.432500", "151533.220000", "151534.007500", "151534.795000", "151535.585000", "151536.372500", "151537.160000", "151537.947500", "151538.737500", "151539.525000", "151540.312500", "151541.102500", "151541.890000", "151542.677500", "151543.465000", "151544.255000", "151545.042500", "151545.830000", "151546.617500", "151547.407500", "151548.195000", "151548.982500", "151549.770000", "151550.560000", "151551.347500", "151552.135000", "151552.922500", "151553.712500", "151554.500000", "151555.287500", "151556.075000", "151556.865000", "151557.652500", "151558.440000", "151559.230000", "151600.017500", "151600.805000", "151601.592500", "151602.382500", "151603.170000", "151603.957500", "151604.745000", "151605.535000", "151606.322500", "151607.110000", "151607.897500", "151608.687500", "151609.475000", "151610.262500", "151611.050000", "151611.840000", "151612.627500", "151613.415000", "151614.202500", "151614.992500", "151615.780000", "151616.567500", "151617.357500", "151618.145000", "151618.932500", "151619.720000", "151620.510000", "151621.297500", "151622.085000", "151622.872500", "151623.662500", "151624.450000", "151625.237500", "151626.025000", "151626.815000", "151627.602500", "151628.390000", "151629.177500", "151629.967500", "151630.755000", "151631.542500", "151632.332500", "151633.120000", "151633.907500", "151634.695000", "151635.485000", "151636.272500", "151637.060000", "151637.847500", "151638.637500", "151639.425000", "151640.212500", "151641.000000", "151641.790000", "151642.577500", "151643.365000", "151644.152500", "151644.942500", "151645.730000", "151646.517500", "151647.305000", "151648.095000", "151648.882500", "151649.670000", "151650.460000", "151651.247500", "151652.035000", "151652.822500", "151653.612500", "151654.400000", "151655.187500", "151655.975000", "151656.765000", "151657.552500", "151658.340000", "151659.127500", "151659.917500", "151700.705000", "151701.492500", "151702.280000", "151703.070000", "151703.857500", "151704.645000", "151705.432500", "151706.222500", "151707.010000", "151707.797500", "151708.587500", "151709.375000", "151710.162500", "151710.950000", "151711.740000", "151712.527500", "151713.315000", "151714.102500", "151714.892500", "151715.680000", "151716.467500", "151717.255000", "151718.045000", "151718.832500", "151719.620000", "151720.407500", "151721.197500", "151721.985000", "151722.772500", "151723.560000", "151724.350000", "151725.137500", "151725.925000", "151726.715000", "151727.502500", "151728.290000", "151729.077500", "151729.867500", "151730.655000", "151731.442500", "151732.230000", "151733.020000", "151733.807500", "151734.595000", "151735.382500", "151736.172500", "151736.960000", "151737.747500", "151738.535000", "151739.325000", "151740.112500", "151740.900000", "151741.687500", "151742.477500", "151743.265000", "151744.052500", "151744.842500", "151745.630000", "151746.417500", "151747.205000", "151747.995000", "151748.782500", "151749.570000", "151750.357500", "151751.147500", "151751.935000", "151752.722500", "151753.510000", "151754.300000", "151755.087500", "151755.875000", "151756.662500", "151757.452500", "151758.240000", "151759.027500", "151759.815000", "151800.605000", "151801.392500", "151802.180000", "151802.970000", "151803.757500", "151804.545000", "151805.332500", "151806.122500", "151806.910000", "151807.697500", "151808.485000", "151809.275000", "151810.062500", "151810.850000", "151811.637500", "151812.427500", "151813.215000", "151814.002500", "151814.790000", "151815.580000", "151816.367500", "151817.155000", "151817.942500", "151818.732500", "151819.520000", "151820.307500", "151821.097500", "151821.885000", "151822.672500", "151823.460000", "151824.250000", "151825.037500", "151825.825000", "151826.612500", "151827.402500", "151828.190000", "151828.977500", "151829.765000", "151830.555000", "151831.342500", "151832.130000", "151832.917500", "151833.707500", "151834.495000", "151835.282500", "151836.070000", "151836.860000", "151837.647500", "151838.435000", "151839.225000", "151840.012500", "151840.800000", "151841.587500", "151842.377500", "151843.165000", "151843.952500", "151844.740000", "151845.530000", "151846.317500", "151847.105000", "151847.892500", "151848.682500", "151849.470000", "151850.257500", "151851.045000", "151851.835000", "151852.622500", "151853.410000", "151854.197500", "151854.987500", "151855.775000", "151856.562500", "151857.352500", "151858.140000", "151858.927500", "151859.715000", "151900.505000", "151901.292500", "151902.080000", "151902.867500", "151903.657500", "151904.445000", "151905.232500", "151906.020000", "151906.810000", "151907.597500", "151908.385000", "151909.172500", "151909.962500", "151910.750000", "151911.537500", "151912.325000", "151913.115000", "151913.902500", "151914.690000", "151915.480000", "151916.267500", "151917.055000", "151917.842500", "151918.632500", "151919.420000", "151920.207500", "151920.995000", "151921.785000", "151922.572500", "151923.360000", "151924.147500", "151924.937500", "151925.725000", "151926.512500", "151927.300000", "151928.090000", "151928.877500", "151929.665000", "151930.452500", "151931.242500", "151932.030000", "151932.817500", "151933.607500", "151934.395000", "151935.182500", "151935.970000", "151936.760000", "151937.547500", "151938.335000", "151939.122500", "151939.912500", "151940.700000", "151941.487500", "151942.275000", "151943.065000", "151943.852500", "151944.640000", "151945.427500", "151946.217500", "151947.005000", "151947.792500", "151948.582500", "151949.370000", "151950.157500", "151950.945000", "151951.735000", "151952.522500", "151953.310000", "151954.097500", "151954.887500", "151955.675000", "151956.462500", "151957.250000", "151958.040000", "151958.827500", "151959.615000", "152000.402500", "152001.192500", "152001.980000", "152002.767500", "152003.555000", "152004.345000", "152005.132500", "152005.920000", "152006.710000", "152007.497500", "152008.285000", "152009.072500", "152009.862500", "152010.650000", "152011.437500", "152012.225000", "152013.015000", "152013.802500", "152014.590000", "152015.377500", "152016.167500", "152016.955000", "152017.742500", "152018.530000", "152019.320000", "152020.107500", "152020.895000", "152021.682500", "152022.472500", "152023.260000", "152024.047500", "152024.837500", "152025.625000", "152026.412500", "152027.200000", "152027.990000", "152028.777500", "152029.565000", "152030.352500", "152031.142500", "152031.930000", "152032.717500", "152033.505000", "152034.295000", "152035.082500", "152035.870000", "152036.657500", "152037.447500", "152038.235000", "152039.022500", "152039.810000", "152040.600000", "152041.387500", "152042.175000", "152042.965000", "152043.752500", "152044.540000", "152045.327500", "152046.117500", "152046.905000", "152047.692500", "152048.480000", "152049.270000", "152050.057500", "152050.845000", "152051.632500", "152052.422500", "152053.210000", "152053.997500", "152054.785000", "152055.575000", "152056.362500", "152057.150000", "152057.937500", "152058.727500", "152059.515000", "152100.302500", "152101.092500", "152101.880000", "152102.667500", "152103.455000", "152104.245000", "152105.032500", "152105.820000", "152106.607500", "152107.397500", "152108.185000", "152108.972500", "152109.760000", "152110.550000", "152111.337500", "152112.125000", "152112.912500", "152113.702500", "152114.490000", "152115.277500", "152116.065000", "152116.855000", "152117.642500", "152118.430000", "152119.220000", "152120.007500", "152120.795000", "152121.582500", "152122.372500", "152123.160000", "152123.947500", "152124.735000", "152125.525000", "152126.312500", "152127.100000", "152127.887500", "152128.677500", "152129.465000", "152130.252500", "152131.040000", "152131.830000", "152132.617500", "152133.405000", "152134.192500", "152134.982500", "152135.770000", "152136.557500", "152137.347500", "152138.135000", "152138.922500", "152139.710000", "152140.500000", "152141.287500", "152142.075000", "152142.862500", "152143.652500", "152144.440000", "152145.227500", "152146.015000", "152146.805000", "152147.592500", "152148.380000", "152149.167500", "152149.957500", "152150.745000", "152151.532500", "152152.320000", "152153.110000", "152153.897500", "152154.685000", "152155.475000", "152156.262500", "152157.050000", "152157.837500"],
      "ContentTime": ["151454.781000", "151454.781000", "151454.781000", "151454.781000", "151454.781000", "151454.781000", "151454.781000", "151454.796000", "151454.796000", "151454.796000", "151454.796000", "151454.796000", "151454.796000", "151454.796000", "151454.796000", "151454.812000", "151454.812000", "151454.812000", "151454.812000", "151454.812000", "151454.812000", "151454.812000", "151454.828000", "151454.828000", "151454.828000", "151454.828000", "151454.828000", "151454.828000", "151454.828000", "151454.828000", "151454.843000", "151454.843000", "151454.843000", "151454.843000", "151454.843000", "151454.843000", "151454.843000", "151454.859000", "151454.859000", "151454.859000", "151514.750000", "151514.750000", "151514.750000", "151514.750000", "151514.750000", "151514.765000", "151514.765000", "151514.765000", "151514.765000", "151514.765000", "151514.765000", "151514.765000", "151514.765000", "151514.781000", "151514.781000", "151514.781000", "151514.781000", "151514.781000", "151514.781000", "151514.781000", "151514.781000", "151514.796000", "151514.796000", "151514.796000", "151514.796000", "151514.796000", "151534.750000", "151534.750000", "151534.750000", "151534.750000", "151534.750000", "151534.750000", "151534.765000", "151534.765000", "151534.765000", "151534.765000", "151534.765000", "151534.781000", "151534.781000", "151534.781000", "151534.781000", "151534.781000", "151534.781000", "151534.796000", "151534.796000", "151534.796000", "151534.796000", "151534.796000", "151534.796000", "151534.796000", "151534.796000", "151554.750000", "151554.750000", "151554.750000", "151554.750000", "151554.750000", "151554.750000", "151554.765000", "151554.765000", "151554.765000", "151554.765000", "151554.765000", "151554.765000", "151554.765000", "151554.781000", "151554.781000", "151554.781000", "151554.781000", "151554.781000", "151554.781000", "151554.781000", "151554.781000", "151554.796000", "151554.796000", "151554.796000", "151554.796000", "151554.796000", "151614.750000", "151614.750000", "151614.750000", "151614.750000", "151614.750000", "151614.750000", "151614.765000", "151614.765000", "151614.765000", "151614.765000", "151614.765000", "151614.765000", "151614.765000", "151614.781000", "151614.781000", "151614.781000", "151614.781000", "151614.781000", "151614.781000", "151614.796000", "151614.796000", "151614.796000", "151614.796000", "151614.796000", "151614.796000", "151634.750000", "151634.750000", "151634.750000", "151634.750000", "151634.750000", "151634.765000", "151634.765000", "151634.765000", "151634.765000", "151634.765000", "151634.765000", "151634.765000", "151634.781000", "151634.781000", "151634.781000", "151634.781000", "151634.781000", "151634.781000", "151634.781000", "151634.781000", "151634.796000", "151634.796000", "151634.796000", "151634.796000", "151634.796000", "151634.796000", "151654.750000", "151654.750000", "151654.750000", "151654.750000", "151654.750000", "151654.765000", "151654.765000", "151654.765000", "151654.765000", "151654.765000", "151654.765000", "151654.765000", "151654.765000", "151654.781000", "151654.781000", "151654.781000", "151654.781000", "151654.781000", "151654.781000", "151654.781000", "151654.781000", "151654.796000", "151654.796000", "151654.796000", "151654.796000", "151714.750000", "151714.750000", "151714.750000", "151714.750000", "151714.750000", "151714.765000", "151714.765000", "151714.765000", "151714.765000", "151714.765000", "151714.765000", "151714.765000", "151714.781000", "151714.781000", "151714.781000", "151714.781000", "151714.781000", "151714.781000", "151714.781000", "151714.796000", "151714.796000", "151714.796000", "151714.796000", "151714.796000", "151714.796000", "151714.796000", "151734.750000", "151734.750000", "151734.750000", "151734.750000", "151734.750000", "151734.765000", "151734.765000", "151734.765000", "151734.765000", "151734.765000", "151734.765000", "151734.765000", "151734.765000", "151734.781000", "151734.781000", "151734.781000", "151734.781000", "151734.781000", "151734.781000", "151734.781000", "151734.781000", "151734.796000", "151734.796000", "151734.796000", "151734.796000", "151754.750000", "151754.750000", "151754.750000", "151754.750000", "151754.750000", "151754.750000", "151754.765000", "151754.765000", "151754.765000", "151754.765000", "151754.765000", "151754.765000", "151754.765000", "151754.781000", "151754.781000", "151754.781000", "151754.781000", "151754.781000", "151754.781000", "151754.781000", "151754.781000", "151754.796000", "151754.796000", "151754.796000", "151754.796000", "151754.796000", "151814.750000", "151814.750000", "151814.750000", "151814.750000", "151814.750000", "151814.765000", "151814.765000", "151814.765000", "151814.765000", "151814.765000", "151814.765000", "151814.765000", "151814.765000", "151814.781000", "151814.781000", "151814.781000", "151814.781000", "151814.781000", "151814.796000", "151814.796000", "151814.796000", "151814.796000", "151814.796000", "151814.796000", "151814.796000", "151834.750000", "151834.750000", "151834.750000", "151834.750000", "151834.750000", "151834.765000", "151834.765000", "151834.765000", "151834.765000", "151834.765000", "151834.765000", "151834.765000", "151834.765000", "151834.781000", "151834.781000", "151834.781000", "151834.781000", "151834.781000", "151834.781000", "151834.781000", "151834.796000", "151834.796000", "151834.796000", "151834.796000", "151834.796000", "151834.796000", "151854.750000", "151854.750000", "151854.750000", "151854.750000", "151854.750000", "151854.750000", "151854.765000", "151854.765000", "151854.765000", "151854.765000", "151854.765000", "151854.765000", "151854.765000", "151854.781000", "151854.781000", "151854.781000", "151854.781000", "151854.781000", "151854.781000", "151854.781000", "151854.796000", "151854.796000", "151854.796000", "151854.796000", "151854.796000", "151914.750000", "151914.750000", "151914.750000", "151914.750000", "151914.750000", "151914.765000", "151914.765000", "151914.765000", "151914.765000", "151914.765000", "151914.765000", "151914.765000", "151914.765000", "151914.781000", "151914.781000", "151914.781000", "151914.781000", "151914.781000", "151914.781000", "151914.781000", "151914.781000", "151914.796000", "151914.796000", "151914.796000", "151914.796000", "151914.796000", "151934.750000", "151934.750000", "151934.750000", "151934.750000", "151934.750000", "151934.765000", "151934.765000", "151934.765000", "151934.765000", "151934.765000", "151934.765000", "151934.765000", "151934.765000", "151934.781000", "151934.781000", "151934.781000", "151934.781000", "151934.781000", "151934.796000", "151934.796000", "151934.796000", "151934.796000", "151934.796000", "151934.796000", "151934.796000", "151954.750000", "151954.750000", "151954.750000", "151954.750000", "151954.750000", "151954.750000", "151954.765000", "151954.765000", "151954.765000", "151954.765000", "151954.765000", "151954.765000", "151954.765000", "151954.781000", "151954.781000", "151954.781000", "151954.781000", "151954.781000", "151954.781000", "151954.781000", "151954.781000", "151954.796000", "151954.796000", "151954.796000", "151954.796000", "151954.796000", "152014.750000", "152014.750000", "152014.750000", "152014.750000", "152014.750000", "152014.765000", "152014.765000", "152014.765000", "152014.765000", "152014.765000", "152014.765000", "152014.765000", "152014.765000", "152014.781000", "152014.781000", "152014.781000", "152014.781000", "152014.781000", "152014.781000", "152014.781000", "152014.796000", "152014.796000", "152014.796000", "152014.796000", "152014.796000", "152034.750000", "152034.750000", "152034.750000", "152034.750000", "152034.750000", "152034.765000", "152034.765000", "152034.765000", "152034.765000", "152034.765000", "152034.765000", "152034.781000", "152034.781000", "152034.781000", "152034.781000", "152034.781000", "152034.781000", "152034.781000", "152034.781000", "152034.796000", "152034.796000", "152034.796000", "152034.796000", "152034.796000", "152034.796000", "152034.796000", "152054.750000", "152054.750000", "152054.750000", "152054.750000", "152054.750000", "152054.765000", "152054.765000", "152054.765000", "152054.765000", "152054.765000", "152054.765000", "152054.765000", "152054.765000", "152054.781000", "152054.781000", "152054.781000", "152054.781000", "152054.781000", "152054.781000", "152054.796000", "152054.796000", "152054.796000", "152054.796000", "152054.796000", "152054.796000", "152114.750000", "152114.750000", "152114.750000", "152114.750000", "152114.750000", "152114.765000", "152114.765000", "152114.765000", "152114.765000", "152114.765000", "152114.765000", "152114.765000", "152114.765000", "152114.781000", "152114.781000", "152114.781000", "152114.781000", "152114.781000", "152114.781000", "152114.781000", "152114.796000", "152114.796000", "152114.796000", "152114.796000", "152114.796000", "152114.796000", "152134.750000", "152134.750000", "152134.750000", "152134.750000", "152134.750000", "152134.750000", "152134.765000", "152134.765000", "152134.765000", "152134.765000", "152134.765000", "152134.765000", "152134.765000", "152134.781000", "152134.781000", "152134.781000", "152134.781000", "152134.781000", "152134.781000", "152134.781000", "152134.781000", "152134.796000", "152134.796000", "152134.796000", "152134.796000", "152154.750000", "152154.750000", "152154.750000", "152154.750000", "152154.765000", "152154.765000", "152154.765000", "152154.765000", "152154.765000", "152154.765000", "152154.765000", "152154.765000", "152154.781000", "152154.781000", "152154.781000", "152154.781000", "152154.781000", "152154.781000", "152154.781000", "152154.796000", "152154.796000", "152154.796000", "152154.796000", "152154.796000", "152154.796000", "152158.765000", "152158.765000", "152158.765000", "152158.765000", "152158.765000", "152158.765000"],
