{
  "AcquisitionMatrixPE": 104,
  "AcquisitionNumber": 1,
  "AcquisitionTime": "15:39:18.707500",
  "BandwidthPerPixelPhaseEncode": 13.935,
  "BaseResolution": 104,
  "CoilString": "C:HEA;HEP",
  "ConversionSoftware": "dcm2niix",
  "ConversionSoftwareVersion": "v1.0.20210317",
  "DerivedVendorReportedEchoSpacing": 0.000690017,
  "DeviceSerialNumber": "35450",
  "DwellTime": 2.5e-06,
  "EchoTime": 0.0348,
  "EffectiveEchoSpacing": 0.000690017,
  "FlipAngle": 55,
  "ImageComments": "Unaliased MB8/PE3 (remote)",
  "ImageOrientationPatientDICOM": [0.999935, -0.0012935, -0.0113533, -8.93079e-09, 0.993572, -0.1132],
  "ImageType": [
    "ORIGINAL",
    "PRIMARY",
    "M",
    "MB",
    "ND",
    "MOSAIC"
],
  "ImagingFrequency": 123.235,
  "InPlanePhaseEncodingDirectionDICOM": "COL",
  "InstitutionAddress": "Univeristy Ave. 197,Newark,North East,US,07102-1814",
  "InstitutionName": "RUBIC",
  "InstitutionalDepartmentName": "Department",
  "MRAcquisitionType": "2D",
  "MagneticFieldStrength": 3,
  "Manufacturer": "Siemens",
  "ManufacturersModelName": "TrioTim",
  "Modality": "MR",
  "MultibandAccelerationFactor": 8,
  "PartialFourier": 0.875,
  "PatientPosition": "HFS",
  "PercentPhaseFOV": 100,
  "PercentSampling": 100,
  "PhaseEncodingDirection": "j-",
  "PhaseEncodingSteps": 91,
  "PhaseResolution": 1,
  "PixelBandwidth": 1923,
  "ProcedureStepDescription": "Cole^Michael",
  "ProtocolName": "cmrr_mbep2d_bold_2mm_MB8_Task_8x",
  "PulseSequenceDetails": "%CustomerSeq%\\cmrr_mbep2d_bold",
  "ReceiveCoilName": "32Ch_Head",
  "ReconMatrixPE": 104,
  "RepetitionTime": 0.785,
  "SAR": 0.15084,
  "ScanOptions": "PFP\\FS",
  "ScanningSequence": "EP",
  "SequenceName": "epfid2d1_104",
  "SequenceVariant": "SK\\SS",
  "SeriesDescription": "cmrr_mbep2d_bold_2mm_MB8_Task_8x",
  "SeriesNumber": 21,
  "ShimSetting": [2089, -434, -7278, 644, -91, -205, -7, -64],
  "SliceThickness": 2,
  "SliceTiming": [0, 0.4375, 0.0875, 0.525, 0.175, 0.6125, 0.2625, 0.7, 0.35, 0, 0.4375, 0.0875, 0.525, 0.175, 0.6125, 0.2625, 0.7, 0.35, 0, 0.4375, 0.0875, 0.525, 0.175, 0.6125, 0.2625, 0.7, 0.35, 0, 0.4375, 0.0875, 0.525, 0.175, 0.6125, 0.2625, 0.7, 0.35, 0, 0.4375, 0.0875, 0.525, 0.175, 0.6125, 0.2625, 0.7, 0.35, 0, 0.4375, 0.0875, 0.525, 0.175, 0.6125, 0.2625, 0.7, 0.35, 0, 0.4375, 0.0875, 0.525, 0.175, 0.6125, 0.2625, 0.7, 0.35, 0, 0.4375, 0.0875, 0.525, 0.175, 0.6125, 0.2625, 0.7, 0.35],
  "SoftwareVersions": "syngo MR B19",
  "SpacingBetweenSlices": 2,
  "StationName": "MRC35450",
  "TaskName": "cpro",
  "TotalReadoutTime": 0.0710717,
  "TxRefAmp": 341.118,
  "dcmmeta_affine": [
    [-1.999869465827942, -1.786158954075745e-08, -0.022853493690490723, 106.18873596191406],
    [0.0025869966484606266, 1.9871444702148438, -0.22638513147830963, -77.83424377441406],
    [-0.02270659990608692, 0.22639989852905273, 1.9870147705078125, -112.12376403808594],
    [0.0, 0.0, 0.0, 1.0]
],
  "dcmmeta_reorient_transform": [
    [0.0, -1.0, 0.0, 103.0],
    [1.0, 0.0, 0.0, 0.0],
    [0.0, 0.0, 1.0, 0.0],
    [0.0, 0.0, 0.0, 1.0]
],
  "dcmmeta_shape": [104, 104, 72, 581],
  "dcmmeta_slice_dim": 2,
  "dcmmeta_version": 0.6,
  "global": {
    "const": {
      "AcquisitionMatrix": [104, 0, 0, 104],
      "AngioFlag": "N",
      "BitsAllocated": 16,
      "BitsStored": 12,
      "Columns": 936,
      "EchoNumbers": 1,
      "EchoTime": 34.8,
      "EchoTrainLength": 1,
      "FlipAngle": 55.0,
      "HighBit": 11,
      "ImageOrientationPatient": [0.9999347125934, -0.0012934983654, -0.0113532996412, -8.930795e-09, 0.99357222722644, -0.1131999526691],
      "ImagePositionPatient": [-938.13441018176, -952.41753781221, 14.823734116093],
      "ImageType": [
        "ORIGINAL",
        "PRIMARY",
        "M",
        "MB",
        "ND",
        "MOSAIC"
],
      "ImagedNucleus": "1H",
      "ImagingFrequency": 123.234521,
      "InPlanePhaseEncodingDirection": "COL",
      "MRAcquisitionType": "2D",
      "MagneticFieldStrength": 3.0,
      "Manufacturer": "SIEMENS",
      "ManufacturerModelName": "TrioTim",
      "Modality": "MR",
      "NumberOfAverages": 1.0,
      "NumberOfPhaseEncodingSteps": 91,
      "PercentPhaseFieldOfView": 100.0,
      "PercentSampling": 100.0,
      "PerformedProcedureStepStartTime": "135217.078000",
      "PhotometricInterpretation": "MONOCHROME2",
      "PixelBandwidth": 1923.0,
      "PixelRepresentation": 0,
      "PixelSpacing": [2.0, 2.0],
      "ProtocolName": "cmrr_mbep2d_bold_2mm_MB8_Task_8x",
      "RepetitionTime": 785.0,
      "Rows": 936,
      "SAR": 0.15083981697198,
      "SamplesPerPixel": 1,
      "ScanOptions": [
        "PFP",
        "FS"
],
      "ScanningSequence": "EP",
      "SequenceName": "epfid2d1_104",
      "SequenceVariant": [
        "SK",
        "SS"
],
      "SeriesDescription": "cmrr_mbep2d_bold_2mm_MB8_Task_8x",
      "SeriesNumber": 21,
      "SeriesTime": "153954.796000",
      "SliceLocation": -103.79891719905,
      "SliceThickness": 2.0,
      "SmallestImagePixelValue": 0,
      "SoftwareVersions": "syngo MR B19",
      "SpacingBetweenSlices": 1.9999999969701,
      "SpecificCharacterSet": "ISO_IR 100",
      "StudyID": "1",
      "StudyTime": "135217.031000",
      "TransmitCoilName": "Body",
      "VariableFlipAngleFlag": "N",
      "WindowCenterWidthExplanation": "Algo1",
      "dBdt": 0.0},
    "slices": {}
  },
  "time": {
    "samples": {
      "AcquisitionNumber": [1, 2, 3, 4, 5, 6, 7, 8, 9, 10, 11, 12, 13, 14, 15, 16, 17, 18, 19, 20, 21, 22, 23, 24, 25, 26, 27, 28, 29, 30, 31, 32, 33, 34, 35, 36, 37, 38, 39, 40, 41, 42, 43, 44, 45, 46, 47, 48, 49, 50, 51, 52, 53, 54, 55, 56, 57, 58, 59, 60, 61, 62, 63, 64, 65, 66, 67, 68, 69, 70, 71, 72, 73, 74, 75, 76, 77, 78, 79, 80, 81, 82, 83, 84, 85, 86, 87, 88, 89, 90, 91, 92, 93, 94, 95, 96, 97, 98, 99, 100, 101, 102, 103, 104, 105, 106, 107, 108, 109, 110, 111, 112, 113, 114, 115, 116, 117, 118, 119, 120, 121, 122, 123, 124, 125, 126, 127, 128, 129, 130, 131, 132, 133, 134, 135, 136, 137, 138, 139, 140, 141, 142, 143, 144, 145, 146, 147, 148, 149, 150, 151, 152, 153, 154, 155, 156, 157, 158, 159, 160, 161, 162, 163, 164, 165, 166, 167, 168, 169, 170, 171, 172, 173, 174, 175, 176, 177, 178, 179, 180, 181, 182, 183, 184, 185, 186, 187, 188, 189, 190, 191, 192, 193, 194, 195, 196, 197, 198, 199, 200, 201, 202, 203, 204, 205, 206, 207, 208, 209, 210, 211, 212, 213, 214, 215, 216, 217, 218, 219, 220, 221, 222, 223, 224, 225, 226, 227, 228, 229, 230, 231, 232, 233, 234, 235, 236, 237, 238, 239, 240, 241, 242, 243, 244, 245, 246, 247, 248, 249, 250, 251, 252, 253, 254, 255, 256, 257, 258, 259, 260, 261, 262, 263, 264, 265, 266, 267, 268, 269, 270, 271, 272, 273, 274, 275, 276, 277, 278, 279, 280, 281, 282, 283, 284, 285, 286, 287, 288, 289, 290, 291, 292, 293, 294, 295, 296, 297, 298, 299, 300, 301, 302, 303, 304, 305, 306, 307, 308, 309, 310, 311, 312, 313, 314, 315, 316, 317, 318, 319, 320, 321, 322, 323, 324, 325, 326, 327, 328, 329, 330, 331, 332, 333, 334, 335, 336, 337, 338, 339, 340, 341, 342, 343, 344, 345, 346, 347, 348, 349, 350, 351, 352, 353, 354, 355, 356, 357, 358, 359, 360, 361, 362, 363, 364, 365, 366, 367, 368, 369, 370, 371, 372, 373, 374, 375, 376, 377, 378, 379, 380, 381, 382, 383, 384, 385, 386, 387, 388, 389, 390, 391, 392, 393, 394, 395, 396, 397, 398, 399, 400, 401, 402, 403, 404, 405, 406, 407, 408, 409, 410, 411, 412, 413, 414, 415, 416, 417, 418, 419, 420, 421, 422, 423, 424, 425, 426, 427, 428, 429, 430, 431, 432, 433, 434, 435, 436, 437, 438, 439, 440, 441, 442, 443, 444, 445, 446, 447, 448, 449, 450, 451, 452, 453, 454, 455, 456, 457, 458, 459, 460, 461, 462, 463, 464, 465, 466, 467, 468, 469, 470, 471, 472, 473, 474, 475, 476, 477, 478, 479, 480, 481, 482, 483, 484, 485, 486, 487, 488, 489, 490, 491, 492, 493, 494, 495, 496, 497, 498, 499, 500, 501, 502, 503, 504, 505, 506, 507, 508, 509, 510, 511, 512, 513, 514, 515, 516, 517, 518, 519, 520, 521, 522, 523, 524, 525, 526, 527, 528, 529, 530, 531, 532, 533, 534, 535, 536, 537, 538, 539, 540, 541, 542, 543, 544, 545, 546, 547, 548, 549, 550, 551, 552, 553, 554, 555, 556, 557, 558, 559, 560, 561, 562, 563, 564, 565, 566, 567, 568, 569, 570, 571, 572, 573, 574, 575, 576, 577, 578, 579, 580, 581],
      "AcquisitionTime": ["153918.707500", "153919.495000", "153920.282500", "153921.072500", "153921.860000", "153922.647500", "153923.437500", "153924.225000", "153925.012500", "153925.800000", "153926.590000", "153927.377500", "153928.165000", "153928.952500", "153929.742500", "153930.530000", "153931.317500", "153932.105000", "153932.895000", "153933.682500", "153934.470000", "153935.257500", "153936.047500", "153936.835000", "153937.622500", "153938.410000", "153939.200000", "153939.987500", "153940.775000", "153941.565000", "153942.352500", "153943.140000", "153943.927500", "153944.717500", "153945.505000", "153946.292500", "153947.080000", "153947.870000", "153948.657500", "153949.445000", "153950.232500", "153951.022500", "153951.810000", "153952.597500", "153953.385000", "153954.175000", "153954.962500", "153955.750000", "153956.537500", "153957.327500", "153958.115000", "153958.902500", "153959.692500", "154000.480000", "154001.267500", "154002.055000", "154002.845000", "154003.632500", "154004.420000", "154005.207500", "154005.997500", "154006.785000", "154007.572500", "154008.360000", "154009.150000", "154009.937500", "154010.725000", "154011.512500", "154012.302500", "154013.090000", "154013.877500", "154014.665000", "154015.455000", "154016.242500", "154017.030000", "154017.820000", "154018.607500", "154019.395000", "154020.182500", "154020.972500", "154021.760000", "154022.547500", "154023.335000", "154024.125000", "154024.912500", "154025.700000", "154026.487500", "154027.277500", "154028.065000", "154028.852500", "154029.640000", "154030.430000", "154031.217500", "154032.005000", "154032.792500", "154033.582500", "154034.370000", "154035.157500", "154035.947500", "154036.735000", "154037.522500", "154038.310000", "154039.100000", "154039.887500", "154040.675000", "154041.462500", "154042.252500", "154043.040000", "154043.827500", "154044.615000", "154045.405000", "154046.192500", "154046.980000", "154047.767500", "154048.557500", "154049.345000", "154050.132500", "154050.920000", "154051.710000", "154052.497500", "154053.285000", "154054.075000", "154054.862500", "154055.650000", "154056.437500", "154057.227500", "154058.015000", "154058.802500", "154059.590000", "154100.380000", "154101.167500", "154101.955000", "154102.742500", "154103.532500", "154104.320000", "154105.107500", "154105.895000", "154106.685000", "154107.472500", "154108.260000", "154109.047500", "154109.837500", "154110.625000", "154111.412500", "154112.202500", "154112.990000", "154113.777500", "154114.565000", "154115.355000", "154116.142500", "154116.930000", "154117.717500", "154118.507500", "154119.295000", "154120.082500", "154120.870000", "154121.660000", "154122.447500", "154123.235000", "154124.022500", "154124.812500", "154125.600000", "154126.387500", "154127.175000", "154127.965000", "154128.752500", "154129.540000", "154130.330000", "154131.117500", "154131.905000", "154132.692500", "154133.482500", "154134.270000", "154135.057500", "154135.845000", "154136.635000", "154137.422500", "154138.210000", "154138.997500", "154139.787500", "154140.575000", "154141.362500", "154142.150000", "154142.940000", "154143.727500", "154144.515000", "154145.302500", "154146.092500", "154146.880000", "154147.667500", "154148.457500", "154149.245000", "154150.032500", "154150.820000", "154151.610000", "154152.397500", "154153.185000", "154153.972500", "154154.762500", "154155.550000", "154156.337500", "154157.125000", "154157.915000", "154158.702500", "154159.490000", "154200.277500", "154201.067500", "154201.855000", "154202.642500", "154203.432500", "154204.220000", "154205.007500", "154205.795000", "154206.585000", "154207.372500", "154208.160000", "154208.947500", "154209.737500", "154210.525000", "154211.312500", "154212.100000", "154212.890000", "154213.677500", "154214.465000", "154215.252500", "154216.042500", "154216.830000", "154217.617500", "154218.405000", "154219.195000", "154219.982500", "154220.770000", "154221.560000", "154222.347500", "154223.135000", "154223.922500", "154224.712500", "154225.500000", "154226.287500", "154227.075000", "154227.865000", "154228.652500", "154229.440000", "154230.227500", "154231.017500", "154231.805000", "154232.592500", "154233.380000", "154234.170000", "154234.957500", "154235.745000", "154236.532500", "154237.322500", "154238.110000", "154238.897500", "154239.687500", "154240.475000", "154241.262500", "154242.050000", "154242.840000", "154243.627500", "154244.415000", "154245.202500", "154245.992500", "154246.780000", "154247.567500", "154248.355000", "154249.145000", "154249.932500", "154250.720000", "154251.507500", "154252.297500", "154253.085000", "154253.872500", "154254.660000", "154255.450000", "154256.237500", "154257.025000", "154257.815000", "154258.602500", "154259.390000", "154300.177500", "154300.967500", "154301.755000", "154302.542500", "154303.330000", "154304.120000", "154304.907500", "154305.695000", "154306.482500", "154307.272500", "154308.060000", "154308.847500", "154309.635000", "154310.425000", "154311.212500", "154312.000000", "154312.787500", "154313.577500", "154314.365000", "154315.152500", "154315.942500", "154316.730000", "154317.517500", "154318.305000", "154319.095000", "154319.882500", "154320.670000", "154321.457500", "154322.247500", "154323.035000", "154323.822500", "154324.610000", "154325.400000", "154326.187500", "154326.975000", "154327.762500", "154328.552500", "154329.340000", "154330.127500", "154330.915000", "154331.705000", "154332.492500", "154333.280000", "154334.070000", "154334.857500", "154335.645000", "154336.432500", "154337.222500", "154338.010000", "154338.797500", "154339.585000", "154340.375000", "154341.162500", "154341.950000", "154342.737500", "154343.527500", "154344.315000", "154345.102500", "154345.890000", "154346.680000", "154347.467500", "154348.255000", "154349.042500", "154349.832500", "154350.620000", "154351.407500", "154352.197500", "154352.985000", "154353.772500", "154354.560000", "154355.350000", "154356.137500", "154356.925000", "154357.712500", "154358.502500", "154359.290000", "154400.077500", "154400.865000", "154401.655000", "154402.442500", "154403.230000", "154404.017500", "154404.807500", "154405.595000", "154406.382500", "154407.170000", "154407.960000", "154408.747500", "154409.535000", "154410.325000", "154411.112500", "154411.900000", "154412.687500", "154413.477500", "154414.265000", "154415.052500", "154415.840000", "154416.630000", "154417.417500", "154418.205000", "154418.992500", "154419.782500", "154420.570000", "154421.357500", "154422.145000", "154422.935000", "154423.722500", "154424.510000", "154425.297500", "154426.087500", "154426.875000", "154427.662500", "154428.452500", "154429.240000", "154430.027500", "154430.815000", "154431.605000", "154432.392500", "154433.180000", "154433.967500", "154434.757500", "154435.545000", "154436.332500", "154437.120000", "154437.910000", "154438.697500", "154439.485000", "154440.272500", "154441.062500", "154441.850000", "154442.637500", "154443.425000", "154444.215000", "154445.002500", "154445.790000", "154446.580000", "154447.367500", "154448.155000", "154448.942500", "154449.732500", "154450.520000", "154451.307500", "154452.095000", "154452.885000", "154453.672500", "154454.460000", "154455.247500", "154456.037500", "154456.825000", "154457.612500", "154458.400000", "154459.190000", "154459.977500", "154500.765000", "154501.552500", "154502.342500", "154503.130000", "154503.917500", "154504.707500", "154505.495000", "154506.282500", "154507.070000", "154507.860000", "154508.647500", "154509.435000", "154510.222500", "154511.012500", "154511.800000", "154512.587500", "154513.375000", "154514.165000", "154514.952500", "154515.740000", "154516.527500", "154517.317500", "154518.105000", "154518.892500", "154519.682500", "154520.470000", "154521.257500", "154522.045000", "154522.835000", "154523.622500", "154524.410000", "154525.197500", "154525.987500", "154526.775000", "154527.562500", "154528.350000", "154529.140000", "154529.927500", "154530.715000", "154531.502500", "154532.292500", "154533.080000", "154533.867500", "154534.655000", "154535.445000", "154536.232500", "154537.020000", "154537.810000", "154538.597500", "154539.385000", "154540.172500", "154540.962500", "154541.750000", "154542.537500", "154543.325000", "154544.115000", "154544.902500", "154545.690000", "154546.477500", "154547.267500", "154548.055000", "154548.842500", "154549.630000", "154550.420000", "154551.207500", "154551.995000", "154552.782500", "154553.572500", "154554.360000", "154555.147500", "154555.937500", "154556.725000", "154557.512500", "154558.300000", "154559.090000", "154559.877500", "154600.665000", "154601.452500", "154602.242500", "154603.030000", "154603.817500", "154604.605000", "154605.395000", "154606.182500", "154606.970000", "154607.757500", "154608.547500", "154609.335000", "154610.122500", "154610.910000", "154611.700000", "154612.487500", "154613.275000", "154614.065000", "154614.852500", "154615.640000", "154616.427500", "154617.217500", "154618.005000", "154618.792500", "154619.580000", "154620.370000", "154621.157500", "154621.945000", "154622.732500", "154623.522500", "154624.310000", "154625.097500", "154625.885000", "154626.675000", "154627.462500", "154628.250000", "154629.037500", "154629.827500", "154630.615000", "154631.402500", "154632.192500", "154632.980000", "154633.767500", "154634.555000", "154635.345000", "154636.132500", "154636.920000", "154637.707500", "154638.497500", "154639.285000", "154640.072500", "154640.860000", "154641.650000", "154642.437500", "154643.225000", "154644.012500", "154644.802500", "154645.590000", "154646.377500", "154647.165000", "154647.955000", "154648.742500", "154649.530000", "154650.320000", "154651.107500", "154651.895000", "154652.682500", "154653.472500", "154654.260000", "154655.047500", "154655.835000"],
      "ContentTime": ["153954.796000", "153954.796000", "153954.796000", "153954.796000", "153954.812000", "153954.812000", "153954.812000", "153954.812000", "153954.812000", "153954.812000", "153954.812000", "153954.812000", "153954.828000", "153954.828000", "153954.828000", "153954.828000", "153954.828000", "153954.828000", "153954.828000", "153954.843000", "153954.843000", "153954.843000", "153954.843000", "153954.843000", "153954.843000", "153954.843000", "153954.859000", "153954.859000", "153954.859000", "153954.859000", "153954.859000", "153954.859000", "153954.875000", "153954.875000", "153954.875000", "153954.875000", "153954.875000", "153954.875000", "153954.875000", "153954.875000", "153954.890000", "153954.890000", "153954.890000", "153954.890000", "154014.750000", "154014.750000", "154014.750000", "154014.750000", "154014.750000", "154014.765000", "154014.765000", "154014.781000", "154014.781000", "154014.781000", "154014.781000", "154014.781000", "154014.781000", "154014.781000", "154014.796000", "154014.796000", "154014.796000", "154014.796000", "154014.796000", "154014.796000", "154014.796000", "154014.796000", "154014.812000", "154014.812000", "154014.812000", "154034.750000", "154034.750000", "154034.750000", "154034.750000", "154034.750000", "154034.765000", "154034.765000", "154034.765000", "154034.765000", "154034.765000", "154034.765000", "154034.765000", "154034.781000", "154034.781000", "154034.781000", "154034.781000", "154034.781000", "154034.781000", "154034.781000", "154034.781000", "154034.796000", "154034.796000", "154034.796000", "154034.796000", "154034.796000", "154034.796000", "154054.750000", "154054.750000", "154054.750000", "154054.750000", "154054.750000", "154054.765000", "154054.765000", "154054.765000", "154054.765000", "154054.765000", "154054.765000", "154054.765000", "154054.765000", "154054.781000", "154054.781000", "154054.781000", "154054.781000", "154054.781000", "154054.781000", "154054.781000", "154054.796000", "154054.796000", "154054.796000", "154054.796000", "154054.796000", "154114.750000", "154114.750000", "154114.765000", "154114.765000", "154114.765000", "154114.781000", "154114.781000", "154114.781000", "154114.781000", "154114.781000", "154114.781000", "154114.781000", "154114.796000", "154114.796000", "154114.796000", "154114.796000", "154114.812000", "154114.812000", "154114.812000", "154114.812000", "154114.812000", "154114.812000", "154114.812000", "154114.828000", "154114.828000", "154114.828000", "154134.750000", "154134.750000", "154134.750000", "154134.750000", "154134.750000", "154134.750000", "154134.765000", "154134.765000", "154134.781000", "154134.781000", "154134.781000", "154134.781000", "154134.781000", "154134.781000", "154134.781000", "154134.796000", "154134.796000", "154134.796000", "154134.796000", "154134.796000", "154134.796000", "154134.796000", "154134.812000", "154134.812000", "154134.812000", "154154.750000", "154154.750000", "154154.750000", "154154.750000", "154154.750000", "154154.765000", "154154.765000", "154154.765000", "154154.765000", "154154.765000", "154154.781000", "154154.781000", "154154.781000", "154154.781000", "154154.781000", "154154.796000", "154154.796000", "154154.796000", "154154.796000", "154154.796000", "154154.796000", "154154.796000", "154154.812000", "154154.812000", "154154.812000", "154214.750000", "154214.750000", "154214.750000", "154214.750000", "154214.750000", "154214.765000", "154214.765000", "154214.765000", "154214.765000", "154214.765000", "154214.765000", "154214.781000", "154214.781000", "154214.781000", "154214.781000", "154214.781000", "154214.781000", "154214.781000", "154214.796000", "154214.796000", "154214.796000", "154214.796000", "154214.796000", "154214.796000", "154214.796000", "154214.796000", "154234.750000", "154234.750000", "154234.781000", "154234.781000", "154234.781000", "154234.781000", "154234.781000", "154234.781000", "154234.796000", "154234.796000", "154234.812000", "154234.812000", "154234.812000", "154234.828000", "154234.828000", "154234.828000", "154234.828000", "154234.843000", "154234.843000", "154234.843000", "154234.843000", "154234.859000", "154234.859000", "154234.859000", "154234.859000", "154254.750000", "154254.750000", "154254.750000", "154254.750000", "154254.750000", "154254.750000", "154254.765000", "154254.765000", "154254.765000", "154254.765000", "154254.765000", "154254.765000", "154254.765000", "154254.781000", "154254.781000", "154254.781000", "154254.781000", "154254.781000", "154254.781000", "154254.781000", "154254.781000", "154254.796000", "154254.796000", "154254.796000", "154254.796000", "154254.796000", "154314.750000", "154314.750000", "154314.750000", "154314.750000", "154314.750000", "154314.765000", "154314.765000", "154314.765000", "154314.765000", "154314.765000", "154314.765000", "154314.765000", "154314.765000", "154314.781000", "154314.781000", "154314.781000", "154314.781000", "154314.781000", "154314.781000", "154314.781000", "154314.796000", "154314.796000", "154314.796000", "154314.796000", "154314.796000", "154334.750000", "154334.750000", "154334.750000", "154334.750000", "154334.750000", "154334.765000", "154334.765000", "154334.765000", "154334.765000", "154334.765000", "154334.765000", "154334.765000", "154334.765000", "154334.781000", "154334.781000", "154334.781000", "154334.781000", "154334.781000", "154334.781000", "154334.781000", "154334.781000", "154334.796000", "154334.796000", "154334.796000", "154334.796000", "154334.796000", "154354.750000", "154354.750000", "154354.796000", "154354.796000", "154354.796000", "154354.812000", "154354.812000", "154354.812000", "154354.812000", "154354.812000", "154354.812000", "154354.828000", "154354.828000", "154354.828000", "154354.828000", "154354.828000", "154354.828000", "154354.828000", "154354.843000", "154354.843000", "154354.843000", "154354.843000", "154354.843000", "154354.843000", "154354.843000", "154414.750000", "154414.750000", "154414.750000", "154414.750000", "154414.765000", "154414.765000", "154414.765000", "154414.765000", "154414.765000", "154414.781000", "154414.781000", "154414.781000", "154414.781000", "154414.781000", "154414.781000", "154414.781000", "154414.796000", "154414.796000", "154414.796000", "154414.796000", "154414.796000", "154414.796000", "154414.796000", "154414.796000", "154414.812000", "154414.812000", "154434.750000", "154434.750000", "154434.750000", "154434.750000", "154434.750000", "154434.750000", "154434.765000", "154434.765000", "154434.765000", "154434.765000", "154434.765000", "154434.765000", "154434.765000", "154434.781000", "154434.781000", "154434.781000", "154434.781000", "154434.781000", "154434.781000", "154434.781000", "154434.781000", "154434.796000", "154434.796000", "154434.796000", "154434.796000", "154454.750000", "154454.750000", "154454.750000", "154454.750000", "154454.750000", "154454.765000", "154454.765000", "154454.765000", "154454.765000", "154454.765000", "154454.765000", "154454.765000", "154454.781000", "154454.781000", "154454.781000", "154454.781000", "154454.781000", "154454.781000", "154454.796000", "154454.796000", "154454.796000", "154454.796000", "154454.796000", "154454.796000", "154454.796000", "154454.796000", "154514.750000", "154514.750000", "154514.765000", "154514.765000", "154514.765000", "154514.765000", "154514.765000", "154514.765000", "154514.781000", "154514.781000", "154514.781000", "154514.781000", "154514.781000", "154514.781000", "154514.781000", "154514.796000", "154514.796000", "154514.796000", "154514.796000", "154514.796000", "154514.796000", "154514.796000", "154514.812000", "154514.812000", "154514.812000", "154534.750000", "154534.750000", "154534.750000", "154534.750000", "154534.750000", "154534.765000", "154534.765000", "154534.765000", "154534.781000", "154534.781000", "154534.781000", "154534.781000", "154534.781000", "154534.781000", "154534.781000", "154534.781000", "154534.796000", "154534.796000", "154534.796000", "154534.796000", "154534.796000", "154534.796000", "154534.796000", "154534.812000", "154534.812000", "154534.812000", "154554.750000", "154554.750000", "154554.750000", "154554.750000", "154554.765000", "154554.765000", "154554.765000", "154554.765000", "154554.765000", "154554.765000", "154554.781000", "154554.781000", "154554.781000", "154554.781000", "154554.781000", "154554.781000", "154554.781000", "154554.781000", "154554.796000", "154554.796000", "154554.796000", "154554.796000", "154554.796000", "154554.796000", "154554.796000", "154614.750000", "154614.750000", "154614.750000", "154614.750000", "154614.750000", "154614.765000", "154614.765000", "154614.765000", "154614.765000", "154614.765000", "154614.765000", "154614.765000", "154614.765000", "154614.781000", "154614.781000", "154614.781000", "154614.781000", "154614.781000", "154614.781000", "154614.781000", "154614.796000", "154614.796000", "154614.796000", "154614.796000", "154614.796000", "154614.796000", "154634.750000", "154634.750000", "154634.781000", "154634.781000", "154634.781000", "154634.781000", "154634.796000", "154634.796000", "154634.796000", "154634.796000", "154634.796000", "154634.796000", "154634.796000", "154634.812000", "154634.812000", "154634.812000", "154634.812000", "154634.828000", "154634.828000", "154634.828000", "154634.828000", "154634.843000", "154634.843000", "154634.843000", "154634.843000", "154654.750000", "154654.750000", "154654.750000", "154654.750000", "154654.750000", "154654.765000", "154654.765000", "154654.765000", "154654.765000", "154654.765000", "154654.765000", "154654.781000", "154654.781000", "154654.781000", "154654.781000", "154654.781000", "154654.781000", "154654.781000", "154654.796000", "154654.796000", "154654.796000", "154654.796000", "154654.796000", "154654.796000", "154654.812000", "154654.812000", "154656.296000", "154656.296000"],
