{
  "AcquisitionMatrixPE": 104,
  "AcquisitionNumber": 1,
  "AcquisitionTime": "14:42:48.757500",
  "BandwidthPerPixelPhaseEncode": 13.935,
  "BaseResolution": 104,
  "CoilString": "C:HEA;HEP",
  "ConversionSoftware": "dcm2niix",
  "ConversionSoftwareVersion": "v1.0.20210317",
  "DerivedVendorReportedEchoSpacing": 0.000690017,
  "DeviceSerialNumber": "35450",
  "DwellTime": 2.5e-06,
  "EchoTime": 0.0348,
  "EffectiveEchoSpacing": 0.000690017,
  "FlipAngle": 55,
  "ImageComments": "Unaliased MB8/PE3 (remote)",
  "ImageOrientationPatientDICOM": [0.999935, -0.0012935, -0.0113533, -8.93079e-09, 0.993572, -0.1132],
  "ImageType": [
    "ORIGINAL",
    "PRIMARY",
    "M",
    "MB",
    "ND",
    "MOSAIC"
],
  "ImagingFrequency": 123.234,
  "InPlanePhaseEncodingDirectionDICOM": "COL",
  "InstitutionAddress": "Univeristy Ave. 197,Newark,North East,US,07102-1814",
  "InstitutionName": "RUBIC",
  "InstitutionalDepartmentName": "Department",
  "MRAcquisitionType": "2D",
  "MagneticFieldStrength": 3,
  "Manufacturer": "Siemens",
  "ManufacturersModelName": "TrioTim",
  "Modality": "MR",
  "MultibandAccelerationFactor": 8,
  "PartialFourier": 0.875,
  "PatientPosition": "HFS",
  "PercentPhaseFOV": 100,
  "PercentSampling": 100,
  "PhaseEncodingDirection": "j-",
  "PhaseEncodingSteps": 91,
  "PhaseResolution": 1,
  "PixelBandwidth": 1923,
  "ProcedureStepDescription": "Cole^Michael",
  "ProtocolName": "cmrr_mbep2d_bold_2mm_MB8_Rest",
  "PulseSequenceDetails": "%CustomerSeq%\\cmrr_mbep2d_bold",
  "ReceiveCoilName": "32Ch_Head",
  "ReconMatrixPE": 104,
  "RepetitionTime": 0.785,
  "SAR": 0.167435,
  "ScanOptions": "PFP\\FS",
  "ScanningSequence": "EP",
  "SequenceName": "epfid2d1_104",
  "SequenceVariant": "SK\\SS",
  "SeriesDescription": "cmrr_mbep2d_bold_2mm_MB8_Rest",
  "SeriesNumber": 9,
  "ShimSetting": [2089, -434, -7278, 644, -91, -205, -7, -64],
  "SliceThickness": 2,
  "SliceTiming": [0, 0.4375, 0.0875, 0.525, 0.175, 0.6125, 0.2625, 0.7, 0.35, 0, 0.4375, 0.0875, 0.525, 0.175, 0.6125, 0.2625, 0.7, 0.35, 0, 0.4375, 0.0875, 0.525, 0.175, 0.6125, 0.2625, 0.7, 0.35, 0, 0.4375, 0.0875, 0.525, 0.175, 0.6125, 0.2625, 0.7, 0.35, 0, 0.4375, 0.0875, 0.525, 0.175, 0.6125, 0.2625, 0.7, 0.35, 0, 0.4375, 0.0875, 0.525, 0.175, 0.6125, 0.2625, 0.7, 0.35, 0, 0.4375, 0.0875, 0.525, 0.175, 0.6125, 0.2625, 0.7, 0.35, 0, 0.4375, 0.0875, 0.525, 0.175, 0.6125, 0.2625, 0.7, 0.35],
  "SoftwareVersions": "syngo MR B19",
  "SpacingBetweenSlices": 2,
  "StationName": "MRC35450",
  "TaskName": "rest",
  "TotalReadoutTime": 0.0710717,
  "TxRefAmp": 341.118,
  "dcmmeta_affine": [
    [-1.999869465827942, -1.786158954075745e-08, -0.022853493690490723, 106.18873596191406],
    [0.0025869966484606266, 1.9871444702148438, -0.22638513147830963, -77.83424377441406],
    [-0.02270659990608692, 0.22639989852905273, 1.9870147705078125, -112.12376403808594],
    [0.0, 0.0, 0.0, 1.0]
],
  "dcmmeta_reorient_transform": [
    [0.0, -1.0, 0.0, 103.0],
    [1.0, 0.0, 0.0, 0.0],
    [0.0, 0.0, 1.0, 0.0],
    [0.0, 0.0, 0.0, 1.0]
],
  "dcmmeta_shape": [104, 104, 72, 1070],
  "dcmmeta_slice_dim": 2,
  "dcmmeta_version": 0.6,
  "global": {
    "const": {
      "AcquisitionMatrix": [104, 0, 0, 104],
      "AngioFlag": "N",
      "BitsAllocated": 16,
      "BitsStored": 12,
      "Columns": 936,
      "EchoNumbers": 1,
      "EchoTime": 34.8,
      "EchoTrainLength": 1,
      "FlipAngle": 55.0,
      "HighBit": 11,
      "ImageOrientationPatient": [0.9999347125934, -0.0012934983654, -0.0113532996412, -8.930795e-09, 0.99357222722644, -0.1131999526691],
      "ImagePositionPatient": [-938.13441018176, -952.41753781221, 14.823734116093],
      "ImageType": [
        "ORIGINAL",
        "PRIMARY",
        "M",
        "MB",
        "ND",
        "MOSAIC"
],
      "ImagedNucleus": "1H",
      "ImagingFrequency": 123.234466,
      "InPlanePhaseEncodingDirection": "COL",
      "MRAcquisitionType": "2D",
      "MagneticFieldStrength": 3.0,
      "Manufacturer": "SIEMENS",
      "ManufacturerModelName": "TrioTim",
      "Modality": "MR",
      "NumberOfAverages": 1.0,
      "NumberOfPhaseEncodingSteps": 91,
      "PercentPhaseFieldOfView": 100.0,
      "PercentSampling": 100.0,
      "PerformedProcedureStepStartTime": "135217.078000",
      "PhotometricInterpretation": "MONOCHROME2",
      "PixelBandwidth": 1923.0,
      "PixelRepresentation": 0,
      "PixelSpacing": [2.0, 2.0],
      "ProtocolName": "cmrr_mbep2d_bold_2mm_MB8_Rest",
      "RepetitionTime": 785.0,
      "Rows": 936,
      "SAR": 0.16743546745965,
      "SamplesPerPixel": 1,
      "ScanOptions": [
        "PFP",
        "FS"
],
      "ScanningSequence": "EP",
      "SequenceName": "epfid2d1_104",
      "SequenceVariant": [
        "SK",
        "SS"
],
      "SeriesDescription": "cmrr_mbep2d_bold_2mm_MB8_Rest",
      "SeriesNumber": 9,
      "SeriesTime": "144314.765000",
      "SliceLocation": -103.79891719905,
      "SliceThickness": 2.0,
      "SmallestImagePixelValue": 0,
      "SoftwareVersions": "syngo MR B19",
      "SpacingBetweenSlices": 1.9999999969701,
      "SpecificCharacterSet": "ISO_IR 100",
      "StudyID": "1",
      "StudyTime": "135217.031000",
      "TransmitCoilName": "Body",
      "VariableFlipAngleFlag": "N",
      "WindowCenterWidthExplanation": "Algo1",
      "dBdt": 0.0},
    "slices": {}
  },
  "time": {
    "samples": {
      "AcquisitionNumber": [1, 2, 3, 4, 5, 6, 7, 8, 9, 10, 11, 12, 13, 14, 15, 16, 17, 18, 19, 20, 21, 22, 23, 24, 25, 26, 27, 28, 29, 30, 31, 32, 33, 34, 35, 36, 37, 38, 39, 40, 41, 42, 43, 44, 45, 46, 47, 48, 49, 50, 51, 52, 53, 54, 55, 56, 57, 58, 59, 60, 61, 62, 63, 64, 65, 66, 67, 68, 69, 70, 71, 72, 73, 74, 75, 76, 77, 78, 79, 80, 81, 82, 83, 84, 85, 86, 87, 88, 89, 90, 91, 92, 93, 94, 95, 96, 97, 98, 99, 100, 101, 102, 103, 104, 105, 106, 107, 108, 109, 110, 111, 112, 113, 114, 115, 116, 117, 118, 119, 120, 121, 122, 123, 124, 125, 126, 127, 128, 129, 130, 131, 132, 133, 134, 135, 136, 137, 138, 139, 140, 141, 142, 143, 144, 145, 146, 147, 148, 149, 150, 151, 152, 153, 154, 155, 156, 157, 158, 159, 160, 161, 162, 163, 164, 165, 166, 167, 168, 169, 170, 171, 172, 173, 174, 175, 176, 177, 178, 179, 180, 181, 182, 183, 184, 185, 186, 187, 188, 189, 190, 191, 192, 193, 194, 195, 196, 197, 198, 199, 200, 201, 202, 203, 204, 205, 206, 207, 208, 209, 210, 211, 212, 213, 214, 215, 216, 217, 218, 219, 220, 221, 222, 223, 224, 225, 226, 227, 228, 229, 230, 231, 232, 233, 234, 235, 236, 237, 238, 239, 240, 241, 242, 243, 244, 245, 246, 247, 248, 249, 250, 251, 252, 253, 254, 255, 256, 257, 258, 259, 260, 261, 262, 263, 264, 265, 266, 267, 268, 269, 270, 271, 272, 273, 274, 275, 276, 277, 278, 279, 280, 281, 282, 283, 284, 285, 286, 287, 288, 289, 290, 291, 292, 293, 294, 295, 296, 297, 298, 299, 300, 301, 302, 303, 304, 305, 306, 307, 308, 309, 310, 311, 312, 313, 314, 315, 316, 317, 318, 319, 320, 321, 322, 323, 324, 325, 326, 327, 328, 329, 330, 331, 332, 333, 334, 335, 336, 337, 338, 339, 340, 341, 342, 343, 344, 345, 346, 347, 348, 349, 350, 351, 352, 353, 354, 355, 356, 357, 358, 359, 360, 361, 362, 363, 364, 365, 366, 367, 368, 369, 370, 371, 372, 373, 374, 375, 376, 377, 378, 379, 380, 381, 382, 383, 384, 385, 386, 387, 388, 389, 390, 391, 392, 393, 394, 395, 396, 397, 398, 399, 400, 401, 402, 403, 404, 405, 406, 407, 408, 409, 410, 411, 412, 413, 414, 415, 416, 417, 418, 419, 420, 421, 422, 423, 424, 425, 426, 427, 428, 429, 430, 431, 432, 433, 434, 435, 436, 437, 438, 439, 440, 441, 442, 443, 444, 445, 446, 447, 448, 449, 450, 451, 452, 453, 454, 455, 456, 457, 458, 459, 460, 461, 462, 463, 464, 465, 466, 467, 468, 469, 470, 471, 472, 473, 474, 475, 476, 477, 478, 479, 480, 481, 482, 483, 484, 485, 486, 487, 488, 489, 490, 491, 492, 493, 494, 495, 496, 497, 498, 499, 500, 501, 502, 503, 504, 505, 506, 507, 508, 509, 510, 511, 512, 513, 514, 515, 516, 517, 518, 519, 520, 521, 522, 523, 524, 525, 526, 527, 528, 529, 530, 531, 532, 533, 534, 535, 536, 537, 538, 539, 540, 541, 542, 543, 544, 545, 546, 547, 548, 549, 550, 551, 552, 553, 554, 555, 556, 557, 558, 559, 560, 561, 562, 563, 564, 565, 566, 567, 568, 569, 570, 571, 572, 573, 574, 575, 576, 577, 578, 579, 580, 581, 582, 583, 584, 585, 586, 587, 588, 589, 590, 591, 592, 593, 594, 595, 596, 597, 598, 599, 600, 601, 602, 603, 604, 605, 606, 607, 608, 609, 610, 611, 612, 613, 614, 615, 616, 617, 618, 619, 620, 621, 622, 623, 624, 625, 626, 627, 628, 629, 630, 631, 632, 633, 634, 635, 636, 637, 638, 639, 640, 641, 642, 643, 644, 645, 646, 647, 648, 649, 650, 651, 652, 653, 654, 655, 656, 657, 658, 659, 660, 661, 662, 663, 664, 665, 666, 667, 668, 669, 670, 671, 672, 673, 674, 675, 676, 677, 678, 679, 680, 681, 682, 683, 684, 685, 686, 687, 688, 689, 690, 691, 692, 693, 694, 695, 696, 697, 698, 699, 700, 701, 702, 703, 704, 705, 706, 707, 708, 709, 710, 711, 712, 713, 714, 715, 716, 717, 718, 719, 720, 721, 722, 723, 724, 725, 726, 727, 728, 729, 730, 731, 732, 733, 734, 735, 736, 737, 738, 739, 740, 741, 742, 743, 744, 745, 746, 747, 748, 749, 750, 751, 752, 753, 754, 755, 756, 757, 758, 759, 760, 761, 762, 763, 764, 765, 766, 767, 768, 769, 770, 771, 772, 773, 774, 775, 776, 777, 778, 779, 780, 781, 782, 783, 784, 785, 786, 787, 788, 789, 790, 791, 792, 793, 794, 795, 796, 797, 798, 799, 800, 801, 802, 803, 804, 805, 806, 807, 808, 809, 810, 811, 812, 813, 814, 815, 816, 817, 818, 819, 820, 821, 822, 823, 824, 825, 826, 827, 828, 829, 830, 831, 832, 833, 834, 835, 836, 837, 838, 839, 840, 841, 842, 843, 844, 845, 846, 847, 848, 849, 850, 851, 852, 853, 854, 855, 856, 857, 858, 859, 860, 861, 862, 863, 864, 865, 866, 867, 868, 869, 870, 871, 872, 873, 874, 875, 876, 877, 878, 879, 880, 881, 882, 883, 884, 885, 886, 887, 888, 889, 890, 891, 892, 893, 894, 895, 896, 897, 898, 899, 900, 901, 902, 903, 904, 905, 906, 907, 908, 909, 910, 911, 912, 913, 914, 915, 916, 917, 918, 919, 920, 921, 922, 923, 924, 925, 926, 927, 928, 929, 930, 931, 932, 933, 934, 935, 936, 937, 938, 939, 940, 941, 942, 943, 944, 945, 946, 947, 948, 949, 950, 951, 952, 953, 954, 955, 956, 957, 958, 959, 960, 961, 962, 963, 964, 965, 966, 967, 968, 969, 970, 971, 972, 973, 974, 975, 976, 977, 978, 979, 980, 981, 982, 983, 984, 985, 986, 987, 988, 989, 990, 991, 992, 993, 994, 995, 996, 997, 998, 999, 1000, 1001, 1002, 1003, 1004, 1005, 1006, 1007, 1008, 1009, 1010, 1011, 1012, 1013, 1014, 1015, 1016, 1017, 1018, 1019, 1020, 1021, 1022, 1023, 1024, 1025, 1026, 1027, 1028, 1029, 1030, 1031, 1032, 1033, 1034, 1035, 1036, 1037, 1038, 1039, 1040, 1041, 1042, 1043, 1044, 1045, 1046, 1047, 1048, 1049, 1050, 1051, 1052, 1053, 1054, 1055, 1056, 1057, 1058, 1059, 1060, 1061, 1062, 1063, 1064, 1065, 1066, 1067, 1068, 1069, 1070],
      "AcquisitionTime": ["144248.757500", "144249.547500", "144250.335000", "144251.122500", "144251.910000", "144252.700000", "144253.487500", "144254.275000", "144255.062500", "144255.852500", "144256.640000", "144257.427500", "144258.215000", "144259.005000", "144259.792500", "144300.580000", "144301.370000", "144302.157500", "144302.945000", "144303.732500", "144304.522500", "144305.310000", "144306.097500", "144306.885000", "144307.675000", "144308.462500", "144309.250000", "144310.037500", "144310.827500", "144311.615000", "144312.402500", "144313.190000", "144313.980000", "144314.767500", "144315.555000", "144316.342500", "144317.132500", "144317.920000", "144318.707500", "144319.497500", "144320.285000", "144321.072500", "144321.860000", "144322.650000", "144323.437500", "144324.225000", "144325.012500", "144325.802500", "144326.590000", "144327.377500", "144328.165000", "144328.955000", "144329.742500", "144330.530000", "144331.317500", "144332.107500", "144332.895000", "144333.682500", "144334.470000", "144335.260000", "144336.047500", "144336.835000", "144337.625000", "144338.412500", "144339.200000", "144339.987500", "144340.777500", "144341.565000", "144342.352500", "144343.140000", "144343.930000", "144344.717500", "144345.505000", "144346.292500", "144347.082500", "144347.870000", "144348.657500", "144349.445000", "144350.235000", "144351.022500", "144351.810000", "144352.597500", "144353.387500", "144354.175000", "144354.962500", "144355.752500", "144356.540000", "144357.327500", "144358.115000", "144358.905000", "144359.692500", "144400.480000", "144401.267500", "144402.057500", "144402.845000", "144403.632500", "144404.420000", "144405.210000", "144405.997500", "144406.785000", "144407.572500", "144408.362500", "144409.150000", "144409.937500", "144410.727500", "144411.515000", "144412.302500", "144413.090000", "144413.880000", "144414.667500", "144415.455000", "144416.242500", "144417.032500", "144417.820000", "144418.607500", "144419.395000", "144420.185000", "144420.972500", "144421.760000", "144422.547500", "144423.337500", "144424.125000", "144424.912500", "144425.700000", "144426.490000", "144427.277500", "144428.065000", "144428.855000", "144429.642500", "144430.430000", "144431.217500", "144432.007500", "144432.795000", "144433.582500", "144434.370000", "144435.160000", "144435.947500", "144436.735000", "144437.522500", "144438.312500", "144439.100000", "144439.887500", "144440.675000", "144441.465000", "144442.252500", "144443.040000", "144443.827500", "144444.617500", "144445.405000", "144446.192500", "144446.982500", "144447.770000", "144448.557500", "144449.345000", "144450.135000", "144450.922500", "144451.710000", "144452.497500", "144453.287500", "144454.075000", "144454.862500", "144455.650000", "144456.440000", "144457.227500", "144458.015000", "144458.802500", "144459.592500", "144500.380000", "144501.167500", "144501.955000", "144502.745000", "144503.532500", "144504.320000", "144505.110000", "144505.897500", "144506.685000", "144507.472500", "144508.262500", "144509.050000", "144509.837500", "144510.625000", "144511.415000", "144512.202500", "144512.990000", "144513.777500", "144514.567500", "144515.355000", "144516.142500", "144516.930000", "144517.720000", "144518.507500", "144519.295000", "144520.082500", "144520.872500", "144521.660000", "144522.447500", "144523.237500", "144524.025000", "144524.812500", "144525.600000", "144526.390000", "144527.177500", "144527.965000", "144528.752500", "144529.542500", "144530.330000", "144531.117500", "144531.905000", "144532.695000", "144533.482500", "144534.270000", "144535.057500", "144535.847500", "144536.635000", "144537.422500", "144538.210000", "144539.000000", "144539.787500", "144540.575000", "144541.365000", "144542.152500", "144542.940000", "144543.727500", "144544.517500", "144545.305000", "144546.092500", "144546.880000", "144547.670000", "144548.457500", "144549.245000", "144550.032500", "144550.822500", "144551.610000", "144552.397500", "144553.185000", "144553.975000", "144554.762500", "144555.550000", "144556.337500", "144557.127500", "144557.915000", "144558.702500", "144559.492500", "144600.280000", "144601.067500", "144601.855000", "144602.645000", "144603.432500", "144604.220000", "144605.007500", "144605.797500", "144606.585000", "144607.372500", "144608.160000", "144608.950000", "144609.737500", "144610.525000", "144611.312500", "144612.102500", "144612.890000", "144613.677500", "144614.465000", "144615.255000", "144616.042500", "144616.830000", "144617.620000", "144618.407500", "144619.195000", "144619.982500", "144620.772500", "144621.560000", "144622.347500", "144623.135000", "144623.925000", "144624.712500", "144625.500000", "144626.287500", "144627.077500", "144627.865000", "144628.652500", "144629.440000", "144630.230000", "144631.017500", "144631.805000", "144632.592500", "144633.382500", "144634.170000", "144634.957500", "144635.747500", "144636.535000", "144637.322500", "144638.110000", "144638.900000", "144639.687500", "144640.475000", "144641.262500", "144642.052500", "144642.840000", "144643.627500", "144644.415000", "144645.205000", "144645.992500", "144646.780000", "144647.567500", "144648.357500", "144649.145000", "144649.932500", "144650.720000", "144651.510000", "144652.297500", "144653.085000", "144653.875000", "144654.662500", "144655.450000", "144656.237500", "144657.027500", "144657.815000", "144658.602500", "144659.390000", "144700.180000", "144700.967500", "144701.755000", "144702.542500", "144703.332500", "144704.120000", "144704.907500", "144705.695000", "144706.485000", "144707.272500", "144708.060000", "144708.847500", "144709.637500", "144710.425000", "144711.212500", "144712.002500", "144712.790000", "144713.577500", "144714.365000", "144715.155000", "144715.942500", "144716.730000", "144717.517500", "144718.307500", "144719.095000", "144719.882500", "144720.670000", "144721.460000", "144722.247500", "144723.035000", "144723.822500", "144724.612500", "144725.400000", "144726.187500", "144726.977500", "144727.765000", "144728.552500", "144729.340000", "144730.130000", "144730.917500", "144731.705000", "144732.492500", "144733.282500", "144734.070000", "144734.857500", "144735.645000", "144736.435000", "144737.222500", "144738.010000", "144738.797500", "144739.587500", "144740.375000", "144741.162500", "144741.950000", "144742.740000", "144743.527500", "144744.315000", "144745.105000", "144745.892500", "144746.680000", "144747.467500", "144748.257500", "144749.045000", "144749.832500", "144750.620000", "144751.410000", "144752.197500", "144752.985000", "144753.772500", "144754.562500", "144755.350000", "144756.137500", "144756.925000", "144757.715000", "144758.502500", "144759.290000", "144800.077500", "144800.867500", "144801.655000", "144802.442500", "144803.232500", "144804.020000", "144804.807500", "144805.595000", "144806.385000", "144807.172500", "144807.960000", "144808.747500", "144809.537500", "144810.325000", "144811.112500", "144811.900000", "144812.690000", "144813.477500", "144814.265000", "144815.052500", "144815.842500", "144816.630000", "144817.417500", "144818.205000", "144818.995000", "144819.782500", "144820.570000", "144821.360000", "144822.147500", "144822.935000", "144823.722500", "144824.512500", "144825.300000", "144826.087500", "144826.875000", "144827.665000", "144828.452500", "144829.240000", "144830.027500", "144830.817500", "144831.605000", "144832.392500", "144833.180000", "144833.970000", "144834.757500", "144835.545000", "144836.332500", "144837.122500", "144837.910000", "144838.697500", "144839.487500", "144840.275000", "144841.062500", "144841.850000", "144842.640000", "144843.427500", "144844.215000", "144845.002500", "144845.792500", "144846.580000", "144847.367500", "144848.155000", "144848.945000", "144849.732500", "144850.520000", "144851.307500", "144852.097500", "144852.885000", "144853.672500", "144854.460000", "144855.250000", "144856.037500", "144856.825000", "144857.615000", "144858.402500", "144859.190000", "144859.977500", "144900.767500", "144901.555000", "144902.342500", "144903.130000", "144903.920000", "144904.707500", "144905.495000", "144906.282500", "144907.072500", "144907.860000", "144908.647500", "144909.435000", "144910.225000", "144911.012500", "144911.800000", "144912.587500", "144913.377500", "144914.165000", "144914.952500", "144915.742500", "144916.530000", "144917.317500", "144918.105000", "144918.895000", "144919.682500", "144920.470000", "144921.257500", "144922.047500", "144922.835000", "144923.622500", "144924.410000", "144925.200000", "144925.987500", "144926.775000", "144927.562500", "144928.352500", "144929.140000", "144929.927500", "144930.715000", "144931.505000", "144932.292500", "144933.080000", "144933.870000", "144934.657500", "144935.445000", "144936.232500", "144937.022500", "144937.810000", "144938.597500", "144939.385000", "144940.175000", "144940.962500", "144941.750000", "144942.537500", "144943.327500", "144944.115000", "144944.902500", "144945.690000", "144946.480000", "144947.267500", "144948.055000", "144948.842500", "144949.632500", "144950.420000", "144951.207500", "144951.997500", "144952.785000", "144953.572500", "144954.360000", "144955.150000", "144955.937500", "144956.725000", "144957.512500", "144958.302500", "144959.090000", "144959.877500", "145000.665000", "145001.455000", "145002.242500", "145003.030000", "145003.817500", "145004.607500", "145005.395000", "145006.182500", "145006.970000", "145007.760000", "145008.547500", "145009.335000", "145010.125000", "145010.912500", "145011.700000", "145012.487500", "145013.277500", "145014.065000", "145014.852500", "145015.640000", "145016.430000", "145017.217500", "145018.005000", "145018.792500", "145019.582500", "145020.370000", "145021.157500", "145021.945000", "145022.735000", "145023.522500", "145024.310000", "145025.097500", "145025.887500", "145026.675000", "145027.462500", "145028.252500", "145029.040000", "145029.827500", "145030.615000", "145031.405000", "145032.192500", "145032.980000", "145033.767500", "145034.557500", "145035.345000", "145036.132500", "145036.920000", "145037.710000", "145038.497500", "145039.285000", "145040.072500", "145040.862500", "145041.650000", "145042.437500", "145043.227500", "145044.015000", "145044.802500", "145045.590000", "145046.380000", "145047.167500", "145047.955000", "145048.742500", "145049.532500", "145050.320000", "145051.107500", "145051.895000", "145052.685000", "145053.472500", "145054.260000", "145055.047500", "145055.837500", "145056.625000", "145057.412500", "145058.200000", "145058.990000", "145059.777500", "145100.565000", "145101.355000", "145102.142500", "145102.930000", "145103.717500", "145104.507500", "145105.295000", "145106.082500", "145106.870000", "145107.660000", "145108.447500", "145109.235000", "145110.022500", "145110.812500", "145111.600000", "145112.387500", "145113.175000", "145113.965000", "145114.752500", "145115.540000", "145116.327500", "145117.117500", "145117.905000", "145118.692500", "145119.482500", "145120.270000", "145121.057500", "145121.845000", "145122.635000", "145123.422500", "145124.210000", "145124.997500", "145125.787500", "145126.575000", "145127.362500", "145128.150000", "145128.940000", "145129.727500", "145130.515000", "145131.302500", "145132.092500", "145132.880000", "145133.667500", "145134.455000", "145135.245000", "145136.032500", "145136.820000", "145137.610000", "145138.397500", "145139.185000", "145139.972500", "145140.762500", "145141.550000", "145142.337500", "145143.125000", "145143.915000", "145144.702500", "145145.490000", "145146.277500", "145147.067500", "145147.855000", "145148.642500", "145149.430000", "145150.220000", "145151.007500", "145151.795000", "145152.582500", "145153.372500", "145154.160000", "145154.947500", "145155.737500", "145156.525000", "145157.312500", "145158.100000", "145158.890000", "145159.677500", "145200.465000", "145201.252500", "145202.042500", "145202.830000", "145203.617500", "145204.405000", "145205.195000", "145205.982500", "145206.770000", "145207.557500", "145208.347500", "145209.135000", "145209.922500", "145210.710000", "145211.500000", "145212.287500", "145213.075000", "145213.865000", "145214.652500", "145215.440000", "145216.227500", "145217.017500", "145217.805000", "145218.592500", "145219.380000", "145220.170000", "145220.957500", "145221.745000", "145222.532500", "145223.322500", "145224.110000", "145224.897500", "145225.685000", "145226.475000", "145227.262500", "145228.050000", "145228.837500", "145229.627500", "145230.415000", "145231.202500", "145231.992500", "145232.780000", "145233.567500", "145234.355000", "145235.145000", "145235.932500", "145236.720000", "145237.507500", "145238.297500", "145239.085000", "145239.872500", "145240.660000", "145241.450000", "145242.237500", "145243.025000", "145243.812500", "145244.602500", "145245.390000", "145246.177500", "145246.965000", "145247.755000", "145248.542500", "145249.330000", "145250.120000", "145250.907500", "145251.695000", "145252.482500", "145253.272500", "145254.060000", "145254.847500", "145255.635000", "145256.425000", "145257.212500", "145258.000000", "145258.787500", "145259.577500", "145300.365000", "145301.152500", "145301.940000", "145302.730000", "145303.517500", "145304.305000", "145305.092500", "145305.882500", "145306.670000", "145307.457500", "145308.247500", "145309.035000", "145309.822500", "145310.610000", "145311.400000", "145312.187500", "145312.975000", "145313.762500", "145314.552500", "145315.340000", "145316.127500", "145316.915000", "145317.705000", "145318.492500", "145319.280000", "145320.067500", "145320.857500", "145321.645000", "145322.432500", "145323.220000", "145324.010000", "145324.797500", "145325.585000", "145326.375000", "145327.162500", "145327.950000", "145328.737500", "145329.527500", "145330.315000", "145331.102500", "145331.890000", "145332.680000", "145333.467500", "145334.255000", "145335.042500", "145335.832500", "145336.620000", "145337.407500", "145338.195000", "145338.985000", "145339.772500", "145340.560000", "145341.347500", "145342.137500", "145342.925000", "145343.712500", "145344.502500", "145345.290000", "145346.077500", "145346.865000", "145347.655000", "145348.442500", "145349.230000", "145350.017500", "145350.807500", "145351.595000", "145352.382500", "145353.170000", "145353.960000", "145354.747500", "145355.535000", "145356.322500", "145357.112500", "145357.900000", "145358.687500", "145359.477500", "145400.265000", "145401.052500", "145401.840000", "145402.630000", "145403.417500", "145404.205000", "145404.992500", "145405.782500", "145406.570000", "145407.357500", "145408.145000", "145408.935000", "145409.722500", "145410.510000", "145411.297500", "145412.087500", "145412.875000", "145413.662500", "145414.450000", "145415.240000", "145416.027500", "145416.815000", "145417.605000", "145418.392500", "145419.180000", "145419.967500", "145420.757500", "145421.545000", "145422.332500", "145423.120000", "145423.910000", "145424.697500", "145425.485000", "145426.272500", "145427.062500", "145427.850000", "145428.637500", "145429.425000", "145430.215000", "145431.002500", "145431.790000", "145432.577500", "145433.367500", "145434.155000", "145434.942500", "145435.732500", "145436.520000", "145437.307500", "145438.095000", "145438.885000", "145439.672500", "145440.460000", "145441.247500", "145442.037500", "145442.825000", "145443.612500", "145444.400000", "145445.190000", "145445.977500", "145446.765000", "145447.552500", "145448.342500", "145449.130000", "145449.917500", "145450.705000", "145451.495000", "145452.282500", "145453.070000", "145453.860000", "145454.647500", "145455.435000", "145456.222500", "145457.012500", "145457.800000", "145458.587500", "145459.375000", "145500.165000", "145500.952500", "145501.740000", "145502.527500", "145503.317500", "145504.105000", "145504.892500", "145505.680000", "145506.470000", "145507.257500", "145508.045000", "145508.832500", "145509.622500", "145510.410000", "145511.197500", "145511.987500", "145512.775000", "145513.562500", "145514.350000", "145515.140000", "145515.927500", "145516.715000", "145517.502500", "145518.292500", "145519.080000", "145519.867500", "145520.655000", "145521.445000", "145522.232500", "145523.020000", "145523.807500", "145524.597500", "145525.385000", "145526.172500", "145526.960000", "145527.750000", "145528.537500", "145529.325000", "145530.115000", "145530.902500", "145531.690000", "145532.477500", "145533.267500", "145534.055000", "145534.842500", "145535.630000", "145536.420000", "145537.207500", "145537.995000", "145538.782500", "145539.572500", "145540.360000", "145541.147500", "145541.935000", "145542.725000", "145543.512500", "145544.300000", "145545.087500", "145545.877500", "145546.665000", "145547.452500", "145548.242500", "145549.030000", "145549.817500", "145550.605000", "145551.395000", "145552.182500", "145552.970000", "145553.757500", "145554.547500", "145555.335000", "145556.122500", "145556.910000", "145557.700000", "145558.487500", "145559.275000", "145600.062500", "145600.852500", "145601.640000", "145602.427500", "145603.215000", "145604.005000", "145604.792500", "145605.580000", "145606.370000", "145607.157500", "145607.945000", "145608.732500", "145609.522500", "145610.310000", "145611.097500", "145611.885000", "145612.675000", "145613.462500", "145614.250000", "145615.037500", "145615.827500", "145616.615000", "145617.402500", "145618.190000", "145618.980000", "145619.767500", "145620.555000", "145621.342500", "145622.132500", "145622.920000", "145623.707500", "145624.497500", "145625.285000", "145626.072500", "145626.860000", "145627.650000", "145628.437500", "145629.225000", "145630.012500", "145630.802500", "145631.590000", "145632.377500", "145633.165000", "145633.955000", "145634.742500", "145635.530000", "145636.317500", "145637.107500", "145637.895000", "145638.682500", "145639.470000", "145640.260000", "145641.047500", "145641.835000", "145642.625000", "145643.412500", "145644.200000", "145644.987500", "145645.777500", "145646.565000", "145647.352500", "145648.140000", "145648.930000", "145649.717500", "145650.505000", "145651.292500"],
