{
  "AcquisitionMatrixPE": 104,
  "AcquisitionNumber": 1,
  "AcquisitionTime": "15:31:16.775000",
  "BandwidthPerPixelPhaseEncode": 13.935,
  "BaseResolution": 104,
  "CoilString": "C:HEA;HEP",
  "ConversionSoftware": "dcm2niix",
  "ConversionSoftwareVersion": "v1.0.20210317",
  "DerivedVendorReportedEchoSpacing": 0.000690017,
  "DeviceSerialNumber": "35450",
  "DwellTime": 2.5e-06,
  "EchoTime": 0.0348,
  "EffectiveEchoSpacing": 0.000690017,
  "FlipAngle": 55,
  "ImageComments": "Unaliased MB8/PE3 (remote)",
  "ImageOrientationPatientDICOM": [0.999935, -0.0012935, -0.0113533, -8.93079e-09, 0.993572, -0.1132],
  "ImageType": [
    "ORIGINAL",
    "PRIMARY",
    "M",
    "MB",
    "ND",
    "MOSAIC"
],
  "ImagingFrequency": 123.235,
  "InPlanePhaseEncodingDirectionDICOM": "COL",
  "InstitutionAddress": "Univeristy Ave. 197,Newark,North East,US,07102-1814",
  "InstitutionName": "RUBIC",
  "InstitutionalDepartmentName": "Department",
  "MRAcquisitionType": "2D",
  "MagneticFieldStrength": 3,
  "Manufacturer": "Siemens",
  "ManufacturersModelName": "TrioTim",
  "Modality": "MR",
  "MultibandAccelerationFactor": 8,
  "PartialFourier": 0.875,
  "PatientPosition": "HFS",
  "PercentPhaseFOV": 100,
  "PercentSampling": 100,
  "PhaseEncodingDirection": "j-",
  "PhaseEncodingSteps": 91,
  "PhaseResolution": 1,
  "PixelBandwidth": 1923,
  "ProcedureStepDescription": "Cole^Michael",
  "ProtocolName": "cmrr_mbep2d_bold_2mm_MB8_Task_8x",
  "PulseSequenceDetails": "%CustomerSeq%\\cmrr_mbep2d_bold",
  "ReceiveCoilName": "32Ch_Head",
  "ReconMatrixPE": 104,
  "RepetitionTime": 0.785,
  "SAR": 0.15084,
  "ScanOptions": "PFP\\FS",
  "ScanningSequence": "EP",
  "SequenceName": "epfid2d1_104",
  "SequenceVariant": "SK\\SS",
  "SeriesDescription": "cmrr_mbep2d_bold_2mm_MB8_Task_8x",
  "SeriesNumber": 19,
  "ShimSetting": [2089, -434, -7278, 644, -91, -205, -7, -64],
  "SliceThickness": 2,
  "SliceTiming": [0, 0.4375, 0.0875, 0.525, 0.175, 0.6125, 0.2625, 0.7, 0.35, 0, 0.4375, 0.0875, 0.525, 0.175, 0.6125, 0.2625, 0.7, 0.35, 0, 0.4375, 0.0875, 0.525, 0.175, 0.6125, 0.2625, 0.7, 0.35, 0, 0.4375, 0.0875, 0.525, 0.175, 0.6125, 0.2625, 0.7, 0.35, 0, 0.4375, 0.0875, 0.525, 0.175, 0.6125, 0.2625, 0.7, 0.35, 0, 0.4375, 0.0875, 0.525, 0.175, 0.6125, 0.2625, 0.7, 0.35, 0, 0.4375, 0.0875, 0.525, 0.175, 0.6125, 0.2625, 0.7, 0.35, 0, 0.4375, 0.0875, 0.525, 0.175, 0.6125, 0.2625, 0.7, 0.35],
  "SoftwareVersions": "syngo MR B19",
  "SpacingBetweenSlices": 2,
  "StationName": "MRC35450",
  "TaskName": "cpro",
  "TotalReadoutTime": 0.0710717,
  "TxRefAmp": 341.118,
  "dcmmeta_affine": [
    [-1.999869465827942, -1.786158954075745e-08, -0.022853493690490723, 106.18873596191406],
    [0.0025869966484606266, 1.9871444702148438, -0.22638513147830963, -77.83424377441406],
    [-0.02270659990608692, 0.22639989852905273, 1.9870147705078125, -112.12376403808594],
    [0.0, 0.0, 0.0, 1.0]
],
  "dcmmeta_reorient_transform": [
    [0.0, -1.0, 0.0, 103.0],
    [1.0, 0.0, 0.0, 0.0],
    [0.0, 0.0, 1.0, 0.0],
    [0.0, 0.0, 0.0, 1.0]
],
  "dcmmeta_shape": [104, 104, 72, 581],
  "dcmmeta_slice_dim": 2,
  "dcmmeta_version": 0.6,
  "global": {
    "const": {
      "AcquisitionMatrix": [104, 0, 0, 104],
      "AngioFlag": "N",
      "BitsAllocated": 16,
      "BitsStored": 12,
      "Columns": 936,
      "EchoNumbers": 1,
      "EchoTime": 34.8,
      "EchoTrainLength": 1,
      "FlipAngle": 55.0,
      "HighBit": 11,
      "ImageOrientationPatient": [0.9999347125934, -0.0012934983654, -0.0113532996412, -8.930795e-09, 0.99357222722644, -0.1131999526691],
      "ImagePositionPatient": [-938.13441018176, -952.41753781221, 14.823734116093],
      "ImageType": [
        "ORIGINAL",
        "PRIMARY",
        "M",
        "MB",
        "ND",
        "MOSAIC"
],
      "ImagedNucleus": "1H",
      "ImagingFrequency": 123.234521,
      "InPlanePhaseEncodingDirection": "COL",
      "MRAcquisitionType": "2D",
      "MagneticFieldStrength": 3.0,
      "Manufacturer": "SIEMENS",
      "ManufacturerModelName": "TrioTim",
      "Modality": "MR",
      "NumberOfAverages": 1.0,
      "NumberOfPhaseEncodingSteps": 91,
      "PercentPhaseFieldOfView": 100.0,
      "PercentSampling": 100.0,
      "PerformedProcedureStepStartTime": "135217.078000",
      "PhotometricInterpretation": "MONOCHROME2",
      "PixelBandwidth": 1923.0,
      "PixelRepresentation": 0,
      "PixelSpacing": [2.0, 2.0],
      "ProtocolName": "cmrr_mbep2d_bold_2mm_MB8_Task_8x",
      "RepetitionTime": 785.0,
      "Rows": 936,
      "SAR": 0.15083981697198,
      "SamplesPerPixel": 1,
      "ScanOptions": [
        "PFP",
        "FS"
],
      "ScanningSequence": "EP",
      "SequenceName": "epfid2d1_104",
      "SequenceVariant": [
        "SK",
        "SS"
],
      "SeriesDescription": "cmrr_mbep2d_bold_2mm_MB8_Task_8x",
      "SeriesNumber": 19,
      "SeriesTime": "153138.640000",
      "SliceLocation": -103.79891719905,
      "SliceThickness": 2.0,
      "SmallestImagePixelValue": 0,
      "SoftwareVersions": "syngo MR B19",
      "SpacingBetweenSlices": 1.9999999969701,
      "SpecificCharacterSet": "ISO_IR 100",
      "StudyID": "1",
      "StudyTime": "135217.031000",
      "TransmitCoilName": "Body",
      "VariableFlipAngleFlag": "N",
      "WindowCenterWidthExplanation": "Algo1",
      "dBdt": 0.0},
    "slices": {}
  },
  "time": {
    "samples": {
      "AcquisitionNumber": [1, 2, 3, 4, 5, 6, 7, 8, 9, 10, 11, 12, 13, 14, 15, 16, 17, 18, 19, 20, 21, 22, 23, 24, 25, 26, 27, 28, 29, 30, 31, 32, 33, 34, 35, 36, 37, 38, 39, 40, 41, 42, 43, 44, 45, 46, 47, 48, 49, 50, 51, 52, 53, 54, 55, 56, 57, 58, 59, 60, 61, 62, 63, 64, 65, 66, 67, 68, 69, 70, 71, 72, 73, 74, 75, 76, 77, 78, 79, 80, 81, 82, 83, 84, 85, 86, 87, 88, 89, 90, 91, 92, 93, 94, 95, 96, 97, 98, 99, 100, 101, 102, 103, 104, 105, 106, 107, 108, 109, 110, 111, 112, 113, 114, 115, 116, 117, 118, 119, 120, 121, 122, 123, 124, 125, 126, 127, 128, 129, 130, 131, 132, 133, 134, 135, 136, 137, 138, 139, 140, 141, 142, 143, 144, 145, 146, 147, 148, 149, 150, 151, 152, 153, 154, 155, 156, 157, 158, 159, 160, 161, 162, 163, 164, 165, 166, 167, 168, 169, 170, 171, 172, 173, 174, 175, 176, 177, 178, 179, 180, 181, 182, 183, 184, 185, 186, 187, 188, 189, 190, 191, 192, 193, 194, 195, 196, 197, 198, 199, 200, 201, 202, 203, 204, 205, 206, 207, 208, 209, 210, 211, 212, 213, 214, 215, 216, 217, 218, 219, 220, 221, 222, 223, 224, 225, 226, 227, 228, 229, 230, 231, 232, 233, 234, 235, 236, 237, 238, 239, 240, 241, 242, 243, 244, 245, 246, 247, 248, 249, 250, 251, 252, 253, 254, 255, 256, 257, 258, 259, 260, 261, 262, 263, 264, 265, 266, 267, 268, 269, 270, 271, 272, 273, 274, 275, 276, 277, 278, 279, 280, 281, 282, 283, 284, 285, 286, 287, 288, 289, 290, 291, 292, 293, 294, 295, 296, 297, 298, 299, 300, 301, 302, 303, 304, 305, 306, 307, 308, 309, 310, 311, 312, 313, 314, 315, 316, 317, 318, 319, 320, 321, 322, 323, 324, 325, 326, 327, 328, 329, 330, 331, 332, 333, 334, 335, 336, 337, 338, 339, 340, 341, 342, 343, 344, 345, 346, 347, 348, 349, 350, 351, 352, 353, 354, 355, 356, 357, 358, 359, 360, 361, 362, 363, 364, 365, 366, 367, 368, 369, 370, 371, 372, 373, 374, 375, 376, 377, 378, 379, 380, 381, 382, 383, 384, 385, 386, 387, 388, 389, 390, 391, 392, 393, 394, 395, 396, 397, 398, 399, 400, 401, 402, 403, 404, 405, 406, 407, 408, 409, 410, 411, 412, 413, 414, 415, 416, 417, 418, 419, 420, 421, 422, 423, 424, 425, 426, 427, 428, 429, 430, 431, 432, 433, 434, 435, 436, 437, 438, 439, 440, 441, 442, 443, 444, 445, 446, 447, 448, 449, 450, 451, 452, 453, 454, 455, 456, 457, 458, 459, 460, 461, 462, 463, 464, 465, 466, 467, 468, 469, 470, 471, 472, 473, 474, 475, 476, 477, 478, 479, 480, 481, 482, 483, 484, 485, 486, 487, 488, 489, 490, 491, 492, 493, 494, 495, 496, 497, 498, 499, 500, 501, 502, 503, 504, 505, 506, 507, 508, 509, 510, 511, 512, 513, 514, 515, 516, 517, 518, 519, 520, 521, 522, 523, 524, 525, 526, 527, 528, 529, 530, 531, 532, 533, 534, 535, 536, 537, 538, 539, 540, 541, 542, 543, 544, 545, 546, 547, 548, 549, 550, 551, 552, 553, 554, 555, 556, 557, 558, 559, 560, 561, 562, 563, 564, 565, 566, 567, 568, 569, 570, 571, 572, 573, 574, 575, 576, 577, 578, 579, 580, 581],
      "AcquisitionTime": ["153116.775000", "153117.562500", "153118.350000", "153119.137500", "153119.927500", "153120.715000", "153121.502500", "153122.290000", "153123.080000", "153123.867500", "153124.655000", "153125.442500", "153126.232500", "153127.020000", "153127.807500", "153128.595000", "153129.385000", "153130.172500", "153130.960000", "153131.747500", "153132.537500", "153133.325000", "153134.112500", "153134.902500", "153135.690000", "153136.477500", "153137.265000", "153138.055000", "153138.842500", "153139.630000", "153140.417500", "153141.207500", "153141.995000", "153142.782500", "153143.570000", "153144.360000", "153145.147500", "153145.935000", "153146.722500", "153147.512500", "153148.300000", "153149.087500", "153149.875000", "153150.665000", "153151.452500", "153152.240000", "153153.030000", "153153.817500", "153154.605000", "153155.392500", "153156.182500", "153156.970000", "153157.757500", "153158.545000", "153159.335000", "153200.122500", "153200.910000", "153201.697500", "153202.487500", "153203.275000", "153204.062500", "153204.850000", "153205.640000", "153206.427500", "153207.215000", "153208.002500", "153208.792500", "153209.580000", "153210.367500", "153211.157500", "153211.945000", "153212.732500", "153213.520000", "153214.310000", "153215.097500", "153215.885000", "153216.672500", "153217.462500", "153218.250000", "153219.037500", "153219.825000", "153220.615000", "153221.402500", "153222.190000", "153222.977500", "153223.767500", "153224.555000", "153225.342500", "153226.130000", "153226.920000", "153227.707500", "153228.495000", "153229.285000", "153230.072500", "153230.860000", "153231.647500", "153232.437500", "153233.225000", "153234.012500", "153234.800000", "153235.590000", "153236.377500", "153237.165000", "153237.952500", "153238.742500", "153239.530000", "153240.317500", "153241.105000", "153241.895000", "153242.682500", "153243.470000", "153244.257500", "153245.047500", "153245.835000", "153246.622500", "153247.412500", "153248.200000", "153248.987500", "153249.775000", "153250.565000", "153251.352500", "153252.140000", "153252.927500", "153253.717500", "153254.505000", "153255.292500", "153256.080000", "153256.870000", "153257.657500", "153258.445000", "153259.232500", "153300.022500", "153300.810000", "153301.597500", "153302.385000", "153303.175000", "153303.962500", "153304.750000", "153305.540000", "153306.327500", "153307.115000", "153307.902500", "153308.692500", "153309.480000", "153310.267500", "153311.055000", "153311.845000", "153312.632500", "153313.420000", "153314.207500", "153314.997500", "153315.785000", "153316.572500", "153317.360000", "153318.150000", "153318.937500", "153319.725000", "153320.512500", "153321.302500", "153322.090000", "153322.877500", "153323.667500", "153324.455000", "153325.242500", "153326.030000", "153326.820000", "153327.607500", "153328.395000", "153329.182500", "153329.972500", "153330.760000", "153331.547500", "153332.335000", "153333.125000", "153333.912500", "153334.700000", "153335.487500", "153336.277500", "153337.065000", "153337.852500", "153338.642500", "153339.430000", "153340.217500", "153341.005000", "153341.795000", "153342.582500", "153343.370000", "153344.157500", "153344.947500", "153345.735000", "153346.522500", "153347.310000", "153348.100000", "153348.887500", "153349.675000", "153350.462500", "153351.252500", "153352.040000", "153352.827500", "153353.615000", "153354.405000", "153355.192500", "153355.980000", "153356.770000", "153357.557500", "153358.345000", "153359.132500", "153359.922500", "153400.710000", "153401.497500", "153402.285000", "153403.075000", "153403.862500", "153404.650000", "153405.437500", "153406.227500", "153407.015000", "153407.802500", "153408.590000", "153409.380000", "153410.167500", "153410.955000", "153411.742500", "153412.532500", "153413.320000", "153414.107500", "153414.897500", "153415.685000", "153416.472500", "153417.260000", "153418.050000", "153418.837500", "153419.625000", "153420.412500", "153421.202500", "153421.990000", "153422.777500", "153423.565000", "153424.355000", "153425.142500", "153425.930000", "153426.717500", "153427.507500", "153428.295000", "153429.082500", "153429.870000", "153430.660000", "153431.447500", "153432.235000", "153433.025000", "153433.812500", "153434.600000", "153435.387500", "153436.177500", "153436.965000", "153437.752500", "153438.540000", "153439.330000", "153440.117500", "153440.905000", "153441.692500", "153442.482500", "153443.270000", "153444.057500", "153444.845000", "153445.635000", "153446.422500", "153447.210000", "153447.997500", "153448.787500", "153449.575000", "153450.362500", "153451.152500", "153451.940000", "153452.727500", "153453.515000", "153454.305000", "153455.092500", "153455.880000", "153456.667500", "153457.457500", "153458.245000", "153459.032500", "153459.820000", "153500.610000", "153501.397500", "153502.185000", "153502.972500", "153503.762500", "153504.550000", "153505.337500", "153506.125000", "153506.915000", "153507.702500", "153508.490000", "153509.280000", "153510.067500", "153510.855000", "153511.642500", "153512.432500", "153513.220000", "153514.007500", "153514.795000", "153515.585000", "153516.372500", "153517.160000", "153517.947500", "153518.737500", "153519.525000", "153520.312500", "153521.100000", "153521.890000", "153522.677500", "153523.465000", "153524.252500", "153525.042500", "153525.830000", "153526.617500", "153527.407500", "153528.195000", "153528.982500", "153529.770000", "153530.560000", "153531.347500", "153532.135000", "153532.922500", "153533.712500", "153534.500000", "153535.287500", "153536.075000", "153536.865000", "153537.652500", "153538.440000", "153539.227500", "153540.017500", "153540.805000", "153541.592500", "153542.380000", "153543.170000", "153543.957500", "153544.745000", "153545.535000", "153546.322500", "153547.110000", "153547.897500", "153548.687500", "153549.475000", "153550.262500", "153551.050000", "153551.840000", "153552.627500", "153553.415000", "153554.202500", "153554.992500", "153555.780000", "153556.567500", "153557.355000", "153558.145000", "153558.932500", "153559.720000", "153600.507500", "153601.297500", "153602.085000", "153602.872500", "153603.662500", "153604.450000", "153605.237500", "153606.025000", "153606.815000", "153607.602500", "153608.390000", "153609.177500", "153609.967500", "153610.755000", "153611.542500", "153612.330000", "153613.120000", "153613.907500", "153614.695000", "153615.482500", "153616.272500", "153617.060000", "153617.847500", "153618.635000", "153619.425000", "153620.212500", "153621.000000", "153621.790000", "153622.577500", "153623.365000", "153624.152500", "153624.942500", "153625.730000", "153626.517500", "153627.305000", "153628.095000", "153628.882500", "153629.670000", "153630.457500", "153631.247500", "153632.035000", "153632.822500", "153633.610000", "153634.400000", "153635.187500", "153635.975000", "153636.762500", "153637.552500", "153638.340000", "153639.127500", "153639.917500", "153640.705000", "153641.492500", "153642.280000", "153643.070000", "153643.857500", "153644.645000", "153645.432500", "153646.222500", "153647.010000", "153647.797500", "153648.585000", "153649.375000", "153650.162500", "153650.950000", "153651.737500", "153652.527500", "153653.315000", "153654.102500", "153654.892500", "153655.680000", "153656.467500", "153657.255000", "153658.045000", "153658.832500", "153659.620000", "153700.407500", "153701.197500", "153701.985000", "153702.772500", "153703.560000", "153704.350000", "153705.137500", "153705.925000", "153706.712500", "153707.502500", "153708.290000", "153709.077500", "153709.865000", "153710.655000", "153711.442500", "153712.230000", "153713.020000", "153713.807500", "153714.595000", "153715.382500", "153716.172500", "153716.960000", "153717.747500", "153718.535000", "153719.325000", "153720.112500", "153720.900000", "153721.687500", "153722.477500", "153723.265000", "153724.052500", "153724.840000", "153725.630000", "153726.417500", "153727.205000", "153727.992500", "153728.782500", "153729.570000", "153730.357500", "153731.147500", "153731.935000", "153732.722500", "153733.510000", "153734.300000", "153735.087500", "153735.875000", "153736.662500", "153737.452500", "153738.240000", "153739.027500", "153739.815000", "153740.605000", "153741.392500", "153742.180000", "153742.967500", "153743.757500", "153744.545000", "153745.332500", "153746.120000", "153746.910000", "153747.697500", "153748.485000", "153749.275000", "153750.062500", "153750.850000", "153751.637500", "153752.427500", "153753.215000", "153754.002500", "153754.790000", "153755.580000", "153756.367500", "153757.155000", "153757.942500", "153758.732500", "153759.520000", "153800.307500", "153801.095000", "153801.885000", "153802.672500", "153803.460000", "153804.247500", "153805.037500", "153805.825000", "153806.612500", "153807.402500", "153808.190000", "153808.977500", "153809.765000", "153810.555000", "153811.342500", "153812.130000", "153812.917500", "153813.707500", "153814.495000", "153815.282500", "153816.070000", "153816.860000", "153817.647500", "153818.435000", "153819.222500", "153820.012500", "153820.800000", "153821.587500", "153822.375000", "153823.165000", "153823.952500", "153824.740000", "153825.530000", "153826.317500", "153827.105000", "153827.892500", "153828.682500", "153829.470000", "153830.257500", "153831.045000", "153831.835000", "153832.622500", "153833.410000", "153834.197500", "153834.987500", "153835.775000", "153836.562500", "153837.350000", "153838.140000", "153838.927500", "153839.715000", "153840.502500", "153841.292500", "153842.080000", "153842.867500", "153843.657500", "153844.445000", "153845.232500", "153846.020000", "153846.810000", "153847.597500", "153848.385000", "153849.172500", "153849.962500", "153850.750000", "153851.537500", "153852.325000", "153853.115000", "153853.902500"],
      "ContentTime": ["153138.640000", "153138.640000", "153138.640000", "153138.640000", "153138.640000", "153138.640000", "153138.640000", "153138.656000", "153138.656000", "153138.656000", "153138.656000", "153138.656000", "153138.656000", "153138.671000", "153138.671000", "153138.671000", "153138.671000", "153138.671000", "153138.671000", "153138.671000", "153138.671000", "153138.687000", "153138.687000", "153138.687000", "153138.687000", "153158.609000", "153158.609000", "153158.609000", "153158.609000", "153158.609000", "153158.625000", "153158.625000", "153158.625000", "153158.625000", "153158.625000", "153158.625000", "153158.625000", "153158.625000", "153158.640000", "153158.640000", "153158.640000", "153158.640000", "153158.640000", "153158.640000", "153158.640000", "153158.656000", "153158.656000", "153158.656000", "153158.656000", "153158.656000", "153158.656000", "153218.609000", "153218.609000", "153218.609000", "153218.609000", "153218.609000", "153218.625000", "153218.625000", "153218.625000", "153218.625000", "153218.625000", "153218.625000", "153218.625000", "153218.640000", "153218.640000", "153218.640000", "153218.640000", "153218.640000", "153218.640000", "153218.640000", "153218.656000", "153218.656000", "153218.656000", "153218.656000", "153218.656000", "153218.656000", "153238.609000", "153238.609000", "153238.609000", "153238.609000", "153238.609000", "153238.625000", "153238.625000", "153238.625000", "153238.625000", "153238.625000", "153238.625000", "153238.625000", "153238.625000", "153238.640000", "153238.640000", "153238.640000", "153238.640000", "153238.640000", "153238.640000", "153238.656000", "153238.656000", "153238.656000", "153238.656000", "153238.656000", "153238.656000", "153238.656000", "153258.609000", "153258.609000", "153258.609000", "153258.609000", "153258.625000", "153258.625000", "153258.625000", "153258.625000", "153258.625000", "153258.625000", "153258.625000", "153258.640000", "153258.640000", "153258.640000", "153258.640000", "153258.640000", "153258.640000", "153258.640000", "153258.656000", "153258.656000", "153258.656000", "153258.656000", "153258.656000", "153258.656000", "153258.671000", "153318.609000", "153318.609000", "153318.609000", "153318.609000", "153318.625000", "153318.625000", "153318.625000", "153318.625000", "153318.625000", "153318.625000", "153318.625000", "153318.640000", "153318.640000", "153318.640000", "153318.640000", "153318.640000", "153318.656000", "153318.656000", "153318.656000", "153318.656000", "153318.656000", "153318.656000", "153318.656000", "153318.671000", "153318.671000", "153318.671000", "153338.609000", "153338.609000", "153338.609000", "153338.609000", "153338.609000", "153338.625000", "153338.625000", "153338.625000", "153338.625000", "153338.625000", "153338.625000", "153338.625000", "153338.625000", "153338.640000", "153338.640000", "153338.640000", "153338.640000", "153338.640000", "153338.640000", "153338.640000", "153338.656000", "153338.656000", "153338.656000", "153338.656000", "153338.656000", "153358.609000", "153358.609000", "153358.609000", "153358.609000", "153358.609000", "153358.625000", "153358.625000", "153358.625000", "153358.625000", "153358.625000", "153358.625000", "153358.625000", "153358.640000", "153358.640000", "153358.640000", "153358.640000", "153358.640000", "153358.640000", "153358.640000", "153358.656000", "153358.656000", "153358.656000", "153358.656000", "153358.656000", "153358.656000", "153358.671000", "153418.609000", "153418.609000", "153418.609000", "153418.609000", "153418.609000", "153418.609000", "153418.625000", "153418.625000", "153418.625000", "153418.625000", "153418.625000", "153418.625000", "153418.625000", "153418.640000", "153418.640000", "153418.640000", "153418.640000", "153418.640000", "153418.640000", "153418.640000", "153418.656000", "153418.656000", "153418.656000", "153418.656000", "153418.656000", "153438.609000", "153438.609000", "153438.609000", "153438.609000", "153438.609000", "153438.625000", "153438.625000", "153438.625000", "153438.625000", "153438.625000", "153438.625000", "153438.625000", "153438.625000", "153438.640000", "153438.640000", "153438.640000", "153438.640000", "153438.656000", "153438.656000", "153438.656000", "153438.656000", "153438.656000", "153438.656000", "153438.656000", "153438.656000", "153458.609000", "153458.609000", "153458.609000", "153458.609000", "153458.609000", "153458.625000", "153458.625000", "153458.625000", "153458.625000", "153458.625000", "153458.625000", "153458.625000", "153458.625000", "153458.640000", "153458.640000", "153458.640000", "153458.640000", "153458.640000", "153458.640000", "153458.640000", "153458.656000", "153458.656000", "153458.656000", "153458.656000", "153458.656000", "153458.656000", "153518.609000", "153518.609000", "153518.609000", "153518.609000", "153518.609000", "153518.625000", "153518.625000", "153518.625000", "153518.625000", "153518.625000", "153518.625000", "153518.640000", "153518.640000", "153518.640000", "153518.640000", "153518.640000", "153518.640000", "153518.640000", "153518.656000", "153518.656000", "153518.656000", "153518.656000", "153518.671000", "153518.671000", "153518.671000", "153538.609000", "153538.609000", "153538.609000", "153538.609000", "153538.609000", "153538.625000", "153538.625000", "153538.625000", "153538.625000", "153538.625000", "153538.625000", "153538.625000", "153538.625000", "153538.640000", "153538.640000", "153538.640000", "153538.640000", "153538.640000", "153538.640000", "153538.640000", "153538.656000", "153538.656000", "153538.656000", "153538.656000", "153538.656000", "153538.671000", "153558.609000", "153558.609000", "153558.609000", "153558.609000", "153558.609000", "153558.625000", "153558.625000", "153558.625000", "153558.625000", "153558.625000", "153558.625000", "153558.625000", "153558.625000", "153558.640000", "153558.640000", "153558.640000", "153558.640000", "153558.640000", "153558.640000", "153558.640000", "153558.656000", "153558.656000", "153558.656000", "153558.656000", "153558.656000", "153618.609000", "153618.609000", "153618.609000", "153618.609000", "153618.609000", "153618.625000", "153618.625000", "153618.625000", "153618.625000", "153618.625000", "153618.625000", "153618.625000", "153618.625000", "153618.640000", "153618.640000", "153618.640000", "153618.640000", "153618.640000", "153618.640000", "153618.640000", "153618.656000", "153618.656000", "153618.656000", "153618.656000", "153618.656000", "153618.671000", "153638.609000", "153638.609000", "153638.609000", "153638.609000", "153638.609000", "153638.625000", "153638.625000", "153638.625000", "153638.625000", "153638.625000", "153638.625000", "153638.625000", "153638.625000", "153638.640000", "153638.640000", "153638.640000", "153638.640000", "153638.640000", "153638.640000", "153638.640000", "153638.656000", "153638.656000", "153638.656000", "153638.656000", "153638.656000", "153658.609000", "153658.609000", "153658.609000", "153658.609000", "153658.609000", "153658.625000", "153658.625000", "153658.625000", "153658.625000", "153658.625000", "153658.625000", "153658.625000", "153658.625000", "153658.640000", "153658.640000", "153658.640000", "153658.640000", "153658.640000", "153658.640000", "153658.640000", "153658.656000", "153658.656000", "153658.656000", "153658.656000", "153658.656000", "153658.656000", "153718.609000", "153718.609000", "153718.609000", "153718.609000", "153718.609000", "153718.625000", "153718.625000", "153718.625000", "153718.625000", "153718.625000", "153718.625000", "153718.640000", "153718.640000", "153718.640000", "153718.640000", "153718.640000", "153718.640000", "153718.656000", "153718.656000", "153718.656000", "153718.656000", "153718.656000", "153718.671000", "153718.671000", "153718.671000", "153738.609000", "153738.609000", "153738.609000", "153738.609000", "153738.609000", "153738.625000", "153738.625000", "153738.625000", "153738.625000", "153738.625000", "153738.625000", "153738.625000", "153738.625000", "153738.640000", "153738.640000", "153738.640000", "153738.640000", "153738.640000", "153738.640000", "153738.640000", "153738.656000", "153738.656000", "153738.656000", "153738.656000", "153738.656000", "153738.656000", "153758.609000", "153758.609000", "153758.609000", "153758.609000", "153758.609000", "153758.625000", "153758.625000", "153758.625000", "153758.625000", "153758.625000", "153758.625000", "153758.625000", "153758.625000", "153758.640000", "153758.640000", "153758.640000", "153758.640000", "153758.640000", "153758.640000", "153758.640000", "153758.656000", "153758.656000", "153758.656000", "153758.656000", "153758.656000", "153818.609000", "153818.609000", "153818.609000", "153818.609000", "153818.609000", "153818.625000", "153818.625000", "153818.625000", "153818.625000", "153818.625000", "153818.625000", "153818.625000", "153818.625000", "153818.640000", "153818.640000", "153818.640000", "153818.640000", "153818.640000", "153818.656000", "153818.656000", "153818.656000", "153818.656000", "153818.656000", "153818.656000", "153818.656000", "153818.656000", "153838.609000", "153838.609000", "153838.609000", "153838.609000", "153838.609000", "153838.625000", "153838.625000", "153838.625000", "153838.625000", "153838.625000", "153838.625000", "153838.625000", "153838.625000", "153838.640000", "153838.640000", "153838.640000", "153838.640000", "153838.640000", "153838.640000", "153838.640000", "153838.656000", "153838.656000", "153838.656000", "153838.656000", "153838.656000", "153854.656000", "153854.656000", "153854.671000", "153854.671000", "153854.671000", "153854.671000", "153854.671000", "153854.671000", "153854.671000", "153854.687000", "153854.687000", "153854.687000", "153854.687000", "153854.687000", "153854.687000", "153854.687000", "153854.703000", "153854.703000", "153854.703000", "153854.703000", "153854.703000"],
