{
  "AcquisitionMatrixPE": 104,
  "AcquisitionNumber": 1,
  "AcquisitionTime": "16:08:28.742500",
  "BandwidthPerPixelPhaseEncode": 13.935,
  "BaseResolution": 104,
  "CoilString": "C:HEA;HEP",
  "ConversionSoftware": "dcm2niix",
  "ConversionSoftwareVersion": "v1.0.20210317",
  "DerivedVendorReportedEchoSpacing": 0.000690017,
  "DeviceSerialNumber": "35450",
  "DwellTime": 2.5e-06,
  "EchoTime": 0.0348,
  "EffectiveEchoSpacing": 0.000690017,
  "FlipAngle": 55,
  "ImageComments": "Unaliased MB8/PE3",
  "ImageOrientationPatientDICOM": [0.999847, 0.00124774, 0.0174453, 2.4845e-08, 0.997452, -0.0713422],
  "ImageType": [
    "ORIGINAL",
    "PRIMARY",
    "M",
    "MB",
    "ND",
    "MOSAIC"
],
  "ImagingFrequency": 123.235,
  "InPlanePhaseEncodingDirectionDICOM": "COL",
  "InstitutionAddress": "Univeristy Ave. 197,Newark,North East,US,07102-1814",
  "InstitutionName": "RUBIC",
  "InstitutionalDepartmentName": "Department",
  "MRAcquisitionType": "2D",
  "MagneticFieldStrength": 3,
  "Manufacturer": "Siemens",
  "ManufacturersModelName": "TrioTim",
  "Modality": "MR",
  "MultibandAccelerationFactor": 8,
  "PartialFourier": 0.875,
  "PatientPosition": "HFS",
  "PercentPhaseFOV": 100,
  "PercentSampling": 100,
  "PhaseEncodingDirection": "j-",
  "PhaseEncodingSteps": 91,
  "PhaseResolution": 1,
  "PixelBandwidth": 1923,
  "ProcedureStepDescription": "Cole^Michael",
  "ProtocolName": "cmrr_mbep2d_bold_2mm_MB8_Task_8x",
  "PulseSequenceDetails": "%CustomerSeq%\\cmrr_mbep2d_bold",
  "ReceiveCoilName": "32Ch_Head",
  "ReconMatrixPE": 104,
  "RepetitionTime": 0.785,
  "SAR": 0.121533,
  "ScanOptions": "PFP\\FS",
  "ScanningSequence": "EP",
  "SequenceName": "epfid2d1_104",
  "SequenceVariant": "SK\\SS",
  "SeriesDescription": "cmrr_mbep2d_bold_2mm_MB8_Task_8x",
  "SeriesNumber": 19,
  "ShimSetting": [2182, -334, -7368, 388, 301, -233, 128, -106],
  "SliceThickness": 2,
  "SliceTiming": [0, 0.4375, 0.0875, 0.525, 0.175, 0.6125, 0.2625, 0.7, 0.35, 0, 0.4375, 0.0875, 0.525, 0.175, 0.6125, 0.2625, 0.7, 0.35, 0, 0.4375, 0.0875, 0.525, 0.175, 0.6125, 0.2625, 0.7, 0.35, 0, 0.4375, 0.0875, 0.525, 0.175, 0.6125, 0.2625, 0.7, 0.35, 0, 0.4375, 0.0875, 0.525, 0.175, 0.6125, 0.2625, 0.7, 0.35, 0, 0.4375, 0.0875, 0.525, 0.175, 0.6125, 0.2625, 0.7, 0.35, 0, 0.4375, 0.0875, 0.525, 0.175, 0.6125, 0.2625, 0.7, 0.35, 0, 0.4375, 0.0875, 0.525, 0.175, 0.6125, 0.2625, 0.7, 0.35],
  "SoftwareVersions": "syngo MR B19",
  "SpacingBetweenSlices": 2,
  "StationName": "MRC35450",
  "TaskName": "cpro",
  "TotalReadoutTime": 0.0710717,
  "TxRefAmp": 317.037,
  "dcmmeta_affine": [
    [-1.9996941089630127, 4.969008315924839e-08, 0.03497971594333649, 102.92613220214844],
    [-0.0024954795371741056, 1.994903802871704, -0.14266254007816315, -81.37686920166016],
    [0.03489058464765549, 0.14268437027931213, 1.9945987462997437, -100.97505950927734],
    [0.0, 0.0, 0.0, 1.0]
],
  "dcmmeta_reorient_transform": [
    [0.0, -1.0, 0.0, 103.0],
    [1.0, 0.0, 0.0, 0.0],
    [0.0, 0.0, 1.0, 0.0],
    [0.0, 0.0, 0.0, 1.0]
],
  "dcmmeta_shape": [104, 104, 72, 581],
  "dcmmeta_slice_dim": 2,
  "dcmmeta_version": 0.6,
  "global": {
    "const": {
      "AcquisitionMatrix": [104, 0, 0, 104],
      "AngioFlag": "N",
      "BitsAllocated": 16,
      "BitsStored": 12,
      "Columns": 936,
      "EchoNumbers": 1,
      "EchoTime": 34.8,
      "EchoTrainLength": 1,
      "FlipAngle": 55.0,
      "HighBit": 11,
      "ImageOrientationPatient": [0.99984704075692, 0.0012477397768, 0.01744529263365, 2.4845042e-08, 0.99745190008499, -0.071342182591],
      "ImagePositionPatient": [-934.79889837681, -955.01632619799, -41.436361097571],
      "ImageType": [
        "ORIGINAL",
        "PRIMARY",
        "M",
        "MB",
        "ND",
        "MOSAIC"
],
      "ImagedNucleus": "1H",
      "ImagingFrequency": 123.23483,
      "InPlanePhaseEncodingDirection": "COL",
      "MRAcquisitionType": "2D",
      "MagneticFieldStrength": 3.0,
      "Manufacturer": "SIEMENS",
      "ManufacturerModelName": "TrioTim",
      "Modality": "MR",
      "NumberOfAverages": 1.0,
      "NumberOfPhaseEncodingSteps": 91,
      "PercentPhaseFieldOfView": 100.0,
      "PercentSampling": 100.0,
      "PerformedProcedureStepStartTime": "145806.125000",
      "PhotometricInterpretation": "MONOCHROME2",
      "PixelBandwidth": 1923.0,
      "PixelRepresentation": 0,
      "PixelSpacing": [2.0, 2.0],
      "ProtocolName": "cmrr_mbep2d_bold_2mm_MB8_Task_8x",
      "RepetitionTime": 785.0,
      "Rows": 936,
      "SAR": 0.12153333128279,
      "SamplesPerPixel": 1,
      "ScanOptions": [
        "PFP",
        "FS"
],
      "ScanningSequence": "EP",
      "SequenceName": "epfid2d1_104",
      "SequenceVariant": [
        "SK",
        "SS"
],
      "SeriesDescription": "cmrr_mbep2d_bold_2mm_MB8_Task_8x",
      "SeriesNumber": 19,
      "SeriesTime": "170521.937000",
      "SliceLocation": -93.097484318613,
      "SliceThickness": 2.0,
      "SmallestImagePixelValue": 0,
      "SoftwareVersions": "syngo MR B19",
      "SpacingBetweenSlices": 2.0000000500871,
      "SpecificCharacterSet": "ISO_IR 100",
      "StudyID": "1",
      "StudyTime": "145806.031000",
      "TransmitCoilName": "Body",
      "VariableFlipAngleFlag": "N",
      "WindowCenterWidthExplanation": "Algo1",
      "dBdt": 0.0},
    "slices": {}
  },
  "time": {
    "samples": {
      "AcquisitionNumber": [1, 2, 3, 4, 5, 6, 7, 8, 9, 10, 11, 12, 13, 14, 15, 16, 17, 18, 19, 20, 21, 22, 23, 24, 25, 26, 27, 28, 29, 30, 31, 32, 33, 34, 35, 36, 37, 38, 39, 40, 41, 42, 43, 44, 45, 46, 47, 48, 49, 50, 51, 52, 53, 54, 55, 56, 57, 58, 59, 60, 61, 62, 63, 64, 65, 66, 67, 68, 69, 70, 71, 72, 73, 74, 75, 76, 77, 78, 79, 80, 81, 82, 83, 84, 85, 86, 87, 88, 89, 90, 91, 92, 93, 94, 95, 96, 97, 98, 99, 100, 101, 102, 103, 104, 105, 106, 107, 108, 109, 110, 111, 112, 113, 114, 115, 116, 117, 118, 119, 120, 121, 122, 123, 124, 125, 126, 127, 128, 129, 130, 131, 132, 133, 134, 135, 136, 137, 138, 139, 140, 141, 142, 143, 144, 145, 146, 147, 148, 149, 150, 151, 152, 153, 154, 155, 156, 157, 158, 159, 160, 161, 162, 163, 164, 165, 166, 167, 168, 169, 170, 171, 172, 173, 174, 175, 176, 177, 178, 179, 180, 181, 182, 183, 184, 185, 186, 187, 188, 189, 190, 191, 192, 193, 194, 195, 196, 197, 198, 199, 200, 201, 202, 203, 204, 205, 206, 207, 208, 209, 210, 211, 212, 213, 214, 215, 216, 217, 218, 219, 220, 221, 222, 223, 224, 225, 226, 227, 228, 229, 230, 231, 232, 233, 234, 235, 236, 237, 238, 239, 240, 241, 242, 243, 244, 245, 246, 247, 248, 249, 250, 251, 252, 253, 254, 255, 256, 257, 258, 259, 260, 261, 262, 263, 264, 265, 266, 267, 268, 269, 270, 271, 272, 273, 274, 275, 276, 277, 278, 279, 280, 281, 282, 283, 284, 285, 286, 287, 288, 289, 290, 291, 292, 293, 294, 295, 296, 297, 298, 299, 300, 301, 302, 303, 304, 305, 306, 307, 308, 309, 310, 311, 312, 313, 314, 315, 316, 317, 318, 319, 320, 321, 322, 323, 324, 325, 326, 327, 328, 329, 330, 331, 332, 333, 334, 335, 336, 337, 338, 339, 340, 341, 342, 343, 344, 345, 346, 347, 348, 349, 350, 351, 352, 353, 354, 355, 356, 357, 358, 359, 360, 361, 362, 363, 364, 365, 366, 367, 368, 369, 370, 371, 372, 373, 374, 375, 376, 377, 378, 379, 380, 381, 382, 383, 384, 385, 386, 387, 388, 389, 390, 391, 392, 393, 394, 395, 396, 397, 398, 399, 400, 401, 402, 403, 404, 405, 406, 407, 408, 409, 410, 411, 412, 413, 414, 415, 416, 417, 418, 419, 420, 421, 422, 423, 424, 425, 426, 427, 428, 429, 430, 431, 432, 433, 434, 435, 436, 437, 438, 439, 440, 441, 442, 443, 444, 445, 446, 447, 448, 449, 450, 451, 452, 453, 454, 455, 456, 457, 458, 459, 460, 461, 462, 463, 464, 465, 466, 467, 468, 469, 470, 471, 472, 473, 474, 475, 476, 477, 478, 479, 480, 481, 482, 483, 484, 485, 486, 487, 488, 489, 490, 491, 492, 493, 494, 495, 496, 497, 498, 499, 500, 501, 502, 503, 504, 505, 506, 507, 508, 509, 510, 511, 512, 513, 514, 515, 516, 517, 518, 519, 520, 521, 522, 523, 524, 525, 526, 527, 528, 529, 530, 531, 532, 533, 534, 535, 536, 537, 538, 539, 540, 541, 542, 543, 544, 545, 546, 547, 548, 549, 550, 551, 552, 553, 554, 555, 556, 557, 558, 559, 560, 561, 562, 563, 564, 565, 566, 567, 568, 569, 570, 571, 572, 573, 574, 575, 576, 577, 578, 579, 580, 581],
      "AcquisitionTime": ["160828.742500", "160829.530000", "160830.317500", "160831.107500", "160831.895000", "160832.682500", "160833.470000", "160834.260000", "160835.047500", "160835.835000", "160836.622500", "160837.412500", "160838.200000", "160838.987500", "160839.775000", "160840.565000", "160841.352500", "160842.140000", "160842.927500", "160843.717500", "160844.505000", "160845.292500", "160846.080000", "160846.870000", "160847.657500", "160848.445000", "160849.235000", "160850.022500", "160850.810000", "160851.597500", "160852.387500", "160853.175000", "160853.962500", "160854.750000", "160855.540000", "160856.327500", "160857.115000", "160857.902500", "160858.692500", "160859.480000", "160900.267500", "160901.055000", "160901.845000", "160902.632500", "160903.420000", "160904.207500", "160904.997500", "160905.785000", "160906.572500", "160907.362500", "160908.150000", "160908.937500", "160909.725000", "160910.515000", "160911.302500", "160912.090000", "160912.877500", "160913.667500", "160914.455000", "160915.242500", "160916.030000", "160916.820000", "160917.607500", "160918.395000", "160919.182500", "160919.972500", "160920.760000", "160921.547500", "160922.335000", "160923.125000", "160923.912500", "160924.700000", "160925.490000", "160926.277500", "160927.065000", "160927.852500", "160928.642500", "160929.430000", "160930.217500", "160931.005000", "160931.795000", "160932.582500", "160933.370000", "160934.157500", "160934.947500", "160935.735000", "160936.522500", "160937.310000", "160938.100000", "160938.887500", "160939.675000", "160940.462500", "160941.252500", "160942.040000", "160942.827500", "160943.617500", "160944.405000", "160945.192500", "160945.980000", "160946.770000", "160947.557500", "160948.345000", "160949.132500", "160949.922500", "160950.710000", "160951.497500", "160952.285000", "160953.075000", "160953.862500", "160954.650000", "160955.437500", "160956.227500", "160957.015000", "160957.802500", "160958.590000", "160959.380000", "161000.167500", "161000.955000", "161001.745000", "161002.532500", "161003.320000", "161004.107500", "161004.897500", "161005.685000", "161006.472500", "161007.260000", "161008.050000", "161008.837500", "161009.625000", "161010.412500", "161011.202500", "161011.990000", "161012.777500", "161013.565000", "161014.355000", "161015.142500", "161015.930000", "161016.717500", "161017.507500", "161018.295000", "161019.082500", "161019.872500", "161020.660000", "161021.447500", "161022.235000", "161023.025000", "161023.812500", "161024.600000", "161025.387500", "161026.177500", "161026.965000", "161027.752500", "161028.540000", "161029.330000", "161030.117500", "161030.905000", "161031.692500", "161032.482500", "161033.270000", "161034.057500", "161034.847500", "161035.635000", "161036.422500", "161037.210000", "161038.000000", "161038.787500", "161039.575000", "161040.362500", "161041.152500", "161041.940000", "161042.727500", "161043.515000", "161044.305000", "161045.092500", "161045.880000", "161046.667500", "161047.457500", "161048.245000", "161049.032500", "161049.820000", "161050.610000", "161051.397500", "161052.185000", "161052.975000", "161053.762500", "161054.550000", "161055.337500", "161056.127500", "161056.915000", "161057.702500", "161058.490000", "161059.280000", "161100.067500", "161100.855000", "161101.642500", "161102.432500", "161103.220000", "161104.007500", "161104.795000", "161105.585000", "161106.372500", "161107.160000", "161107.947500", "161108.737500", "161109.525000", "161110.312500", "161111.102500", "161111.890000", "161112.677500", "161113.465000", "161114.255000", "161115.042500", "161115.830000", "161116.617500", "161117.407500", "161118.195000", "161118.982500", "161119.770000", "161120.560000", "161121.347500", "161122.135000", "161122.922500", "161123.712500", "161124.500000", "161125.287500", "161126.075000", "161126.865000", "161127.652500", "161128.440000", "161129.230000", "161130.017500", "161130.805000", "161131.592500", "161132.382500", "161133.170000", "161133.957500", "161134.745000", "161135.535000", "161136.322500", "161137.110000", "161137.897500", "161138.687500", "161139.475000", "161140.262500", "161141.050000", "161141.840000", "161142.627500", "161143.415000", "161144.202500", "161144.992500", "161145.780000", "161146.567500", "161147.357500", "161148.145000", "161148.932500", "161149.720000", "161150.510000", "161151.297500", "161152.085000", "161152.872500", "161153.662500", "161154.450000", "161155.237500", "161156.025000", "161156.815000", "161157.602500", "161158.390000", "161159.177500", "161159.967500", "161200.755000", "161201.542500", "161202.330000", "161203.120000", "161203.907500", "161204.695000", "161205.485000", "161206.272500", "161207.060000", "161207.847500", "161208.637500", "161209.425000", "161210.212500", "161211.000000", "161211.790000", "161212.577500", "161213.365000", "161214.152500", "161214.942500", "161215.730000", "161216.517500", "161217.305000", "161218.095000", "161218.882500", "161219.670000", "161220.457500", "161221.247500", "161222.035000", "161222.822500", "161223.612500", "161224.400000", "161225.187500", "161225.975000", "161226.765000", "161227.552500", "161228.340000", "161229.127500", "161229.917500", "161230.705000", "161231.492500", "161232.280000", "161233.070000", "161233.857500", "161234.645000", "161235.432500", "161236.222500", "161237.010000", "161237.797500", "161238.585000", "161239.375000", "161240.162500", "161240.950000", "161241.740000", "161242.527500", "161243.315000", "161244.102500", "161244.892500", "161245.680000", "161246.467500", "161247.255000", "161248.045000", "161248.832500", "161249.620000", "161250.407500", "161251.197500", "161251.985000", "161252.772500", "161253.560000", "161254.350000", "161255.137500", "161255.925000", "161256.712500", "161257.502500", "161258.290000", "161259.077500", "161259.867500", "161300.655000", "161301.442500", "161302.230000", "161303.020000", "161303.807500", "161304.595000", "161305.382500", "161306.172500", "161306.960000", "161307.747500", "161308.535000", "161309.325000", "161310.112500", "161310.900000", "161311.687500", "161312.477500", "161313.265000", "161314.052500", "161314.840000", "161315.630000", "161316.417500", "161317.205000", "161317.995000", "161318.782500", "161319.570000", "161320.357500", "161321.147500", "161321.935000", "161322.722500", "161323.510000", "161324.300000", "161325.087500", "161325.875000", "161326.662500", "161327.452500", "161328.240000", "161329.027500", "161329.815000", "161330.605000", "161331.392500", "161332.180000", "161332.967500", "161333.757500", "161334.545000", "161335.332500", "161336.122500", "161336.910000", "161337.697500", "161338.485000", "161339.275000", "161340.062500", "161340.850000", "161341.637500", "161342.427500", "161343.215000", "161344.002500", "161344.790000", "161345.580000", "161346.367500", "161347.155000", "161347.942500", "161348.732500", "161349.520000", "161350.307500", "161351.097500", "161351.885000", "161352.672500", "161353.460000", "161354.250000", "161355.037500", "161355.825000", "161356.612500", "161357.402500", "161358.190000", "161358.977500", "161359.765000", "161400.555000", "161401.342500", "161402.130000", "161402.917500", "161403.707500", "161404.495000", "161405.282500", "161406.070000", "161406.860000", "161407.647500", "161408.435000", "161409.225000", "161410.012500", "161410.800000", "161411.587500", "161412.377500", "161413.165000", "161413.952500", "161414.740000", "161415.530000", "161416.317500", "161417.105000", "161417.892500", "161418.682500", "161419.470000", "161420.257500", "161421.045000", "161421.835000", "161422.622500", "161423.410000", "161424.197500", "161424.987500", "161425.775000", "161426.562500", "161427.352500", "161428.140000", "161428.927500", "161429.715000", "161430.505000", "161431.292500", "161432.080000", "161432.867500", "161433.657500", "161434.445000", "161435.232500", "161436.020000", "161436.810000", "161437.597500", "161438.385000", "161439.172500", "161439.962500", "161440.750000", "161441.537500", "161442.325000", "161443.115000", "161443.902500", "161444.690000", "161445.480000", "161446.267500", "161447.055000", "161447.842500", "161448.632500", "161449.420000", "161450.207500", "161450.995000", "161451.785000", "161452.572500", "161453.360000", "161454.147500", "161454.937500", "161455.725000", "161456.512500", "161457.300000", "161458.090000", "161458.877500", "161459.665000", "161500.452500", "161501.242500", "161502.030000", "161502.817500", "161503.607500", "161504.395000", "161505.182500", "161505.970000", "161506.760000", "161507.547500", "161508.335000", "161509.122500", "161509.912500", "161510.700000", "161511.487500", "161512.275000", "161513.065000", "161513.852500", "161514.640000", "161515.427500", "161516.217500", "161517.005000", "161517.792500", "161518.580000", "161519.370000", "161520.157500", "161520.945000", "161521.735000", "161522.522500", "161523.310000", "161524.097500", "161524.887500", "161525.675000", "161526.462500", "161527.250000", "161528.040000", "161528.827500", "161529.615000", "161530.402500", "161531.192500", "161531.980000", "161532.767500", "161533.555000", "161534.345000", "161535.132500", "161535.920000", "161536.707500", "161537.497500", "161538.285000", "161539.072500", "161539.862500", "161540.650000", "161541.437500", "161542.225000", "161543.015000", "161543.802500", "161544.590000", "161545.377500", "161546.167500", "161546.955000", "161547.742500", "161548.530000", "161549.320000", "161550.107500", "161550.895000", "161551.682500", "161552.472500", "161553.260000", "161554.047500", "161554.835000", "161555.625000", "161556.412500", "161557.200000", "161557.990000", "161558.777500", "161559.565000", "161600.352500", "161601.142500", "161601.930000", "161602.717500", "161603.505000", "161604.295000", "161605.082500", "161605.870000"],
      "ContentTime": ["170521.937000", "170521.937000", "170521.937000", "170521.937000", "170521.953000", "170521.953000", "170521.953000", "170521.953000", "170521.953000", "170521.953000", "170521.953000", "170521.968000", "170521.968000", "170521.968000", "170521.968000", "170521.968000", "170521.968000", "170521.968000", "170521.968000", "170521.984000", "170621.937000", "170621.937000", "170621.937000", "170621.937000", "170621.937000", "170621.937000", "170621.953000", "170621.953000", "170621.953000", "170621.953000", "170621.953000", "170621.953000", "170621.953000", "170621.968000", "170621.968000", "170621.968000", "170621.968000", "170621.968000", "170621.968000", "170621.968000", "170621.984000", "170621.984000", "170621.984000", "170621.984000", "170621.984000", "170621.984000", "170621.984000", "170721.937000", "170721.937000", "170721.937000", "170721.937000", "170721.937000", "170721.937000", "170721.953000", "170721.953000", "170721.953000", "170721.953000", "170721.953000", "170721.953000", "170721.953000", "170721.968000", "170721.968000", "170721.968000", "170721.968000", "170721.968000", "170721.984000", "170721.984000", "170721.984000", "170721.984000", "170721.984000", "170721.984000", "170721.984000", "170722.000000", "170722.000000", "170722.000000", "170821.937000", "170821.937000", "170821.937000", "170821.937000", "170821.937000", "170821.937000", "170821.953000", "170821.953000", "170821.953000", "170821.953000", "170821.953000", "170821.953000", "170821.968000", "170821.968000", "170821.968000", "170821.968000", "170821.968000", "170821.968000", "170821.968000", "170821.984000", "170821.984000", "170821.984000", "170821.984000", "170821.984000", "170821.984000", "170822.000000", "170822.000000", "170822.000000", "170921.937000", "170921.937000", "170921.937000", "170921.937000", "170921.937000", "170921.937000", "170921.953000", "170921.953000", "170921.953000", "170921.953000", "170921.953000", "170921.953000", "170921.953000", "170921.968000", "170921.968000", "170921.968000", "170921.968000", "170921.984000", "170921.984000", "170921.984000", "170921.984000", "170921.984000", "170921.984000", "170921.984000", "170922.000000", "170922.000000", "170922.000000", "170922.000000", "171021.937000", "171021.937000", "171021.937000", "171021.937000", "171021.937000", "171021.937000", "171021.953000", "171021.953000", "171021.953000", "171021.953000", "171021.953000", "171021.953000", "171021.968000", "171021.968000", "171021.968000", "171021.968000", "171021.968000", "171021.968000", "171021.968000", "171021.984000", "171021.984000", "171021.984000", "171021.984000", "171021.984000", "171021.984000", "171021.984000", "171022.000000", "171022.000000", "171022.000000", "171121.937000", "171121.937000", "171121.937000", "171121.937000", "171121.937000", "171121.937000", "171121.953000", "171121.953000", "171121.953000", "171121.953000", "171121.953000", "171121.953000", "171121.968000", "171121.968000", "171121.968000", "171121.968000", "171121.968000", "171121.968000", "171121.968000", "171121.984000", "171121.984000", "171121.984000", "171121.984000", "171121.984000", "171121.984000", "171121.984000", "171122.000000", "171122.000000", "171221.937000", "171221.937000", "171221.937000", "171221.937000", "171221.937000", "171221.937000", "171221.953000", "171221.953000", "171221.953000", "171221.953000", "171221.953000", "171221.953000", "171221.968000", "171221.968000", "171221.968000", "171221.968000", "171221.968000", "171221.968000", "171221.968000", "171221.984000", "171221.984000", "171221.984000", "171221.984000", "171221.984000", "171221.984000", "171221.984000", "171222.000000", "171222.000000", "171321.937000", "171321.937000", "171321.937000", "171321.937000", "171321.937000", "171321.937000", "171321.953000", "171321.953000", "171321.953000", "171321.953000", "171321.953000", "171321.953000", "171321.968000", "171321.968000", "171321.968000", "171321.968000", "171321.968000", "171321.968000", "171321.968000", "171321.984000", "171321.984000", "171321.984000", "171321.984000", "171321.984000", "171321.984000", "171322.000000", "171322.000000", "171322.000000", "171421.937000", "171421.937000", "171421.937000", "171421.937000", "171421.937000", "171421.937000", "171421.953000", "171421.953000", "171421.953000", "171421.953000", "171421.953000", "171421.953000", "171421.968000", "171421.968000", "171421.968000", "171421.968000", "171421.968000", "171421.968000", "171421.968000", "171421.984000", "171421.984000", "171421.984000", "171421.984000", "171421.984000", "171422.000000", "171422.000000", "171422.000000", "171422.000000", "171521.937000", "171521.937000", "171521.937000", "171521.937000", "171521.937000", "171521.937000", "171521.953000", "171521.953000", "171521.953000", "171521.953000", "171521.953000", "171521.953000", "171521.968000", "171521.968000", "171521.968000", "171521.968000", "171521.968000", "171521.968000", "171521.984000", "171521.984000", "171521.984000", "171521.984000", "171521.984000", "171521.984000", "171521.984000", "171522.000000", "171522.000000", "171522.000000", "171621.937000", "171621.937000", "171621.937000", "171621.937000", "171621.937000", "171621.953000", "171621.953000", "171621.953000", "171621.953000", "171621.953000", "171621.953000", "171621.953000", "171621.968000", "171621.968000", "171621.968000", "171621.968000", "171621.968000", "171621.968000", "171621.968000", "171621.984000", "171621.984000", "171621.984000", "171621.984000", "171621.984000", "171621.984000", "171621.984000", "171622.000000", "171622.000000", "171622.000000", "171721.937000", "171721.937000", "171721.937000", "171721.937000", "171721.937000", "171721.953000", "171721.953000", "171721.953000", "171721.953000", "171721.953000", "171721.968000", "171721.968000", "171721.968000", "171721.968000", "171721.968000", "171721.968000", "171721.984000", "171721.984000", "171721.984000", "171721.984000", "171721.984000", "171721.984000", "171722.000000", "171722.000000", "171722.000000", "171722.000000", "171722.000000", "171722.000000", "171821.937000", "171821.937000", "171821.937000", "171821.937000", "171821.937000", "171821.953000", "171821.953000", "171821.953000", "171821.953000", "171821.953000", "171821.953000", "171821.953000", "171821.968000", "171821.968000", "171821.968000", "171821.968000", "171821.968000", "171821.968000", "171821.968000", "171821.984000", "171821.984000", "171821.984000", "171822.000000", "171822.000000", "171822.000000", "171822.000000", "171822.015000", "171822.015000", "171921.937000", "171921.937000", "171921.937000", "171921.937000", "171921.937000", "171921.937000", "171921.953000", "171921.953000", "171921.953000", "171921.953000", "171921.953000", "171921.953000", "171921.968000", "171921.968000", "171921.968000", "171921.968000", "171921.968000", "171921.984000", "171921.984000", "171921.984000", "171921.984000", "171921.984000", "171921.984000", "171921.984000", "171922.000000", "171922.000000", "171922.000000", "171922.000000", "172021.937000", "172021.937000", "172021.937000", "172021.937000", "172021.937000", "172021.937000", "172021.953000", "172021.953000", "172021.953000", "172021.953000", "172021.953000", "172021.953000", "172021.968000", "172021.968000", "172021.968000", "172021.968000", "172021.968000", "172021.968000", "172021.968000", "172021.984000", "172021.984000", "172021.984000", "172021.984000", "172021.984000", "172021.984000", "172022.000000", "172022.000000", "172022.000000", "172121.937000", "172121.937000", "172121.937000", "172121.937000", "172121.937000", "172121.937000", "172121.953000", "172121.953000", "172121.953000", "172121.953000", "172121.953000", "172121.953000", "172121.968000", "172121.968000", "172121.968000", "172121.968000", "172121.968000", "172121.968000", "172121.968000", "172121.984000", "172121.984000", "172121.984000", "172121.984000", "172121.984000", "172121.984000", "172121.984000", "172122.000000", "172122.000000", "172122.000000", "172221.937000", "172221.937000", "172221.937000", "172221.937000", "172221.937000", "172221.937000", "172221.953000", "172221.953000", "172221.953000", "172221.953000", "172221.953000", "172221.953000", "172221.953000", "172221.968000", "172221.968000", "172221.968000", "172221.968000", "172221.968000", "172221.968000", "172221.984000", "172221.984000", "172221.984000", "172221.984000", "172221.984000", "172221.984000", "172221.984000", "172222.000000", "172222.000000", "172301.937000", "172301.937000", "172301.937000", "172301.937000", "172301.937000", "172301.937000", "172301.953000", "172301.953000", "172301.953000", "172301.953000", "172301.953000", "172301.953000", "172301.953000", "172301.968000", "172301.968000", "172301.968000", "172301.968000", "172301.968000", "172301.968000", "172401.937000", "172401.937000", "172401.937000", "172401.937000", "172401.937000", "172401.953000", "172401.953000", "172401.953000", "172401.953000", "172401.953000", "172401.953000", "172401.953000", "172401.968000", "172401.968000", "172401.968000", "172401.968000", "172401.968000", "172401.968000", "172401.968000", "172401.984000", "172401.984000", "172401.984000", "172401.984000", "172401.984000", "172402.000000", "172402.000000", "172402.000000", "172402.000000", "172501.937000", "172501.937000", "172501.937000", "172501.937000", "172501.937000", "172501.953000", "172501.953000", "172501.953000", "172501.953000", "172501.953000", "172501.953000", "172501.953000", "172501.968000", "172501.968000", "172501.968000", "172501.968000", "172501.968000", "172501.968000", "172501.968000", "172501.984000", "172501.984000", "172501.984000", "172501.984000", "172501.984000", "172501.984000", "172501.984000", "172502.000000", "172502.000000", "172517.593000", "172517.593000", "172517.593000", "172517.593000", "172517.609000", "172517.609000", "172517.609000", "172517.609000"],
