{
  "AcquisitionMatrixPE": 104,
  "AcquisitionNumber": 1,
  "AcquisitionTime": "15:34:56.107500",
  "BandwidthPerPixelPhaseEncode": 13.935,
  "BaseResolution": 104,
  "CoilString": "C:HEA;HEP",
  "ConversionSoftware": "dcm2niix",
  "ConversionSoftwareVersion": "v1.0.20210317",
  "DerivedVendorReportedEchoSpacing": 0.000690017,
  "DeviceSerialNumber": "35450",
  "DwellTime": 2.5e-06,
  "EchoTime": 0.0348,
  "EffectiveEchoSpacing": 0.000690017,
  "FlipAngle": 55,
  "ImageComments": "Unaliased MB8/PE3",
  "ImageOrientationPatientDICOM": [1, 0, 0, 0, 0.990748, 0.135716],
  "ImageType": [
    "ORIGINAL",
    "PRIMARY",
    "M",
    "MB",
    "ND",
    "MOSAIC"
],
  "ImagingFrequency": 123.235,
  "InPlanePhaseEncodingDirectionDICOM": "COL",
  "InstitutionAddress": "Univeristy Ave. 197,Newark,North East,US,07102-1814",
  "InstitutionName": "RUBIC",
  "InstitutionalDepartmentName": "Department",
  "MRAcquisitionType": "2D",
  "MagneticFieldStrength": 3,
  "Manufacturer": "Siemens",
  "ManufacturersModelName": "TrioTim",
  "Modality": "MR",
  "MultibandAccelerationFactor": 8,
  "PartialFourier": 0.875,
  "PatientPosition": "HFS",
  "PercentPhaseFOV": 100,
  "PercentSampling": 100,
  "PhaseEncodingDirection": "j-",
  "PhaseEncodingSteps": 91,
  "PhaseResolution": 1,
  "PixelBandwidth": 1923,
  "ProcedureStepDescription": "Cole^Michael",
  "ProtocolName": "cmrr_mbep2d_bold_2mm_MB8_Task_8x",
  "PulseSequenceDetails": "%CustomerSeq%\\cmrr_mbep2d_bold",
  "ReceiveCoilName": "32Ch_Head",
  "ReconMatrixPE": 104,
  "RepetitionTime": 0.785,
  "SAR": 0.125449,
  "ScanOptions": "PFP\\FS",
  "ScanningSequence": "EP",
  "SequenceName": "epfid2d1_104",
  "SequenceVariant": "SK\\SS",
  "SeriesDescription": "cmrr_mbep2d_bold_2mm_MB8_Task_8x",
  "SeriesNumber": 15,
  "ShimSetting": [2145, -403, -7279, 592, 30, -427, 83, -3],
  "SliceThickness": 2,
  "SliceTiming": [0, 0.4375, 0.0875, 0.525, 0.175, 0.6125, 0.2625, 0.7, 0.35, 0, 0.4375, 0.0875, 0.525, 0.175, 0.6125, 0.2625, 0.7, 0.35, 0, 0.4375, 0.0875, 0.525, 0.175, 0.6125, 0.2625, 0.7, 0.35, 0, 0.4375, 0.0875, 0.525, 0.175, 0.6125, 0.2625, 0.7, 0.35, 0, 0.4375, 0.0875, 0.525, 0.175, 0.6125, 0.2625, 0.7, 0.35, 0, 0.4375, 0.0875, 0.525, 0.175, 0.6125, 0.2625, 0.7, 0.35, 0, 0.4375, 0.0875, 0.525, 0.175, 0.6125, 0.2625, 0.7, 0.35, 0, 0.4375, 0.0875, 0.525, 0.175, 0.6125, 0.2625, 0.7, 0.35],
  "SoftwareVersions": "syngo MR B19",
  "SpacingBetweenSlices": 2,
  "StationName": "MRC35450",
  "TaskName": "cpro",
  "TotalReadoutTime": 0.0710717,
  "TxRefAmp": 320.856,
  "dcmmeta_affine": [
    [-2.0, 0.0, 0.0, 104.0],
    [0.0, 1.98149573802948, 0.2714311480522156, -85.66545104980469],
    [0.0, -0.2714311480522156, 1.9814956188201904, -83.46379089355469],
    [0.0, 0.0, 0.0, 1.0]
],
  "dcmmeta_reorient_transform": [
    [0.0, -1.0, 0.0, 103.0],
    [1.0, 0.0, 0.0, 0.0],
    [0.0, 0.0, 1.0, 0.0],
    [0.0, 0.0, 0.0, 1.0]
],
  "dcmmeta_shape": [104, 104, 72, 581],
  "dcmmeta_slice_dim": 2,
  "dcmmeta_version": 0.6,
  "global": {
    "const": {
      "AcquisitionMatrix": [104, 0, 0, 104],
      "AngioFlag": "N",
      "BitsAllocated": 16,
      "BitsStored": 12,
      "Columns": 936,
      "EchoNumbers": 1,
      "EchoTime": 34.8,
      "EchoTrainLength": 1,
      "FlipAngle": 55.0,
      "HighBit": 11,
      "ImageOrientationPatient": [1.0, 0.0, 0.0, 0.0, 0.99074784093424, 0.13571556905579],
      "ImagePositionPatient": [-936.0, -942.73080820075, -224.33655059032],
      "ImageType": [
        "ORIGINAL",
        "PRIMARY",
        "M",
        "MB",
        "ND",
        "MOSAIC"
],
      "ImagedNucleus": "1H",
      "ImagingFrequency": 123.234835,
      "InPlanePhaseEncodingDirection": "COL",
      "MRAcquisitionType": "2D",
      "MagneticFieldStrength": 3.0,
      "Manufacturer": "SIEMENS",
      "ManufacturerModelName": "TrioTim",
      "Modality": "MR",
      "NumberOfAverages": 1.0,
      "NumberOfPhaseEncodingSteps": 91,
      "PercentPhaseFieldOfView": 100.0,
      "PercentSampling": 100.0,
      "PerformedProcedureStepStartTime": "144623.218000",
      "PhotometricInterpretation": "MONOCHROME2",
      "PixelBandwidth": 1923.0,
      "PixelRepresentation": 0,
      "PixelSpacing": [2.0, 2.0],
      "ProtocolName": "cmrr_mbep2d_bold_2mm_MB8_Task_8x",
      "RepetitionTime": 785.0,
      "Rows": 936,
      "SAR": 0.12544921672585,
      "SamplesPerPixel": 1,
      "ScanOptions": [
        "PFP",
        "FS"
],
      "ScanningSequence": "EP",
      "SequenceName": "epfid2d1_104",
      "SequenceVariant": [
        "SK",
        "SS"
],
      "SeriesDescription": "cmrr_mbep2d_bold_2mm_MB8_Task_8x",
      "SeriesNumber": 15,
      "SeriesTime": "160428.937000",
      "SliceLocation": -94.317705038606,
      "SliceThickness": 2.0,
      "SmallestImagePixelValue": 0,
      "SoftwareVersions": "syngo MR B19",
      "SpacingBetweenSlices": 1.9999999767337,
      "SpecificCharacterSet": "ISO_IR 100",
      "StudyID": "1",
      "StudyTime": "144623.187000",
      "TransmitCoilName": "Body",
      "VariableFlipAngleFlag": "N",
      "WindowCenterWidthExplanation": "Algo1",
      "dBdt": 0.0},
    "slices": {}
  },
  "time": {
    "samples": {
      "AcquisitionNumber": [1, 2, 3, 4, 5, 6, 7, 8, 9, 10, 11, 12, 13, 14, 15, 16, 17, 18, 19, 20, 21, 22, 23, 24, 25, 26, 27, 28, 29, 30, 31, 32, 33, 34, 35, 36, 37, 38, 39, 40, 41, 42, 43, 44, 45, 46, 47, 48, 49, 50, 51, 52, 53, 54, 55, 56, 57, 58, 59, 60, 61, 62, 63, 64, 65, 66, 67, 68, 69, 70, 71, 72, 73, 74, 75, 76, 77, 78, 79, 80, 81, 82, 83, 84, 85, 86, 87, 88, 89, 90, 91, 92, 93, 94, 95, 96, 97, 98, 99, 100, 101, 102, 103, 104, 105, 106, 107, 108, 109, 110, 111, 112, 113, 114, 115, 116, 117, 118, 119, 120, 121, 122, 123, 124, 125, 126, 127, 128, 129, 130, 131, 132, 133, 134, 135, 136, 137, 138, 139, 140, 141, 142, 143, 144, 145, 146, 147, 148, 149, 150, 151, 152, 153, 154, 155, 156, 157, 158, 159, 160, 161, 162, 163, 164, 165, 166, 167, 168, 169, 170, 171, 172, 173, 174, 175, 176, 177, 178, 179, 180, 181, 182, 183, 184, 185, 186, 187, 188, 189, 190, 191, 192, 193, 194, 195, 196, 197, 198, 199, 200, 201, 202, 203, 204, 205, 206, 207, 208, 209, 210, 211, 212, 213, 214, 215, 216, 217, 218, 219, 220, 221, 222, 223, 224, 225, 226, 227, 228, 229, 230, 231, 232, 233, 234, 235, 236, 237, 238, 239, 240, 241, 242, 243, 244, 245, 246, 247, 248, 249, 250, 251, 252, 253, 254, 255, 256, 257, 258, 259, 260, 261, 262, 263, 264, 265, 266, 267, 268, 269, 270, 271, 272, 273, 274, 275, 276, 277, 278, 279, 280, 281, 282, 283, 284, 285, 286, 287, 288, 289, 290, 291, 292, 293, 294, 295, 296, 297, 298, 299, 300, 301, 302, 303, 304, 305, 306, 307, 308, 309, 310, 311, 312, 313, 314, 315, 316, 317, 318, 319, 320, 321, 322, 323, 324, 325, 326, 327, 328, 329, 330, 331, 332, 333, 334, 335, 336, 337, 338, 339, 340, 341, 342, 343, 344, 345, 346, 347, 348, 349, 350, 351, 352, 353, 354, 355, 356, 357, 358, 359, 360, 361, 362, 363, 364, 365, 366, 367, 368, 369, 370, 371, 372, 373, 374, 375, 376, 377, 378, 379, 380, 381, 382, 383, 384, 385, 386, 387, 388, 389, 390, 391, 392, 393, 394, 395, 396, 397, 398, 399, 400, 401, 402, 403, 404, 405, 406, 407, 408, 409, 410, 411, 412, 413, 414, 415, 416, 417, 418, 419, 420, 421, 422, 423, 424, 425, 426, 427, 428, 429, 430, 431, 432, 433, 434, 435, 436, 437, 438, 439, 440, 441, 442, 443, 444, 445, 446, 447, 448, 449, 450, 451, 452, 453, 454, 455, 456, 457, 458, 459, 460, 461, 462, 463, 464, 465, 466, 467, 468, 469, 470, 471, 472, 473, 474, 475, 476, 477, 478, 479, 480, 481, 482, 483, 484, 485, 486, 487, 488, 489, 490, 491, 492, 493, 494, 495, 496, 497, 498, 499, 500, 501, 502, 503, 504, 505, 506, 507, 508, 509, 510, 511, 512, 513, 514, 515, 516, 517, 518, 519, 520, 521, 522, 523, 524, 525, 526, 527, 528, 529, 530, 531, 532, 533, 534, 535, 536, 537, 538, 539, 540, 541, 542, 543, 544, 545, 546, 547, 548, 549, 550, 551, 552, 553, 554, 555, 556, 557, 558, 559, 560, 561, 562, 563, 564, 565, 566, 567, 568, 569, 570, 571, 572, 573, 574, 575, 576, 577, 578, 579, 580, 581],
      "AcquisitionTime": ["153456.107500", "153456.895000", "153457.685000", "153458.472500", "153459.260000", "153500.047500", "153500.837500", "153501.625000", "153502.412500", "153503.200000", "153503.990000", "153504.777500", "153505.565000", "153506.352500", "153507.142500", "153507.930000", "153508.717500", "153509.507500", "153510.295000", "153511.082500", "153511.870000", "153512.660000", "153513.447500", "153514.235000", "153515.022500", "153515.812500", "153516.600000", "153517.387500", "153518.175000", "153518.965000", "153519.752500", "153520.540000", "153521.327500", "153522.117500", "153522.905000", "153523.692500", "153524.480000", "153525.270000", "153526.057500", "153526.845000", "153527.635000", "153528.422500", "153529.210000", "153529.997500", "153530.787500", "153531.575000", "153532.362500", "153533.150000", "153533.940000", "153534.727500", "153535.515000", "153536.302500", "153537.092500", "153537.880000", "153538.667500", "153539.455000", "153540.245000", "153541.032500", "153541.820000", "153542.607500", "153543.397500", "153544.185000", "153544.972500", "153545.762500", "153546.550000", "153547.337500", "153548.125000", "153548.915000", "153549.702500", "153550.490000", "153551.277500", "153552.067500", "153552.855000", "153553.642500", "153554.430000", "153555.220000", "153556.007500", "153556.795000", "153557.582500", "153558.372500", "153559.160000", "153559.947500", "153600.735000", "153601.525000", "153602.312500", "153603.100000", "153603.890000", "153604.677500", "153605.465000", "153606.252500", "153607.042500", "153607.830000", "153608.617500", "153609.405000", "153610.195000", "153610.982500", "153611.770000", "153612.557500", "153613.347500", "153614.135000", "153614.922500", "153615.710000", "153616.500000", "153617.287500", "153618.075000", "153618.862500", "153619.652500", "153620.440000", "153621.227500", "153622.017500", "153622.805000", "153623.592500", "153624.380000", "153625.170000", "153625.957500", "153626.745000", "153627.532500", "153628.322500", "153629.110000", "153629.897500", "153630.685000", "153631.475000", "153632.262500", "153633.050000", "153633.837500", "153634.627500", "153635.415000", "153636.202500", "153636.990000", "153637.780000", "153638.567500", "153639.355000", "153640.145000", "153640.932500", "153641.720000", "153642.507500", "153643.297500", "153644.085000", "153644.872500", "153645.660000", "153646.450000", "153647.237500", "153648.025000", "153648.812500", "153649.602500", "153650.390000", "153651.177500", "153651.965000", "153652.755000", "153653.542500", "153654.330000", "153655.117500", "153655.907500", "153656.695000", "153657.482500", "153658.272500", "153659.060000", "153659.847500", "153700.635000", "153701.425000", "153702.212500", "153703.000000", "153703.787500", "153704.577500", "153705.365000", "153706.152500", "153706.940000", "153707.730000", "153708.517500", "153709.305000", "153710.092500", "153710.882500", "153711.670000", "153712.457500", "153713.245000", "153714.035000", "153714.822500", "153715.610000", "153716.400000", "153717.187500", "153717.975000", "153718.762500", "153719.552500", "153720.340000", "153721.127500", "153721.915000", "153722.705000", "153723.492500", "153724.280000", "153725.067500", "153725.857500", "153726.645000", "153727.432500", "153728.220000", "153729.010000", "153729.797500", "153730.585000", "153731.372500", "153732.162500", "153732.950000", "153733.737500", "153734.527500", "153735.315000", "153736.102500", "153736.890000", "153737.680000", "153738.467500", "153739.255000", "153740.042500", "153740.832500", "153741.620000", "153742.407500", "153743.195000", "153743.985000", "153744.772500", "153745.560000", "153746.347500", "153747.137500", "153747.925000", "153748.712500", "153749.500000", "153750.290000", "153751.077500", "153751.865000", "153752.655000", "153753.442500", "153754.230000", "153755.017500", "153755.807500", "153756.595000", "153757.382500", "153758.170000", "153758.960000", "153759.747500", "153800.535000", "153801.322500", "153802.112500", "153802.900000", "153803.687500", "153804.475000", "153805.265000", "153806.052500", "153806.840000", "153807.627500", "153808.417500", "153809.205000", "153809.992500", "153810.782500", "153811.570000", "153812.357500", "153813.145000", "153813.935000", "153814.722500", "153815.510000", "153816.297500", "153817.087500", "153817.875000", "153818.662500", "153819.450000", "153820.240000", "153821.027500", "153821.815000", "153822.602500", "153823.392500", "153824.180000", "153824.967500", "153825.757500", "153826.545000", "153827.332500", "153828.120000", "153828.910000", "153829.697500", "153830.485000", "153831.272500", "153832.062500", "153832.850000", "153833.637500", "153834.425000", "153835.215000", "153836.002500", "153836.790000", "153837.577500", "153838.367500", "153839.155000", "153839.942500", "153840.730000", "153841.520000", "153842.307500", "153843.095000", "153843.885000", "153844.672500", "153845.460000", "153846.247500", "153847.037500", "153847.825000", "153848.612500", "153849.400000", "153850.190000", "153850.977500", "153851.765000", "153852.552500", "153853.342500", "153854.130000", "153854.917500", "153855.705000", "153856.495000", "153857.282500", "153858.070000", "153858.857500", "153859.647500", "153900.435000", "153901.222500", "153902.012500", "153902.800000", "153903.587500", "153904.375000", "153905.165000", "153905.952500", "153906.740000", "153907.527500", "153908.317500", "153909.105000", "153909.892500", "153910.680000", "153911.470000", "153912.257500", "153913.045000", "153913.832500", "153914.622500", "153915.410000", "153916.197500", "153916.985000", "153917.775000", "153918.562500", "153919.350000", "153920.140000", "153920.927500", "153921.715000", "153922.502500", "153923.292500", "153924.080000", "153924.867500", "153925.655000", "153926.445000", "153927.232500", "153928.020000", "153928.807500", "153929.597500", "153930.385000", "153931.172500", "153931.960000", "153932.750000", "153933.537500", "153934.325000", "153935.112500", "153935.902500", "153936.690000", "153937.477500", "153938.267500", "153939.055000", "153939.842500", "153940.630000", "153941.420000", "153942.207500", "153942.995000", "153943.782500", "153944.572500", "153945.360000", "153946.147500", "153946.935000", "153947.725000", "153948.512500", "153949.300000", "153950.087500", "153950.877500", "153951.665000", "153952.452500", "153953.240000", "153954.030000", "153954.817500", "153955.605000", "153956.395000", "153957.182500", "153957.970000", "153958.757500", "153959.547500", "154000.335000", "154001.122500", "154001.910000", "154002.700000", "154003.487500", "154004.275000", "154005.062500", "154005.852500", "154006.640000", "154007.427500", "154008.215000", "154009.005000", "154009.792500", "154010.580000", "154011.367500", "154012.157500", "154012.945000", "154013.732500", "154014.522500", "154015.310000", "154016.097500", "154016.885000", "154017.675000", "154018.462500", "154019.250000", "154020.037500", "154020.827500", "154021.615000", "154022.402500", "154023.190000", "154023.980000", "154024.767500", "154025.555000", "154026.342500", "154027.132500", "154027.920000", "154028.707500", "154029.495000", "154030.285000", "154031.072500", "154031.860000", "154032.650000", "154033.437500", "154034.225000", "154035.012500", "154035.802500", "154036.590000", "154037.377500", "154038.165000", "154038.955000", "154039.742500", "154040.530000", "154041.317500", "154042.107500", "154042.895000", "154043.682500", "154044.470000", "154045.260000", "154046.047500", "154046.835000", "154047.622500", "154048.412500", "154049.200000", "154049.987500", "154050.777500", "154051.565000", "154052.352500", "154053.140000", "154053.930000", "154054.717500", "154055.505000", "154056.292500", "154057.082500", "154057.870000", "154058.657500", "154059.445000", "154100.235000", "154101.022500", "154101.810000", "154102.597500", "154103.387500", "154104.175000", "154104.962500", "154105.750000", "154106.540000", "154107.327500", "154108.115000", "154108.905000", "154109.692500", "154110.480000", "154111.267500", "154112.057500", "154112.845000", "154113.632500", "154114.420000", "154115.210000", "154115.997500", "154116.785000", "154117.572500", "154118.362500", "154119.150000", "154119.937500", "154120.725000", "154121.515000", "154122.302500", "154123.090000", "154123.877500", "154124.667500", "154125.455000", "154126.242500", "154127.032500", "154127.820000", "154128.607500", "154129.395000", "154130.185000", "154130.972500", "154131.760000", "154132.547500", "154133.337500", "154134.125000", "154134.912500", "154135.700000", "154136.490000", "154137.277500", "154138.065000", "154138.852500", "154139.642500", "154140.430000", "154141.217500", "154142.007500", "154142.795000", "154143.582500", "154144.370000", "154145.160000", "154145.947500", "154146.735000", "154147.522500", "154148.312500", "154149.100000", "154149.887500", "154150.675000", "154151.465000", "154152.252500", "154153.040000", "154153.827500", "154154.617500", "154155.405000", "154156.192500", "154156.980000", "154157.770000", "154158.557500", "154159.345000", "154200.135000", "154200.922500", "154201.710000", "154202.497500", "154203.287500", "154204.075000", "154204.862500", "154205.650000", "154206.440000", "154207.227500", "154208.015000", "154208.802500", "154209.592500", "154210.380000", "154211.167500", "154211.955000", "154212.745000", "154213.532500", "154214.320000", "154215.107500", "154215.897500", "154216.685000", "154217.472500", "154218.262500", "154219.050000", "154219.837500", "154220.625000", "154221.415000", "154222.202500", "154222.990000", "154223.777500", "154224.567500", "154225.355000", "154226.142500", "154226.930000", "154227.720000", "154228.507500", "154229.295000", "154230.082500", "154230.872500", "154231.660000", "154232.447500", "154233.235000"],
      "ContentTime": ["160428.937000", "160428.937000", "160428.937000", "160428.953000", "160428.953000", "160428.953000", "160428.953000", "160428.953000", "160428.953000", "160428.953000", "160428.968000", "160428.968000", "160428.984000", "160428.984000", "160428.984000", "160428.984000", "160429.000000", "160429.000000", "160429.000000", "160429.000000", "160429.000000", "160429.000000", "160429.000000", "160429.015000", "160429.015000", "160429.015000", "160429.015000", "160429.031000", "160528.937000", "160528.937000", "160528.937000", "160528.937000", "160528.953000", "160528.953000", "160528.968000", "160528.968000", "160528.968000", "160528.968000", "160528.968000", "160528.968000", "160528.968000", "160528.984000", "160528.984000", "160528.984000", "160528.984000", "160528.984000", "160528.984000", "160528.984000", "160529.000000", "160529.000000", "160529.015000", "160529.015000", "160529.015000", "160529.015000", "160529.015000", "160529.015000", "160608.937000", "160608.937000", "160608.937000", "160608.937000", "160608.953000", "160608.953000", "160608.968000", "160608.968000", "160608.968000", "160608.968000", "160608.968000", "160608.968000", "160608.984000", "160608.984000", "160608.984000", "160608.984000", "160608.984000", "160608.984000", "160708.937000", "160708.937000", "160708.937000", "160708.953000", "160708.953000", "160708.953000", "160708.953000", "160708.953000", "160708.953000", "160708.953000", "160708.968000", "160708.968000", "160708.968000", "160708.984000", "160708.984000", "160708.984000", "160708.984000", "160708.984000", "160708.984000", "160708.984000", "160709.000000", "160709.000000", "160709.000000", "160709.000000", "160709.000000", "160709.015000", "160709.015000", "160709.015000", "160808.937000", "160808.937000", "160808.937000", "160808.937000", "160808.953000", "160808.953000", "160808.953000", "160808.953000", "160808.968000", "160808.968000", "160808.968000", "160808.968000", "160808.968000", "160808.968000", "160808.984000", "160808.984000", "160808.984000", "160808.984000", "160809.000000", "160809.000000", "160809.000000", "160809.000000", "160809.000000", "160809.000000", "160809.015000", "160809.015000", "160809.015000", "160809.015000", "160908.937000", "160908.937000", "160908.937000", "160908.937000", "160908.953000", "160908.953000", "160908.953000", "160908.968000", "160908.968000", "160908.968000", "160908.968000", "160908.968000", "160908.968000", "160908.968000", "160908.984000", "160908.984000", "160908.984000", "160908.984000", "160908.984000", "160909.000000", "160909.000000", "160909.000000", "160909.015000", "160909.015000", "160909.015000", "160909.015000", "160909.015000", "161008.937000", "161008.937000", "161008.937000", "161008.953000", "161008.953000", "161008.953000", "161008.968000", "161008.968000", "161008.968000", "161008.968000", "161008.968000", "161008.968000", "161008.968000", "161008.984000", "161008.984000", "161008.984000", "161008.984000", "161008.984000", "161008.984000", "161009.000000", "161009.000000", "161009.000000", "161009.000000", "161009.000000", "161009.015000", "161009.015000", "161009.015000", "161009.015000", "161108.937000", "161108.937000", "161108.937000", "161108.953000", "161108.953000", "161108.953000", "161108.953000", "161108.953000", "161108.953000", "161108.953000", "161108.953000", "161108.968000", "161108.968000", "161108.968000", "161108.984000", "161108.984000", "161108.984000", "161108.984000", "161108.984000", "161108.984000", "161109.000000", "161109.000000", "161109.000000", "161109.000000", "161109.000000", "161109.015000", "161109.015000", "161109.015000", "161208.937000", "161208.937000", "161208.937000", "161208.937000", "161208.953000", "161208.953000", "161208.953000", "161208.953000", "161208.953000", "161208.953000", "161208.953000", "161208.968000", "161208.968000", "161208.984000", "161208.984000", "161208.984000", "161208.984000", "161208.984000", "161209.000000", "161209.000000", "161209.000000", "161209.000000", "161209.000000", "161209.000000", "161209.000000", "161209.015000", "161209.015000", "161308.937000", "161308.937000", "161308.937000", "161308.937000", "161308.953000", "161308.953000", "161308.953000", "161308.953000", "161308.953000", "161308.968000", "161308.968000", "161308.968000", "161308.968000", "161308.968000", "161308.968000", "161308.984000", "161308.984000", "161308.984000", "161308.984000", "161308.984000", "161308.984000", "161308.984000", "161309.000000", "161309.000000", "161309.000000", "161309.000000", "161309.015000", "161309.015000", "161408.937000", "161408.937000", "161408.937000", "161408.953000", "161408.953000", "161408.953000", "161408.953000", "161408.968000", "161408.968000", "161408.968000", "161408.968000", "161408.968000", "161408.984000", "161408.984000", "161408.984000", "161408.984000", "161409.000000", "161409.000000", "161409.000000", "161409.000000", "161409.000000", "161409.031000", "161409.046000", "161409.046000", "161409.046000", "161409.046000", "161409.046000", "161508.937000", "161508.937000", "161508.937000", "161508.937000", "161508.953000", "161508.968000", "161508.968000", "161508.968000", "161508.968000", "161508.968000", "161508.984000", "161508.984000", "161508.984000", "161508.984000", "161508.984000", "161508.984000", "161508.984000", "161509.000000", "161509.000000", "161509.000000", "161509.015000", "161509.015000", "161509.015000", "161509.015000", "161509.015000", "161509.015000", "161509.015000", "161509.031000", "161608.937000", "161608.937000", "161608.937000", "161608.953000", "161608.953000", "161608.953000", "161608.953000", "161608.953000", "161608.953000", "161608.953000", "161608.968000", "161608.968000", "161608.968000", "161608.968000", "161608.968000", "161608.968000", "161608.984000", "161608.984000", "161608.984000", "161608.984000", "161609.000000", "161609.000000", "161609.000000", "161609.000000", "161609.000000", "161609.000000", "161609.000000", "161609.015000", "161708.937000", "161708.937000", "161708.937000", "161708.953000", "161708.953000", "161708.953000", "161708.953000", "161708.953000", "161708.953000", "161708.953000", "161708.968000", "161708.968000", "161708.968000", "161708.968000", "161708.984000", "161708.984000", "161708.984000", "161708.984000", "161708.984000", "161708.984000", "161709.000000", "161709.000000", "161709.000000", "161709.000000", "161709.000000", "161709.000000", "161709.000000", "161808.937000", "161808.937000", "161808.937000", "161808.937000", "161808.953000", "161808.953000", "161808.953000", "161808.953000", "161808.953000", "161808.953000", "161808.968000", "161808.968000", "161808.968000", "161808.968000", "161808.968000", "161808.984000", "161808.984000", "161808.984000", "161808.984000", "161808.984000", "161808.984000", "161808.984000", "161809.000000", "161809.000000", "161809.000000", "161809.000000", "161809.000000", "161809.015000", "161908.953000", "161908.953000", "161908.953000", "161908.953000", "161908.953000", "161908.953000", "161908.968000", "161908.968000", "161908.968000", "161908.984000", "161908.984000", "161908.984000", "161908.984000", "161908.984000", "161908.984000", "161908.984000", "161909.000000", "161909.000000", "161909.000000", "161909.000000", "161909.000000", "161909.000000", "161909.015000", "161909.015000", "161909.015000", "161909.015000", "161909.015000", "161909.031000", "162008.953000", "162008.953000", "162008.953000", "162008.953000", "162008.953000", "162008.968000", "162008.968000", "162008.968000", "162008.968000", "162008.968000", "162008.968000", "162008.968000", "162008.984000", "162008.984000", "162008.984000", "162008.984000", "162008.984000", "162008.984000", "162008.984000", "162009.000000", "162009.000000", "162009.000000", "162009.000000", "162009.015000", "162009.015000", "162009.015000", "162009.015000", "162108.953000", "162108.953000", "162108.953000", "162108.953000", "162108.968000", "162108.968000", "162108.968000", "162108.968000", "162108.968000", "162108.968000", "162108.968000", "162108.984000", "162108.984000", "162108.984000", "162108.984000", "162108.984000", "162108.984000", "162109.000000", "162109.000000", "162109.000000", "162109.000000", "162109.000000", "162109.015000", "162109.015000", "162109.015000", "162109.015000", "162109.015000", "162109.015000", "162208.953000", "162208.953000", "162208.953000", "162208.953000", "162208.953000", "162208.953000", "162208.953000", "162208.968000", "162208.968000", "162208.968000", "162208.968000", "162208.968000", "162208.984000", "162208.984000", "162209.000000", "162209.000000", "162209.000000", "162209.000000", "162209.000000", "162209.000000", "162209.000000", "162209.015000", "162209.015000", "162209.015000", "162209.015000", "162209.015000", "162209.015000", "162209.015000", "162308.953000", "162308.953000", "162308.953000", "162308.953000", "162308.953000", "162308.953000", "162308.953000", "162308.968000", "162308.968000", "162308.968000", "162308.968000", "162308.984000", "162308.984000", "162308.984000", "162308.984000", "162308.984000", "162309.000000", "162309.000000", "162309.000000", "162309.000000", "162309.000000", "162309.000000", "162309.015000", "162309.015000", "162309.015000", "162309.015000", "162309.015000", "162408.953000", "162408.953000", "162408.953000", "162408.953000", "162408.953000", "162408.953000", "162408.953000", "162408.968000", "162408.968000", "162408.984000", "162408.984000", "162408.984000", "162408.984000", "162408.984000", "162408.984000", "162408.984000", "162409.000000", "162409.000000", "162409.000000", "162409.000000", "162409.000000", "162409.000000", "162409.000000", "162409.015000", "162409.015000", "162409.015000", "162409.015000", "162409.031000", "162427.859000", "162427.859000", "162427.859000", "162427.859000", "162427.875000", "162427.875000", "162427.875000", "162427.875000", "162427.875000"],
