{
  "AcquisitionMatrixPE": 104,
  "AcquisitionNumber": 1,
  "AcquisitionTime": "16:27:12.677500",
  "BandwidthPerPixelPhaseEncode": 13.935,
  "BaseResolution": 104,
  "CoilString": "C:HEA;HEP",
  "ConversionSoftware": "dcm2niix",
  "ConversionSoftwareVersion": "v1.0.20210317",
  "DerivedVendorReportedEchoSpacing": 0.000690017,
  "DeviceSerialNumber": "35450",
  "DwellTime": 2.5e-06,
  "EchoTime": 0.0348,
  "EffectiveEchoSpacing": 0.000690017,
  "FlipAngle": 55,
  "ImageComments": "Unaliased MB8/PE3",
  "ImageOrientationPatientDICOM": [1, 0, 0, 0, 0.990748, 0.135716],
  "ImageType": [
    "ORIGINAL",
    "PRIMARY",
    "M",
    "MB",
    "ND",
    "MOSAIC"
],
  "ImagingFrequency": 123.235,
  "InPlanePhaseEncodingDirectionDICOM": "COL",
  "InstitutionAddress": "Univeristy Ave. 197,Newark,North East,US,07102-1814",
  "InstitutionName": "RUBIC",
  "InstitutionalDepartmentName": "Department",
  "MRAcquisitionType": "2D",
  "MagneticFieldStrength": 3,
  "Manufacturer": "Siemens",
  "ManufacturersModelName": "TrioTim",
  "Modality": "MR",
  "MultibandAccelerationFactor": 8,
  "PartialFourier": 0.875,
  "PatientPosition": "HFS",
  "PercentPhaseFOV": 100,
  "PercentSampling": 100,
  "PhaseEncodingDirection": "j-",
  "PhaseEncodingSteps": 91,
  "PhaseResolution": 1,
  "PixelBandwidth": 1923,
  "ProcedureStepDescription": "Cole^Michael",
  "ProtocolName": "cmrr_mbep2d_bold_2mm_MB8_Task_8x",
  "PulseSequenceDetails": "%CustomerSeq%\\cmrr_mbep2d_bold",
  "ReceiveCoilName": "32Ch_Head",
  "ReconMatrixPE": 104,
  "RepetitionTime": 0.785,
  "SAR": 0.113731,
  "ScanOptions": "PFP\\FS",
  "ScanningSequence": "EP",
  "SequenceName": "epfid2d1_104",
  "SequenceVariant": "SK\\SS",
  "SeriesDescription": "cmrr_mbep2d_bold_2mm_MB8_Task_8x",
  "SeriesNumber": 27,
  "ShimSetting": [2145, -403, -7279, 592, 30, -427, 83, -3],
  "SliceThickness": 2,
  "SliceTiming": [0, 0.4375, 0.0875, 0.525, 0.175, 0.6125, 0.2625, 0.7, 0.35, 0, 0.4375, 0.0875, 0.525, 0.175, 0.6125, 0.2625, 0.7, 0.35, 0, 0.4375, 0.0875, 0.525, 0.175, 0.6125, 0.2625, 0.7, 0.35, 0, 0.4375, 0.0875, 0.525, 0.175, 0.6125, 0.2625, 0.7, 0.35, 0, 0.4375, 0.0875, 0.525, 0.175, 0.6125, 0.2625, 0.7, 0.35, 0, 0.4375, 0.0875, 0.525, 0.175, 0.6125, 0.2625, 0.7, 0.35, 0, 0.4375, 0.0875, 0.525, 0.175, 0.6125, 0.2625, 0.7, 0.35, 0, 0.4375, 0.0875, 0.525, 0.175, 0.6125, 0.2625, 0.7, 0.35],
  "SoftwareVersions": "syngo MR B19",
  "SpacingBetweenSlices": 2,
  "StationName": "MRC35450",
  "TaskName": "cpro",
  "TotalReadoutTime": 0.0710717,
  "TxRefAmp": 320.856,
  "dcmmeta_affine": [
    [-2.0, 0.0, 0.0, 104.0],
    [0.0, 1.98149573802948, 0.2714311480522156, -85.66545104980469],
    [0.0, -0.2714311480522156, 1.9814956188201904, -83.46379089355469],
    [0.0, 0.0, 0.0, 1.0]
],
  "dcmmeta_reorient_transform": [
    [0.0, -1.0, 0.0, 103.0],
    [1.0, 0.0, 0.0, 0.0],
    [0.0, 0.0, 1.0, 0.0],
    [0.0, 0.0, 0.0, 1.0]
],
  "dcmmeta_shape": [104, 104, 72, 581],
  "dcmmeta_slice_dim": 2,
  "dcmmeta_version": 0.6,
  "global": {
    "const": {
      "AcquisitionMatrix": [104, 0, 0, 104],
      "AngioFlag": "N",
      "BitsAllocated": 16,
      "BitsStored": 12,
      "Columns": 936,
      "EchoNumbers": 1,
      "EchoTime": 34.8,
      "EchoTrainLength": 1,
      "FlipAngle": 55.0,
      "HighBit": 11,
      "ImageOrientationPatient": [1.0, 0.0, 0.0, 0.0, 0.99074784093424, 0.13571556905579],
      "ImagePositionPatient": [-936.0, -942.73080820075, -224.33655059032],
      "ImageType": [
        "ORIGINAL",
        "PRIMARY",
        "M",
        "MB",
        "ND",
        "MOSAIC"
],
      "ImagedNucleus": "1H",
      "ImagingFrequency": 123.234835,
      "InPlanePhaseEncodingDirection": "COL",
      "MRAcquisitionType": "2D",
      "MagneticFieldStrength": 3.0,
      "Manufacturer": "SIEMENS",
      "ManufacturerModelName": "TrioTim",
      "Modality": "MR",
      "NumberOfAverages": 1.0,
      "NumberOfPhaseEncodingSteps": 91,
      "PercentPhaseFieldOfView": 100.0,
      "PercentSampling": 100.0,
      "PerformedProcedureStepStartTime": "144623.218000",
      "PhotometricInterpretation": "MONOCHROME2",
      "PixelBandwidth": 1923.0,
      "PixelRepresentation": 0,
      "PixelSpacing": [2.0, 2.0],
      "ProtocolName": "cmrr_mbep2d_bold_2mm_MB8_Task_8x",
      "RepetitionTime": 785.0,
      "Rows": 936,
      "SAR": 0.11373092949726,
      "SamplesPerPixel": 1,
      "ScanOptions": [
        "PFP",
        "FS"
],
      "ScanningSequence": "EP",
      "SequenceName": "epfid2d1_104",
      "SequenceVariant": [
        "SK",
        "SS"
],
      "SeriesDescription": "cmrr_mbep2d_bold_2mm_MB8_Task_8x",
      "SeriesNumber": 27,
      "SeriesTime": "180928.984000",
      "SliceLocation": -94.317705038606,
      "SliceThickness": 2.0,
      "SmallestImagePixelValue": 0,
      "SoftwareVersions": "syngo MR B19",
      "SpacingBetweenSlices": 1.9999999767337,
      "SpecificCharacterSet": "ISO_IR 100",
      "StudyID": "1",
      "StudyTime": "144623.187000",
      "TransmitCoilName": "Body",
      "VariableFlipAngleFlag": "N",
      "WindowCenterWidthExplanation": "Algo1",
      "dBdt": 0.0},
    "slices": {}
  },
  "time": {
    "samples": {
      "AcquisitionNumber": [1, 2, 3, 4, 5, 6, 7, 8, 9, 10, 11, 12, 13, 14, 15, 16, 17, 18, 19, 20, 21, 22, 23, 24, 25, 26, 27, 28, 29, 30, 31, 32, 33, 34, 35, 36, 37, 38, 39, 40, 41, 42, 43, 44, 45, 46, 47, 48, 49, 50, 51, 52, 53, 54, 55, 56, 57, 58, 59, 60, 61, 62, 63, 64, 65, 66, 67, 68, 69, 70, 71, 72, 73, 74, 75, 76, 77, 78, 79, 80, 81, 82, 83, 84, 85, 86, 87, 88, 89, 90, 91, 92, 93, 94, 95, 96, 97, 98, 99, 100, 101, 102, 103, 104, 105, 106, 107, 108, 109, 110, 111, 112, 113, 114, 115, 116, 117, 118, 119, 120, 121, 122, 123, 124, 125, 126, 127, 128, 129, 130, 131, 132, 133, 134, 135, 136, 137, 138, 139, 140, 141, 142, 143, 144, 145, 146, 147, 148, 149, 150, 151, 152, 153, 154, 155, 156, 157, 158, 159, 160, 161, 162, 163, 164, 165, 166, 167, 168, 169, 170, 171, 172, 173, 174, 175, 176, 177, 178, 179, 180, 181, 182, 183, 184, 185, 186, 187, 188, 189, 190, 191, 192, 193, 194, 195, 196, 197, 198, 199, 200, 201, 202, 203, 204, 205, 206, 207, 208, 209, 210, 211, 212, 213, 214, 215, 216, 217, 218, 219, 220, 221, 222, 223, 224, 225, 226, 227, 228, 229, 230, 231, 232, 233, 234, 235, 236, 237, 238, 239, 240, 241, 242, 243, 244, 245, 246, 247, 248, 249, 250, 251, 252, 253, 254, 255, 256, 257, 258, 259, 260, 261, 262, 263, 264, 265, 266, 267, 268, 269, 270, 271, 272, 273, 274, 275, 276, 277, 278, 279, 280, 281, 282, 283, 284, 285, 286, 287, 288, 289, 290, 291, 292, 293, 294, 295, 296, 297, 298, 299, 300, 301, 302, 303, 304, 305, 306, 307, 308, 309, 310, 311, 312, 313, 314, 315, 316, 317, 318, 319, 320, 321, 322, 323, 324, 325, 326, 327, 328, 329, 330, 331, 332, 333, 334, 335, 336, 337, 338, 339, 340, 341, 342, 343, 344, 345, 346, 347, 348, 349, 350, 351, 352, 353, 354, 355, 356, 357, 358, 359, 360, 361, 362, 363, 364, 365, 366, 367, 368, 369, 370, 371, 372, 373, 374, 375, 376, 377, 378, 379, 380, 381, 382, 383, 384, 385, 386, 387, 388, 389, 390, 391, 392, 393, 394, 395, 396, 397, 398, 399, 400, 401, 402, 403, 404, 405, 406, 407, 408, 409, 410, 411, 412, 413, 414, 415, 416, 417, 418, 419, 420, 421, 422, 423, 424, 425, 426, 427, 428, 429, 430, 431, 432, 433, 434, 435, 436, 437, 438, 439, 440, 441, 442, 443, 444, 445, 446, 447, 448, 449, 450, 451, 452, 453, 454, 455, 456, 457, 458, 459, 460, 461, 462, 463, 464, 465, 466, 467, 468, 469, 470, 471, 472, 473, 474, 475, 476, 477, 478, 479, 480, 481, 482, 483, 484, 485, 486, 487, 488, 489, 490, 491, 492, 493, 494, 495, 496, 497, 498, 499, 500, 501, 502, 503, 504, 505, 506, 507, 508, 509, 510, 511, 512, 513, 514, 515, 516, 517, 518, 519, 520, 521, 522, 523, 524, 525, 526, 527, 528, 529, 530, 531, 532, 533, 534, 535, 536, 537, 538, 539, 540, 541, 542, 543, 544, 545, 546, 547, 548, 549, 550, 551, 552, 553, 554, 555, 556, 557, 558, 559, 560, 561, 562, 563, 564, 565, 566, 567, 568, 569, 570, 571, 572, 573, 574, 575, 576, 577, 578, 579, 580, 581],
      "AcquisitionTime": ["162712.677500", "162713.467500", "162714.255000", "162715.042500", "162715.830000", "162716.620000", "162717.407500", "162718.195000", "162718.982500", "162719.772500", "162720.560000", "162721.347500", "162722.135000", "162722.925000", "162723.712500", "162724.500000", "162725.290000", "162726.077500", "162726.865000", "162727.652500", "162728.442500", "162729.230000", "162730.017500", "162730.805000", "162731.595000", "162732.382500", "162733.170000", "162733.957500", "162734.747500", "162735.535000", "162736.322500", "162737.110000", "162737.900000", "162738.687500", "162739.475000", "162740.262500", "162741.052500", "162741.840000", "162742.627500", "162743.417500", "162744.205000", "162744.992500", "162745.780000", "162746.570000", "162747.357500", "162748.145000", "162748.932500", "162749.722500", "162750.510000", "162751.297500", "162752.085000", "162752.875000", "162753.662500", "162754.450000", "162755.237500", "162756.027500", "162756.815000", "162757.602500", "162758.390000", "162759.180000", "162759.967500", "162800.755000", "162801.545000", "162802.332500", "162803.120000", "162803.907500", "162804.697500", "162805.485000", "162806.272500", "162807.060000", "162807.850000", "162808.637500", "162809.425000", "162810.212500", "162811.002500", "162811.790000", "162812.577500", "162813.365000", "162814.155000", "162814.942500", "162815.730000", "162816.517500", "162817.307500", "162818.095000", "162818.882500", "162819.672500", "162820.460000", "162821.247500", "162822.035000", "162822.825000", "162823.612500", "162824.400000", "162825.187500", "162825.977500", "162826.765000", "162827.552500", "162828.340000", "162829.130000", "162829.917500", "162830.705000", "162831.492500", "162832.282500", "162833.070000", "162833.857500", "162834.645000", "162835.435000", "162836.222500", "162837.010000", "162837.800000", "162838.587500", "162839.375000", "162840.162500", "162840.952500", "162841.740000", "162842.527500", "162843.315000", "162844.105000", "162844.892500", "162845.680000", "162846.467500", "162847.257500", "162848.045000", "162848.832500", "162849.620000", "162850.410000", "162851.197500", "162851.985000", "162852.772500", "162853.562500", "162854.350000", "162855.137500", "162855.927500", "162856.715000", "162857.502500", "162858.290000", "162859.080000", "162859.867500", "162900.655000", "162901.442500", "162902.232500", "162903.020000", "162903.807500", "162904.595000", "162905.385000", "162906.172500", "162906.960000", "162907.747500", "162908.537500", "162909.325000", "162910.112500", "162910.900000", "162911.690000", "162912.477500", "162913.265000", "162914.055000", "162914.842500", "162915.630000", "162916.417500", "162917.207500", "162917.995000", "162918.782500", "162919.570000", "162920.360000", "162921.147500", "162921.935000", "162922.722500", "162923.512500", "162924.300000", "162925.087500", "162925.875000", "162926.665000", "162927.452500", "162928.240000", "162929.027500", "162929.817500", "162930.605000", "162931.392500", "162932.182500", "162932.970000", "162933.757500", "162934.545000", "162935.335000", "162936.122500", "162936.910000", "162937.697500", "162938.487500", "162939.275000", "162940.062500", "162940.850000", "162941.640000", "162942.427500", "162943.215000", "162944.002500", "162944.792500", "162945.580000", "162946.367500", "162947.157500", "162947.945000", "162948.732500", "162949.520000", "162950.310000", "162951.097500", "162951.885000", "162952.672500", "162953.462500", "162954.250000", "162955.037500", "162955.825000", "162956.615000", "162957.402500", "162958.190000", "162958.977500", "162959.767500", "163000.555000", "163001.342500", "163002.130000", "163002.920000", "163003.707500", "163004.495000", "163005.285000", "163006.072500", "163006.860000", "163007.647500", "163008.437500", "163009.225000", "163010.012500", "163010.800000", "163011.590000", "163012.377500", "163013.165000", "163013.952500", "163014.742500", "163015.530000", "163016.317500", "163017.105000", "163017.895000", "163018.682500", "163019.470000", "163020.257500", "163021.047500", "163021.835000", "163022.622500", "163023.412500", "163024.200000", "163024.987500", "163025.775000", "163026.565000", "163027.352500", "163028.140000", "163028.927500", "163029.717500", "163030.505000", "163031.292500", "163032.080000", "163032.870000", "163033.657500", "163034.445000", "163035.232500", "163036.022500", "163036.810000", "163037.597500", "163038.385000", "163039.175000", "163039.962500", "163040.750000", "163041.540000", "163042.327500", "163043.115000", "163043.902500", "163044.692500", "163045.480000", "163046.267500", "163047.055000", "163047.845000", "163048.632500", "163049.420000", "163050.207500", "163050.997500", "163051.785000", "163052.572500", "163053.360000", "163054.150000", "163054.937500", "163055.725000", "163056.512500", "163057.302500", "163058.090000", "163058.877500", "163059.667500", "163100.455000", "163101.242500", "163102.030000", "163102.820000", "163103.607500", "163104.395000", "163105.182500", "163105.972500", "163106.760000", "163107.547500", "163108.335000", "163109.125000", "163109.912500", "163110.700000", "163111.487500", "163112.277500", "163113.065000", "163113.852500", "163114.640000", "163115.430000", "163116.217500", "163117.005000", "163117.795000", "163118.582500", "163119.370000", "163120.157500", "163120.947500", "163121.735000", "163122.522500", "163123.310000", "163124.100000", "163124.887500", "163125.675000", "163126.462500", "163127.252500", "163128.040000", "163128.827500", "163129.615000", "163130.405000", "163131.192500", "163131.980000", "163132.767500", "163133.557500", "163134.345000", "163135.132500", "163135.922500", "163136.710000", "163137.497500", "163138.285000", "163139.075000", "163139.862500", "163140.650000", "163141.437500", "163142.227500", "163143.015000", "163143.802500", "163144.590000", "163145.380000", "163146.167500", "163146.955000", "163147.742500", "163148.532500", "163149.320000", "163150.107500", "163150.895000", "163151.685000", "163152.472500", "163153.260000", "163154.050000", "163154.837500", "163155.625000", "163156.412500", "163157.202500", "163157.990000", "163158.777500", "163159.565000", "163200.355000", "163201.142500", "163201.930000", "163202.717500", "163203.507500", "163204.295000", "163205.082500", "163205.870000", "163206.660000", "163207.447500", "163208.235000", "163209.022500", "163209.812500", "163210.600000", "163211.387500", "163212.177500", "163212.965000", "163213.752500", "163214.540000", "163215.330000", "163216.117500", "163216.905000", "163217.692500", "163218.482500", "163219.270000", "163220.057500", "163220.845000", "163221.635000", "163222.422500", "163223.210000", "163223.997500", "163224.787500", "163225.575000", "163226.362500", "163227.150000", "163227.940000", "163228.727500", "163229.515000", "163230.305000", "163231.092500", "163231.880000", "163232.667500", "163233.457500", "163234.245000", "163235.032500", "163235.820000", "163236.610000", "163237.397500", "163238.185000", "163238.972500", "163239.762500", "163240.550000", "163241.337500", "163242.125000", "163242.915000", "163243.702500", "163244.490000", "163245.277500", "163246.067500", "163246.855000", "163247.642500", "163248.432500", "163249.220000", "163250.007500", "163250.795000", "163251.585000", "163252.372500", "163253.160000", "163253.947500", "163254.737500", "163255.525000", "163256.312500", "163257.100000", "163257.890000", "163258.677500", "163259.465000", "163300.252500", "163301.042500", "163301.830000", "163302.617500", "163303.407500", "163304.195000", "163304.982500", "163305.770000", "163306.560000", "163307.347500", "163308.135000", "163308.922500", "163309.712500", "163310.500000", "163311.287500", "163312.075000", "163312.865000", "163313.652500", "163314.440000", "163315.227500", "163316.017500", "163316.805000", "163317.592500", "163318.380000", "163319.170000", "163319.957500", "163320.745000", "163321.535000", "163322.322500", "163323.110000", "163323.897500", "163324.687500", "163325.475000", "163326.262500", "163327.050000", "163327.840000", "163328.627500", "163329.415000", "163330.202500", "163330.992500", "163331.780000", "163332.567500", "163333.355000", "163334.145000", "163334.932500", "163335.720000", "163336.507500", "163337.297500", "163338.085000", "163338.872500", "163339.662500", "163340.450000", "163341.237500", "163342.025000", "163342.815000", "163343.602500", "163344.390000", "163345.177500", "163345.967500", "163346.755000", "163347.542500", "163348.330000", "163349.120000", "163349.907500", "163350.695000", "163351.482500", "163352.272500", "163353.060000", "163353.847500", "163354.635000", "163355.425000", "163356.212500", "163357.000000", "163357.790000", "163358.577500", "163359.365000", "163400.152500", "163400.942500", "163401.730000", "163402.517500", "163403.305000", "163404.095000", "163404.882500", "163405.670000", "163406.457500", "163407.247500", "163408.035000", "163408.822500", "163409.610000", "163410.400000", "163411.187500", "163411.975000", "163412.762500", "163413.552500", "163414.340000", "163415.127500", "163415.917500", "163416.705000", "163417.492500", "163418.280000", "163419.070000", "163419.857500", "163420.645000", "163421.432500", "163422.222500", "163423.010000", "163423.797500", "163424.585000", "163425.375000", "163426.162500", "163426.950000", "163427.737500", "163428.527500", "163429.315000", "163430.102500", "163430.890000", "163431.680000", "163432.467500", "163433.255000", "163434.045000", "163434.832500", "163435.620000", "163436.407500", "163437.197500", "163437.985000", "163438.772500", "163439.560000", "163440.350000", "163441.137500", "163441.925000", "163442.712500", "163443.502500", "163444.290000", "163445.077500", "163445.865000", "163446.655000", "163447.442500", "163448.230000", "163449.017500", "163449.807500"],
      "ContentTime": ["180928.984000", "180928.984000", "180928.984000", "180928.984000", "180928.984000", "180929.000000", "180929.000000", "181028.937000", "181028.953000", "181028.953000", "181028.953000", "181028.953000", "181028.968000", "181028.968000", "181028.968000", "181028.968000", "181028.968000", "181028.984000", "181028.984000", "181028.984000", "181028.984000", "181028.984000", "181028.984000", "181028.984000", "181029.000000", "181029.000000", "181029.000000", "181029.000000", "181029.015000", "181029.015000", "181029.015000", "181029.015000", "181029.015000", "181029.015000", "181029.031000", "181029.031000", "181128.937000", "181128.953000", "181128.953000", "181128.953000", "181128.953000", "181128.953000", "181128.953000", "181128.953000", "181128.968000", "181128.968000", "181128.968000", "181128.968000", "181128.968000", "181128.968000", "181128.968000", "181128.984000", "181129.000000", "181129.000000", "181129.000000", "181129.000000", "181129.000000", "181129.000000", "181129.000000", "181129.015000", "181129.015000", "181129.015000", "181129.015000", "181129.015000", "181228.937000", "181228.953000", "181228.953000", "181228.953000", "181228.953000", "181228.953000", "181228.953000", "181228.953000", "181228.968000", "181228.968000", "181228.968000", "181228.968000", "181228.984000", "181228.984000", "181228.984000", "181228.984000", "181228.984000", "181228.984000", "181229.000000", "181229.000000", "181229.000000", "181229.000000", "181229.000000", "181229.000000", "181229.015000", "181229.015000", "181229.015000", "181229.015000", "181328.937000", "181328.953000", "181328.953000", "181328.953000", "181328.953000", "181328.953000", "181328.968000", "181328.968000", "181328.968000", "181328.968000", "181328.968000", "181328.968000", "181328.984000", "181328.984000", "181328.984000", "181328.984000", "181328.984000", "181328.984000", "181328.984000", "181329.000000", "181329.000000", "181329.000000", "181329.015000", "181329.015000", "181329.015000", "181329.015000", "181329.015000", "181329.015000", "181329.031000", "181428.937000", "181428.953000", "181428.953000", "181428.953000", "181428.953000", "181428.968000", "181428.968000", "181428.968000", "181428.968000", "181428.968000", "181428.968000", "181428.968000", "181428.984000", "181428.984000", "181428.984000", "181428.984000", "181428.984000", "181429.000000", "181429.000000", "181429.000000", "181429.000000", "181429.015000", "181429.015000", "181429.015000", "181429.015000", "181429.015000", "181429.015000", "181429.015000", "181528.937000", "181528.953000", "181528.953000", "181528.953000", "181528.953000", "181528.953000", "181528.953000", "181528.968000", "181528.968000", "181528.968000", "181528.968000", "181528.968000", "181528.968000", "181528.984000", "181528.984000", "181528.984000", "181528.984000", "181528.984000", "181528.984000", "181528.984000", "181529.000000", "181529.000000", "181529.000000", "181529.000000", "181529.000000", "181529.000000", "181529.000000", "181529.015000", "181608.937000", "181608.953000", "181608.953000", "181608.953000", "181608.953000", "181608.953000", "181608.953000", "181608.968000", "181608.968000", "181608.968000", "181608.968000", "181608.984000", "181608.984000", "181608.984000", "181608.984000", "181609.000000", "181609.000000", "181609.000000", "181609.000000", "181708.937000", "181708.953000", "181708.953000", "181708.953000", "181708.953000", "181708.953000", "181708.953000", "181708.968000", "181708.968000", "181708.968000", "181708.968000", "181708.968000", "181708.968000", "181708.984000", "181708.984000", "181708.984000", "181708.984000", "181708.984000", "181709.000000", "181709.000000", "181709.000000", "181709.000000", "181709.000000", "181709.000000", "181709.000000", "181709.015000", "181709.015000", "181709.015000", "181709.015000", "181808.937000", "181808.953000", "181808.953000", "181808.953000", "181808.953000", "181808.953000", "181808.953000", "181808.953000", "181808.968000", "181808.984000", "181808.984000", "181808.984000", "181808.984000", "181808.984000", "181808.984000", "181809.000000", "181809.000000", "181809.000000", "181809.000000", "181809.000000", "181809.000000", "181809.000000", "181809.015000", "181809.015000", "181809.015000", "181809.015000", "181809.031000", "181809.031000", "181908.937000", "181908.953000", "181908.953000", "181908.953000", "181908.953000", "181908.968000", "181908.968000", "181908.968000", "181908.968000", "181908.968000", "181908.968000", "181908.984000", "181908.984000", "181908.984000", "181908.984000", "181908.984000", "181908.984000", "181908.984000", "181909.000000", "181909.000000", "181909.000000", "181909.000000", "181909.000000", "181909.015000", "181909.015000", "181909.015000", "181909.015000", "181909.015000", "181909.015000", "182008.937000", "182008.953000", "182008.953000", "182008.953000", "182008.953000", "182008.953000", "182008.953000", "182008.953000", "182008.968000", "182008.968000", "182008.968000", "182008.968000", "182008.968000", "182008.968000", "182008.984000", "182008.984000", "182008.984000", "182009.000000", "182009.000000", "182009.000000", "182009.000000", "182009.000000", "182009.000000", "182009.000000", "182009.015000", "182009.015000", "182009.015000", "182009.015000", "182108.937000", "182108.953000", "182108.953000", "182108.953000", "182108.953000", "182108.953000", "182108.953000", "182108.968000", "182108.968000", "182108.968000", "182108.984000", "182108.984000", "182108.984000", "182108.984000", "182108.984000", "182108.984000", "182109.000000", "182109.000000", "182109.000000", "182109.000000", "182109.000000", "182109.000000", "182109.000000", "182109.015000", "182109.015000", "182109.015000", "182109.015000", "182109.015000", "182208.937000", "182208.953000", "182208.953000", "182208.953000", "182208.953000", "182208.968000", "182208.968000", "182208.968000", "182208.968000", "182208.968000", "182208.968000", "182208.968000", "182208.984000", "182208.984000", "182208.984000", "182208.984000", "182208.984000", "182208.984000", "182208.984000", "182209.000000", "182209.000000", "182209.000000", "182209.015000", "182209.015000", "182209.015000", "182209.015000", "182209.015000", "182209.015000", "182209.031000", "182308.937000", "182308.953000", "182308.953000", "182308.953000", "182308.953000", "182308.953000", "182308.953000", "182308.968000", "182308.968000", "182308.968000", "182308.968000", "182308.968000", "182308.968000", "182308.968000", "182308.984000", "182308.984000", "182308.984000", "182308.984000", "182309.000000", "182309.000000", "182309.000000", "182309.000000", "182309.000000", "182309.000000", "182309.015000", "182309.015000", "182309.015000", "182309.015000", "182408.937000", "182408.953000", "182408.953000", "182408.953000", "182408.953000", "182408.953000", "182408.953000", "182408.968000", "182408.968000", "182408.968000", "182408.968000", "182408.984000", "182408.984000", "182408.984000", "182408.984000", "182408.984000", "182408.984000", "182409.000000", "182409.000000", "182409.000000", "182409.000000", "182409.000000", "182409.000000", "182409.000000", "182409.000000", "182409.015000", "182409.015000", "182409.015000", "182409.015000", "182508.937000", "182508.953000", "182508.953000", "182508.953000", "182508.968000", "182508.968000", "182508.968000", "182508.968000", "182508.968000", "182508.968000", "182508.984000", "182508.984000", "182508.984000", "182508.984000", "182508.984000", "182508.984000", "182508.984000", "182509.000000", "182509.000000", "182509.000000", "182509.015000", "182509.015000", "182509.015000", "182509.015000", "182509.015000", "182509.015000", "182509.031000", "182509.031000", "182608.937000", "182608.953000", "182608.953000", "182608.953000", "182608.953000", "182608.953000", "182608.953000", "182608.968000", "182608.968000", "182608.968000", "182608.968000", "182608.968000", "182608.968000", "182608.968000", "182608.984000", "182608.984000", "182608.984000", "182608.984000", "182609.000000", "182609.000000", "182609.000000", "182609.000000", "182609.000000", "182609.000000", "182609.000000", "182609.015000", "182609.015000", "182609.015000", "182708.937000", "182708.953000", "182708.953000", "182708.953000", "182708.953000", "182708.953000", "182708.953000", "182708.968000", "182708.968000", "182708.968000", "182708.984000", "182708.984000", "182708.984000", "182708.984000", "182708.984000", "182708.984000", "182708.984000", "182709.000000", "182709.000000", "182709.000000", "182709.000000", "182709.000000", "182709.000000", "182709.000000", "182709.015000", "182709.015000", "182709.015000", "182709.015000", "182709.031000", "182808.937000", "182808.953000", "182808.953000", "182808.953000", "182808.953000", "182808.953000", "182808.968000", "182808.968000", "182808.968000", "182808.968000", "182808.968000", "182808.968000", "182808.968000", "182808.984000", "182808.984000", "182808.984000", "182808.984000", "182808.984000", "182808.984000", "182808.984000", "182809.000000", "182809.000000", "182809.000000", "182809.000000", "182809.015000", "182809.015000", "182809.015000", "182809.015000", "182908.937000", "182908.953000", "182908.953000", "182908.953000", "182908.953000", "182908.968000", "182908.968000", "182908.968000", "182908.968000", "182908.968000", "182908.968000", "182908.968000", "182908.984000", "182908.984000", "182908.984000", "182908.984000", "182909.000000", "182909.000000", "182909.000000", "182909.000000", "182909.000000", "182909.000000", "182909.000000", "182909.015000", "182909.015000", "182909.015000", "182909.015000", "182909.015000", "182909.015000", "182940.046000", "182940.046000", "182940.046000", "182940.062000", "182940.062000", "182940.062000", "182940.062000", "182940.062000", "182940.078000", "182940.078000", "182940.078000", "182940.078000", "182940.078000", "182940.078000", "182940.078000"],
