{
  "AcquisitionMatrixPE": 104,
  "AcquisitionNumber": 1,
  "AcquisitionTime": "15:51:55.150000",
  "BandwidthPerPixelPhaseEncode": 13.935,
  "BaseResolution": 104,
  "CoilString": "C:HEA;HEP",
  "ConversionSoftware": "dcm2niix",
  "ConversionSoftwareVersion": "v1.0.20210317",
  "DerivedVendorReportedEchoSpacing": 0.000690017,
  "DeviceSerialNumber": "35450",
  "DwellTime": 2.5e-06,
  "EchoTime": 0.0348,
  "EffectiveEchoSpacing": 0.000690017,
  "FlipAngle": 55,
  "ImageComments": "Unaliased MB8/PE3",
  "ImageOrientationPatientDICOM": [0.999847, 0.00124774, 0.0174453, 2.4845e-08, 0.997452, -0.0713422],
  "ImageType": [
    "ORIGINAL",
    "PRIMARY",
    "M",
    "MB",
    "ND",
    "MOSAIC"
],
  "ImagingFrequency": 123.235,
  "InPlanePhaseEncodingDirectionDICOM": "COL",
  "InstitutionAddress": "Univeristy Ave. 197,Newark,North East,US,07102-1814",
  "InstitutionName": "RUBIC",
  "InstitutionalDepartmentName": "Department",
  "MRAcquisitionType": "2D",
  "MagneticFieldStrength": 3,
  "Manufacturer": "Siemens",
  "ManufacturersModelName": "TrioTim",
  "Modality": "MR",
  "MultibandAccelerationFactor": 8,
  "PartialFourier": 0.875,
  "PatientPosition": "HFS",
  "PercentPhaseFOV": 100,
  "PercentSampling": 100,
  "PhaseEncodingDirection": "j-",
  "PhaseEncodingSteps": 91,
  "PhaseResolution": 1,
  "PixelBandwidth": 1923,
  "ProcedureStepDescription": "Cole^Michael",
  "ProtocolName": "cmrr_mbep2d_bold_2mm_MB8_Task_8x",
  "PulseSequenceDetails": "%CustomerSeq%\\cmrr_mbep2d_bold",
  "ReceiveCoilName": "32Ch_Head",
  "ReconMatrixPE": 104,
  "RepetitionTime": 0.785,
  "SAR": 0.126482,
  "ScanOptions": "PFP\\FS",
  "ScanningSequence": "EP",
  "SequenceName": "epfid2d1_104",
  "SequenceVariant": "SK\\SS",
  "SeriesDescription": "cmrr_mbep2d_bold_2mm_MB8_Task_8x",
  "SeriesNumber": 15,
  "ShimSetting": [2182, -334, -7368, 388, 301, -233, 128, -106],
  "SliceThickness": 2,
  "SliceTiming": [0, 0.4375, 0.0875, 0.525, 0.175, 0.6125, 0.2625, 0.7, 0.35, 0, 0.4375, 0.0875, 0.525, 0.175, 0.6125, 0.2625, 0.7, 0.35, 0, 0.4375, 0.0875, 0.525, 0.175, 0.6125, 0.2625, 0.7, 0.35, 0, 0.4375, 0.0875, 0.525, 0.175, 0.6125, 0.2625, 0.7, 0.35, 0, 0.4375, 0.0875, 0.525, 0.175, 0.6125, 0.2625, 0.7, 0.35, 0, 0.4375, 0.0875, 0.525, 0.175, 0.6125, 0.2625, 0.7, 0.35, 0, 0.4375, 0.0875, 0.525, 0.175, 0.6125, 0.2625, 0.7, 0.35, 0, 0.4375, 0.0875, 0.525, 0.175, 0.6125, 0.2625, 0.7, 0.35],
  "SoftwareVersions": "syngo MR B19",
  "SpacingBetweenSlices": 2,
  "StationName": "MRC35450",
  "TaskName": "cpro",
  "TotalReadoutTime": 0.0710717,
  "TxRefAmp": 317.037,
  "dcmmeta_affine": [
    [-1.9996941089630127, 4.969008315924839e-08, 0.03497971594333649, 102.92613220214844],
    [-0.0024954795371741056, 1.994903802871704, -0.14266254007816315, -81.37686920166016],
    [0.03489058464765549, 0.14268437027931213, 1.9945987462997437, -100.97505950927734],
    [0.0, 0.0, 0.0, 1.0]
],
  "dcmmeta_reorient_transform": [
    [0.0, -1.0, 0.0, 103.0],
    [1.0, 0.0, 0.0, 0.0],
    [0.0, 0.0, 1.0, 0.0],
    [0.0, 0.0, 0.0, 1.0]
],
  "dcmmeta_shape": [104, 104, 72, 581],
  "dcmmeta_slice_dim": 2,
  "dcmmeta_version": 0.6,
  "global": {
    "const": {
      "AcquisitionMatrix": [104, 0, 0, 104],
      "AngioFlag": "N",
      "BitsAllocated": 16,
      "BitsStored": 12,
      "Columns": 936,
      "EchoNumbers": 1,
      "EchoTime": 34.8,
      "EchoTrainLength": 1,
      "FlipAngle": 55.0,
      "HighBit": 11,
      "ImageOrientationPatient": [0.99984704075692, 0.0012477397768, 0.01744529263365, 2.4845042e-08, 0.99745190008499, -0.071342182591],
      "ImagePositionPatient": [-934.79889837681, -955.01632619799, -41.436361097571],
      "ImageType": [
        "ORIGINAL",
        "PRIMARY",
        "M",
        "MB",
        "ND",
        "MOSAIC"
],
      "ImagedNucleus": "1H",
      "ImagingFrequency": 123.23483,
      "InPlanePhaseEncodingDirection": "COL",
      "MRAcquisitionType": "2D",
      "MagneticFieldStrength": 3.0,
      "Manufacturer": "SIEMENS",
      "ManufacturerModelName": "TrioTim",
      "Modality": "MR",
      "NumberOfAverages": 1.0,
      "NumberOfPhaseEncodingSteps": 91,
      "PercentPhaseFieldOfView": 100.0,
      "PercentSampling": 100.0,
      "PerformedProcedureStepStartTime": "145806.125000",
      "PhotometricInterpretation": "MONOCHROME2",
      "PixelBandwidth": 1923.0,
      "PixelRepresentation": 0,
      "PixelSpacing": [2.0, 2.0],
      "ProtocolName": "cmrr_mbep2d_bold_2mm_MB8_Task_8x",
      "RepetitionTime": 785.0,
      "Rows": 936,
      "SAR": 0.12648226068818,
      "SamplesPerPixel": 1,
      "ScanOptions": [
        "PFP",
        "FS"
],
      "ScanningSequence": "EP",
      "SequenceName": "epfid2d1_104",
      "SequenceVariant": [
        "SK",
        "SS"
],
      "SeriesDescription": "cmrr_mbep2d_bold_2mm_MB8_Task_8x",
      "SeriesNumber": 15,
      "SeriesTime": "162207.312000",
      "SliceLocation": -93.097484318613,
      "SliceThickness": 2.0,
      "SmallestImagePixelValue": 0,
      "SoftwareVersions": "syngo MR B19",
      "SpacingBetweenSlices": 2.0000000500871,
      "SpecificCharacterSet": "ISO_IR 100",
      "StudyID": "1",
      "StudyTime": "145806.031000",
      "TransmitCoilName": "Body",
      "VariableFlipAngleFlag": "N",
      "WindowCenterWidthExplanation": "Algo1",
      "dBdt": 0.0},
    "slices": {}
  },
  "time": {
    "samples": {
      "AcquisitionNumber": [1, 2, 3, 4, 5, 6, 7, 8, 9, 10, 11, 12, 13, 14, 15, 16, 17, 18, 19, 20, 21, 22, 23, 24, 25, 26, 27, 28, 29, 30, 31, 32, 33, 34, 35, 36, 37, 38, 39, 40, 41, 42, 43, 44, 45, 46, 47, 48, 49, 50, 51, 52, 53, 54, 55, 56, 57, 58, 59, 60, 61, 62, 63, 64, 65, 66, 67, 68, 69, 70, 71, 72, 73, 74, 75, 76, 77, 78, 79, 80, 81, 82, 83, 84, 85, 86, 87, 88, 89, 90, 91, 92, 93, 94, 95, 96, 97, 98, 99, 100, 101, 102, 103, 104, 105, 106, 107, 108, 109, 110, 111, 112, 113, 114, 115, 116, 117, 118, 119, 120, 121, 122, 123, 124, 125, 126, 127, 128, 129, 130, 131, 132, 133, 134, 135, 136, 137, 138, 139, 140, 141, 142, 143, 144, 145, 146, 147, 148, 149, 150, 151, 152, 153, 154, 155, 156, 157, 158, 159, 160, 161, 162, 163, 164, 165, 166, 167, 168, 169, 170, 171, 172, 173, 174, 175, 176, 177, 178, 179, 180, 181, 182, 183, 184, 185, 186, 187, 188, 189, 190, 191, 192, 193, 194, 195, 196, 197, 198, 199, 200, 201, 202, 203, 204, 205, 206, 207, 208, 209, 210, 211, 212, 213, 214, 215, 216, 217, 218, 219, 220, 221, 222, 223, 224, 225, 226, 227, 228, 229, 230, 231, 232, 233, 234, 235, 236, 237, 238, 239, 240, 241, 242, 243, 244, 245, 246, 247, 248, 249, 250, 251, 252, 253, 254, 255, 256, 257, 258, 259, 260, 261, 262, 263, 264, 265, 266, 267, 268, 269, 270, 271, 272, 273, 274, 275, 276, 277, 278, 279, 280, 281, 282, 283, 284, 285, 286, 287, 288, 289, 290, 291, 292, 293, 294, 295, 296, 297, 298, 299, 300, 301, 302, 303, 304, 305, 306, 307, 308, 309, 310, 311, 312, 313, 314, 315, 316, 317, 318, 319, 320, 321, 322, 323, 324, 325, 326, 327, 328, 329, 330, 331, 332, 333, 334, 335, 336, 337, 338, 339, 340, 341, 342, 343, 344, 345, 346, 347, 348, 349, 350, 351, 352, 353, 354, 355, 356, 357, 358, 359, 360, 361, 362, 363, 364, 365, 366, 367, 368, 369, 370, 371, 372, 373, 374, 375, 376, 377, 378, 379, 380, 381, 382, 383, 384, 385, 386, 387, 388, 389, 390, 391, 392, 393, 394, 395, 396, 397, 398, 399, 400, 401, 402, 403, 404, 405, 406, 407, 408, 409, 410, 411, 412, 413, 414, 415, 416, 417, 418, 419, 420, 421, 422, 423, 424, 425, 426, 427, 428, 429, 430, 431, 432, 433, 434, 435, 436, 437, 438, 439, 440, 441, 442, 443, 444, 445, 446, 447, 448, 449, 450, 451, 452, 453, 454, 455, 456, 457, 458, 459, 460, 461, 462, 463, 464, 465, 466, 467, 468, 469, 470, 471, 472, 473, 474, 475, 476, 477, 478, 479, 480, 481, 482, 483, 484, 485, 486, 487, 488, 489, 490, 491, 492, 493, 494, 495, 496, 497, 498, 499, 500, 501, 502, 503, 504, 505, 506, 507, 508, 509, 510, 511, 512, 513, 514, 515, 516, 517, 518, 519, 520, 521, 522, 523, 524, 525, 526, 527, 528, 529, 530, 531, 532, 533, 534, 535, 536, 537, 538, 539, 540, 541, 542, 543, 544, 545, 546, 547, 548, 549, 550, 551, 552, 553, 554, 555, 556, 557, 558, 559, 560, 561, 562, 563, 564, 565, 566, 567, 568, 569, 570, 571, 572, 573, 574, 575, 576, 577, 578, 579, 580, 581],
      "AcquisitionTime": ["155155.150000", "155155.937500", "155156.725000", "155157.512500", "155158.302500", "155159.090000", "155159.877500", "155200.665000", "155201.455000", "155202.242500", "155203.030000", "155203.817500", "155204.607500", "155205.395000", "155206.182500", "155206.970000", "155207.760000", "155208.547500", "155209.335000", "155210.125000", "155210.912500", "155211.700000", "155212.487500", "155213.277500", "155214.065000", "155214.852500", "155215.640000", "155216.430000", "155217.217500", "155218.005000", "155218.792500", "155219.582500", "155220.370000", "155221.157500", "155221.945000", "155222.735000", "155223.522500", "155224.310000", "155225.097500", "155225.887500", "155226.675000", "155227.462500", "155228.252500", "155229.040000", "155229.827500", "155230.615000", "155231.405000", "155232.192500", "155232.980000", "155233.767500", "155234.557500", "155235.345000", "155236.132500", "155236.920000", "155237.710000", "155238.497500", "155239.285000", "155240.072500", "155240.862500", "155241.650000", "155242.437500", "155243.225000", "155244.015000", "155244.802500", "155245.590000", "155246.380000", "155247.167500", "155247.955000", "155248.742500", "155249.532500", "155250.320000", "155251.107500", "155251.895000", "155252.685000", "155253.472500", "155254.260000", "155255.047500", "155255.837500", "155256.625000", "155257.412500", "155258.200000", "155258.990000", "155259.777500", "155300.565000", "155301.352500", "155302.142500", "155302.930000", "155303.717500", "155304.507500", "155305.295000", "155306.082500", "155306.870000", "155307.660000", "155308.447500", "155309.235000", "155310.022500", "155310.812500", "155311.600000", "155312.387500", "155313.175000", "155313.965000", "155314.752500", "155315.540000", "155316.327500", "155317.117500", "155317.905000", "155318.692500", "155319.480000", "155320.270000", "155321.057500", "155321.845000", "155322.635000", "155323.422500", "155324.210000", "155324.997500", "155325.787500", "155326.575000", "155327.362500", "155328.150000", "155328.940000", "155329.727500", "155330.515000", "155331.302500", "155332.092500", "155332.880000", "155333.667500", "155334.455000", "155335.245000", "155336.032500", "155336.820000", "155337.610000", "155338.397500", "155339.185000", "155339.972500", "155340.762500", "155341.550000", "155342.337500", "155343.125000", "155343.915000", "155344.702500", "155345.490000", "155346.277500", "155347.067500", "155347.855000", "155348.642500", "155349.430000", "155350.220000", "155351.007500", "155351.795000", "155352.582500", "155353.372500", "155354.160000", "155354.947500", "155355.737500", "155356.525000", "155357.312500", "155358.100000", "155358.890000", "155359.677500", "155400.465000", "155401.252500", "155402.042500", "155402.830000", "155403.617500", "155404.405000", "155405.195000", "155405.982500", "155406.770000", "155407.557500", "155408.347500", "155409.135000", "155409.922500", "155410.710000", "155411.500000", "155412.287500", "155413.075000", "155413.865000", "155414.652500", "155415.440000", "155416.227500", "155417.017500", "155417.805000", "155418.592500", "155419.380000", "155420.170000", "155420.957500", "155421.745000", "155422.532500", "155423.322500", "155424.110000", "155424.897500", "155425.685000", "155426.475000", "155427.262500", "155428.050000", "155428.837500", "155429.627500", "155430.415000", "155431.202500", "155431.992500", "155432.780000", "155433.567500", "155434.355000", "155435.145000", "155435.932500", "155436.720000", "155437.507500", "155438.297500", "155439.085000", "155439.872500", "155440.660000", "155441.450000", "155442.237500", "155443.025000", "155443.812500", "155444.602500", "155445.390000", "155446.177500", "155446.965000", "155447.755000", "155448.542500", "155449.330000", "155450.120000", "155450.907500", "155451.695000", "155452.482500", "155453.272500", "155454.060000", "155454.847500", "155455.635000", "155456.425000", "155457.212500", "155458.000000", "155458.787500", "155459.577500", "155500.365000", "155501.152500", "155501.940000", "155502.730000", "155503.517500", "155504.305000", "155505.092500", "155505.882500", "155506.670000", "155507.457500", "155508.247500", "155509.035000", "155509.822500", "155510.610000", "155511.400000", "155512.187500", "155512.975000", "155513.762500", "155514.552500", "155515.340000", "155516.127500", "155516.915000", "155517.705000", "155518.492500", "155519.280000", "155520.067500", "155520.857500", "155521.645000", "155522.432500", "155523.220000", "155524.010000", "155524.797500", "155525.585000", "155526.375000", "155527.162500", "155527.950000", "155528.737500", "155529.527500", "155530.315000", "155531.102500", "155531.890000", "155532.680000", "155533.467500", "155534.255000", "155535.042500", "155535.832500", "155536.620000", "155537.407500", "155538.195000", "155538.985000", "155539.772500", "155540.560000", "155541.347500", "155542.137500", "155542.925000", "155543.712500", "155544.502500", "155545.290000", "155546.077500", "155546.865000", "155547.655000", "155548.442500", "155549.230000", "155550.017500", "155550.807500", "155551.595000", "155552.382500", "155553.170000", "155553.960000", "155554.747500", "155555.535000", "155556.322500", "155557.112500", "155557.900000", "155558.687500", "155559.475000", "155600.265000", "155601.052500", "155601.840000", "155602.630000", "155603.417500", "155604.205000", "155604.992500", "155605.782500", "155606.570000", "155607.357500", "155608.145000", "155608.935000", "155609.722500", "155610.510000", "155611.297500", "155612.087500", "155612.875000", "155613.662500", "155614.450000", "155615.240000", "155616.027500", "155616.815000", "155617.602500", "155618.392500", "155619.180000", "155619.967500", "155620.757500", "155621.545000", "155622.332500", "155623.120000", "155623.910000", "155624.697500", "155625.485000", "155626.272500", "155627.062500", "155627.850000", "155628.637500", "155629.425000", "155630.215000", "155631.002500", "155631.790000", "155632.577500", "155633.367500", "155634.155000", "155634.942500", "155635.730000", "155636.520000", "155637.307500", "155638.095000", "155638.885000", "155639.672500", "155640.460000", "155641.247500", "155642.037500", "155642.825000", "155643.612500", "155644.400000", "155645.190000", "155645.977500", "155646.765000", "155647.552500", "155648.342500", "155649.130000", "155649.917500", "155650.705000", "155651.495000", "155652.282500", "155653.070000", "155653.860000", "155654.647500", "155655.435000", "155656.222500", "155657.012500", "155657.800000", "155658.587500", "155659.375000", "155700.165000", "155700.952500", "155701.740000", "155702.527500", "155703.317500", "155704.105000", "155704.892500", "155705.680000", "155706.470000", "155707.257500", "155708.045000", "155708.832500", "155709.622500", "155710.410000", "155711.197500", "155711.987500", "155712.775000", "155713.562500", "155714.350000", "155715.140000", "155715.927500", "155716.715000", "155717.502500", "155718.292500", "155719.080000", "155719.867500", "155720.655000", "155721.445000", "155722.232500", "155723.020000", "155723.807500", "155724.597500", "155725.385000", "155726.172500", "155726.960000", "155727.750000", "155728.537500", "155729.325000", "155730.115000", "155730.902500", "155731.690000", "155732.477500", "155733.267500", "155734.055000", "155734.842500", "155735.630000", "155736.420000", "155737.207500", "155737.995000", "155738.782500", "155739.572500", "155740.360000", "155741.147500", "155741.935000", "155742.725000", "155743.512500", "155744.300000", "155745.087500", "155745.877500", "155746.665000", "155747.452500", "155748.242500", "155749.030000", "155749.817500", "155750.605000", "155751.395000", "155752.182500", "155752.970000", "155753.757500", "155754.547500", "155755.335000", "155756.122500", "155756.910000", "155757.700000", "155758.487500", "155759.275000", "155800.062500", "155800.852500", "155801.640000", "155802.427500", "155803.215000", "155804.005000", "155804.792500", "155805.580000", "155806.370000", "155807.157500", "155807.945000", "155808.732500", "155809.522500", "155810.310000", "155811.097500", "155811.885000", "155812.675000", "155813.462500", "155814.250000", "155815.037500", "155815.827500", "155816.615000", "155817.402500", "155818.190000", "155818.980000", "155819.767500", "155820.555000", "155821.342500", "155822.132500", "155822.920000", "155823.707500", "155824.497500", "155825.285000", "155826.072500", "155826.860000", "155827.650000", "155828.437500", "155829.225000", "155830.012500", "155830.802500", "155831.590000", "155832.377500", "155833.165000", "155833.955000", "155834.742500", "155835.530000", "155836.317500", "155837.107500", "155837.895000", "155838.682500", "155839.470000", "155840.260000", "155841.047500", "155841.835000", "155842.625000", "155843.412500", "155844.200000", "155844.987500", "155845.777500", "155846.565000", "155847.352500", "155848.140000", "155848.930000", "155849.717500", "155850.505000", "155851.292500", "155852.082500", "155852.870000", "155853.657500", "155854.445000", "155855.235000", "155856.022500", "155856.810000", "155857.597500", "155858.387500", "155859.175000", "155859.962500", "155900.752500", "155901.540000", "155902.327500", "155903.115000", "155903.905000", "155904.692500", "155905.480000", "155906.267500", "155907.057500", "155907.845000", "155908.632500", "155909.420000", "155910.210000", "155910.997500", "155911.785000", "155912.572500", "155913.362500", "155914.150000", "155914.937500", "155915.725000", "155916.515000", "155917.302500", "155918.090000", "155918.880000", "155919.667500", "155920.455000", "155921.242500", "155922.032500", "155922.820000", "155923.607500", "155924.395000", "155925.185000", "155925.972500", "155926.760000", "155927.547500", "155928.337500", "155929.125000", "155929.912500", "155930.700000", "155931.490000", "155932.277500"],
      "ContentTime": ["162207.312000", "162207.312000", "162207.328000", "162207.328000", "162207.328000", "162207.328000", "162307.296000", "162307.296000", "162307.296000", "162307.312000", "162307.312000", "162307.312000", "162307.312000", "162307.312000", "162307.312000", "162307.312000", "162307.328000", "162307.328000", "162307.328000", "162307.328000", "162307.328000", "162307.343000", "162307.343000", "162307.343000", "162307.343000", "162307.343000", "162307.343000", "162307.343000", "162307.359000", "162307.359000", "162307.359000", "162307.359000", "162307.359000", "162407.296000", "162407.296000", "162407.296000", "162407.312000", "162407.312000", "162407.312000", "162407.312000", "162407.312000", "162407.312000", "162407.312000", "162407.328000", "162407.328000", "162407.328000", "162407.328000", "162407.328000", "162407.328000", "162407.328000", "162407.343000", "162407.343000", "162407.343000", "162407.343000", "162407.343000", "162407.343000", "162407.343000", "162407.359000", "162407.359000", "162407.359000", "162407.359000", "162507.296000", "162507.296000", "162507.296000", "162507.312000", "162507.312000", "162507.312000", "162507.312000", "162507.312000", "162507.312000", "162507.312000", "162507.328000", "162507.328000", "162507.328000", "162507.328000", "162507.328000", "162507.328000", "162507.343000", "162507.343000", "162507.343000", "162507.343000", "162507.343000", "162507.343000", "162507.343000", "162507.359000", "162507.359000", "162507.359000", "162507.359000", "162607.296000", "162607.296000", "162607.296000", "162607.312000", "162607.312000", "162607.312000", "162607.312000", "162607.312000", "162607.312000", "162607.328000", "162607.328000", "162607.328000", "162607.328000", "162607.328000", "162607.328000", "162607.328000", "162607.343000", "162607.343000", "162607.343000", "162607.343000", "162607.343000", "162607.343000", "162607.343000", "162607.359000", "162607.375000", "162607.375000", "162607.375000", "162607.375000", "162707.296000", "162707.296000", "162707.296000", "162707.312000", "162707.312000", "162707.312000", "162707.312000", "162707.312000", "162707.312000", "162707.312000", "162707.328000", "162707.328000", "162707.328000", "162707.328000", "162707.328000", "162707.328000", "162707.328000", "162707.343000", "162707.343000", "162707.343000", "162707.343000", "162707.343000", "162707.343000", "162707.359000", "162707.359000", "162707.359000", "162707.359000", "162807.296000", "162807.296000", "162807.296000", "162807.312000", "162807.312000", "162807.312000", "162807.312000", "162807.312000", "162807.328000", "162807.328000", "162807.328000", "162807.328000", "162807.328000", "162807.328000", "162807.328000", "162807.343000", "162807.343000", "162807.343000", "162807.343000", "162807.343000", "162807.343000", "162807.343000", "162807.359000", "162807.359000", "162807.359000", "162807.359000", "162807.359000", "162807.359000", "162907.296000", "162907.296000", "162907.296000", "162907.312000", "162907.312000", "162907.312000", "162907.312000", "162907.312000", "162907.312000", "162907.328000", "162907.328000", "162907.328000", "162907.328000", "162907.328000", "162907.328000", "162907.328000", "162907.343000", "162907.343000", "162907.343000", "162907.343000", "162907.343000", "162907.343000", "162907.343000", "162907.359000", "162907.359000", "162907.359000", "162907.359000", "163007.296000", "163007.296000", "163007.296000", "163007.312000", "163007.312000", "163007.312000", "163007.312000", "163007.312000", "163007.312000", "163007.312000", "163007.328000", "163007.328000", "163007.328000", "163007.328000", "163007.328000", "163007.328000", "163007.328000", "163007.343000", "163007.343000", "163007.343000", "163007.343000", "163007.343000", "163007.343000", "163007.343000", "163007.359000", "163007.359000", "163007.359000", "163107.296000", "163107.296000", "163107.312000", "163107.312000", "163107.312000", "163107.312000", "163107.312000", "163107.312000", "163107.312000", "163107.328000", "163107.328000", "163107.328000", "163107.328000", "163107.328000", "163107.328000", "163107.343000", "163107.343000", "163107.343000", "163107.343000", "163107.343000", "163107.343000", "163107.343000", "163107.359000", "163107.359000", "163107.359000", "163107.359000", "163107.359000", "163107.359000", "163207.296000", "163207.296000", "163207.296000", "163207.312000", "163207.312000", "163207.312000", "163207.312000", "163207.312000", "163207.312000", "163207.312000", "163207.328000", "163207.328000", "163207.328000", "163207.328000", "163207.328000", "163207.328000", "163207.343000", "163207.343000", "163207.343000", "163207.343000", "163207.343000", "163207.343000", "163207.343000", "163207.359000", "163207.359000", "163207.359000", "163207.359000", "163307.312000", "163307.312000", "163307.312000", "163307.312000", "163307.328000", "163307.328000", "163307.328000", "163307.328000", "163307.328000", "163307.328000", "163307.328000", "163307.343000", "163307.343000", "163307.343000", "163307.343000", "163307.343000", "163307.343000", "163307.343000", "163307.359000", "163307.359000", "163307.359000", "163307.359000", "163307.359000", "163307.359000", "163307.359000", "163307.375000", "163307.375000", "163307.375000", "163407.312000", "163407.312000", "163407.312000", "163407.312000", "163407.312000", "163407.312000", "163407.312000", "163407.328000", "163407.328000", "163407.328000", "163407.328000", "163407.328000", "163407.343000", "163407.343000", "163407.343000", "163407.343000", "163407.343000", "163407.359000", "163407.359000", "163407.359000", "163407.359000", "163407.359000", "163407.359000", "163407.359000", "163407.375000", "163407.375000", "163407.375000", "163407.375000", "163507.312000", "163507.312000", "163507.312000", "163507.312000", "163507.312000", "163507.312000", "163507.312000", "163507.328000", "163507.328000", "163507.328000", "163507.328000", "163507.328000", "163507.328000", "163507.328000", "163507.343000", "163507.343000", "163507.343000", "163507.343000", "163507.343000", "163507.343000", "163507.343000", "163507.359000", "163507.359000", "163507.359000", "163507.359000", "163507.359000", "163507.359000", "163607.312000", "163607.312000", "163607.312000", "163607.312000", "163607.328000", "163607.328000", "163607.328000", "163607.328000", "163607.328000", "163607.328000", "163607.343000", "163607.343000", "163607.343000", "163607.343000", "163607.343000", "163607.343000", "163607.343000", "163607.359000", "163607.359000", "163607.359000", "163607.359000", "163607.359000", "163607.359000", "163607.375000", "163607.375000", "163607.375000", "163607.375000", "163707.312000", "163707.312000", "163707.312000", "163707.312000", "163707.312000", "163707.312000", "163707.312000", "163707.328000", "163707.328000", "163707.328000", "163707.328000", "163707.328000", "163707.328000", "163707.328000", "163707.343000", "163707.343000", "163707.343000", "163707.343000", "163707.343000", "163707.343000", "163707.359000", "163707.359000", "163707.359000", "163707.359000", "163707.359000", "163707.359000", "163707.359000", "163707.375000", "163807.312000", "163807.312000", "163807.312000", "163807.312000", "163807.312000", "163807.312000", "163807.312000", "163807.328000", "163807.328000", "163807.328000", "163807.328000", "163807.328000", "163807.328000", "163807.328000", "163807.343000", "163807.343000", "163807.343000", "163807.343000", "163807.343000", "163807.343000", "163807.343000", "163807.359000", "163807.359000", "163807.359000", "163807.375000", "163807.375000", "163807.375000", "163907.312000", "163907.312000", "163907.312000", "163907.312000", "163907.312000", "163907.312000", "163907.312000", "163907.328000", "163907.328000", "163907.328000", "163907.328000", "163907.328000", "163907.328000", "163907.328000", "163907.343000", "163907.343000", "163907.343000", "163907.343000", "163907.343000", "163907.343000", "163907.343000", "163907.359000", "163907.359000", "163907.359000", "163907.359000", "163907.359000", "163907.359000", "163907.359000", "164007.312000", "164007.312000", "164007.312000", "164007.312000", "164007.312000", "164007.312000", "164007.312000", "164007.328000", "164007.328000", "164007.328000", "164007.328000", "164007.328000", "164007.328000", "164007.328000", "164007.343000", "164007.343000", "164007.343000", "164007.343000", "164007.343000", "164007.343000", "164007.343000", "164007.359000", "164007.359000", "164007.359000", "164007.359000", "164007.359000", "164007.359000", "164107.312000", "164107.312000", "164107.312000", "164107.312000", "164107.328000", "164107.328000", "164107.328000", "164107.328000", "164107.328000", "164107.328000", "164107.343000", "164107.343000", "164107.343000", "164107.343000", "164107.343000", "164107.343000", "164107.343000", "164107.359000", "164107.359000", "164107.359000", "164107.359000", "164107.359000", "164107.359000", "164107.359000", "164107.359000", "164107.375000", "164107.375000", "164107.375000", "164207.296000", "164207.296000", "164207.312000", "164207.312000", "164207.312000", "164207.312000", "164207.312000", "164207.312000", "164207.312000", "164207.328000", "164207.328000", "164207.328000", "164207.328000", "164207.328000", "164207.328000", "164207.328000", "164207.343000", "164207.343000", "164207.343000", "164207.343000", "164207.343000", "164207.343000", "164207.343000", "164207.359000", "164207.359000", "164207.359000", "164207.359000", "164301.968000", "164301.984000", "164301.984000", "164301.984000", "164301.984000", "164301.984000", "164301.984000", "164301.984000", "164302.000000", "164302.000000", "164302.000000", "164302.000000", "164302.000000", "164302.015000", "164302.015000", "164302.015000", "164302.015000", "164302.015000", "164302.015000", "164302.015000", "164302.031000", "164302.031000", "164302.031000", "164302.031000", "164302.031000", "164302.031000"],
