{
  "AcquisitionMatrixPE": 104,
  "AcquisitionNumber": 1,
  "AcquisitionTime": "16:33:10.742500",
  "BandwidthPerPixelPhaseEncode": 13.935,
  "BaseResolution": 104,
  "CoilString": "C:HEA;HEP",
  "ConversionSoftware": "dcm2niix",
  "ConversionSoftwareVersion": "v1.0.20210317",
  "DerivedVendorReportedEchoSpacing": 0.000690017,
  "DeviceSerialNumber": "35450",
  "DwellTime": 2.5e-06,
  "EchoTime": 0.0348,
  "EffectiveEchoSpacing": 0.000690017,
  "FlipAngle": 55,
  "ImageComments": "Unaliased MB8/PE3",
  "ImageOrientationPatientDICOM": [0.999847, 0.00124774, 0.0174453, 2.4845e-08, 0.997452, -0.0713422],
  "ImageType": [
    "ORIGINAL",
    "PRIMARY",
    "M",
    "MB",
    "ND",
    "MOSAIC"
],
  "ImagingFrequency": 123.235,
  "InPlanePhaseEncodingDirectionDICOM": "COL",
  "InstitutionAddress": "Univeristy Ave. 197,Newark,North East,US,07102-1814",
  "InstitutionName": "RUBIC",
  "InstitutionalDepartmentName": "Department",
  "MRAcquisitionType": "2D",
  "MagneticFieldStrength": 3,
  "Manufacturer": "Siemens",
  "ManufacturersModelName": "TrioTim",
  "Modality": "MR",
  "MultibandAccelerationFactor": 8,
  "PartialFourier": 0.875,
  "PatientPosition": "HFS",
  "PercentPhaseFOV": 100,
  "PercentSampling": 100,
  "PhaseEncodingDirection": "j-",
  "PhaseEncodingSteps": 91,
  "PhaseResolution": 1,
  "PixelBandwidth": 1923,
  "ProcedureStepDescription": "Cole^Michael",
  "ProtocolName": "cmrr_mbep2d_bold_2mm_MB8_Task_8x",
  "PulseSequenceDetails": "%CustomerSeq%\\cmrr_mbep2d_bold",
  "ReceiveCoilName": "32Ch_Head",
  "ReconMatrixPE": 104,
  "RepetitionTime": 0.785,
  "SAR": 0.121533,
  "ScanOptions": "PFP\\FS",
  "ScanningSequence": "EP",
  "SequenceName": "epfid2d1_104",
  "SequenceVariant": "SK\\SS",
  "SeriesDescription": "cmrr_mbep2d_bold_2mm_MB8_Task_8x",
  "SeriesNumber": 25,
  "ShimSetting": [2182, -334, -7368, 388, 301, -233, 128, -106],
  "SliceThickness": 2,
  "SliceTiming": [0, 0.4375, 0.0875, 0.525, 0.175, 0.6125, 0.2625, 0.7, 0.35, 0, 0.4375, 0.0875, 0.525, 0.175, 0.6125, 0.2625, 0.7, 0.35, 0, 0.4375, 0.0875, 0.525, 0.175, 0.6125, 0.2625, 0.7, 0.35, 0, 0.4375, 0.0875, 0.525, 0.175, 0.6125, 0.2625, 0.7, 0.35, 0, 0.4375, 0.0875, 0.525, 0.175, 0.6125, 0.2625, 0.7, 0.35, 0, 0.4375, 0.0875, 0.525, 0.175, 0.6125, 0.2625, 0.7, 0.35, 0, 0.4375, 0.0875, 0.525, 0.175, 0.6125, 0.2625, 0.7, 0.35, 0, 0.4375, 0.0875, 0.525, 0.175, 0.6125, 0.2625, 0.7, 0.35],
  "SoftwareVersions": "syngo MR B19",
  "SpacingBetweenSlices": 2,
  "StationName": "MRC35450",
  "TaskName": "cpro",
  "TotalReadoutTime": 0.0710717,
  "TxRefAmp": 317.037,
  "dcmmeta_affine": [
    [-1.9996941089630127, 4.969008315924839e-08, 0.03497971594333649, 102.92613220214844],
    [-0.0024954795371741056, 1.994903802871704, -0.14266254007816315, -81.37686920166016],
    [0.03489058464765549, 0.14268437027931213, 1.9945987462997437, -100.97505950927734],
    [0.0, 0.0, 0.0, 1.0]
],
  "dcmmeta_reorient_transform": [
    [0.0, -1.0, 0.0, 103.0],
    [1.0, 0.0, 0.0, 0.0],
    [0.0, 0.0, 1.0, 0.0],
    [0.0, 0.0, 0.0, 1.0]
],
  "dcmmeta_shape": [104, 104, 72, 581],
  "dcmmeta_slice_dim": 2,
  "dcmmeta_version": 0.6,
  "global": {
    "const": {
      "AcquisitionMatrix": [104, 0, 0, 104],
      "AngioFlag": "N",
      "BitsAllocated": 16,
      "BitsStored": 12,
      "Columns": 936,
      "EchoNumbers": 1,
      "EchoTime": 34.8,
      "EchoTrainLength": 1,
      "FlipAngle": 55.0,
      "HighBit": 11,
      "ImageOrientationPatient": [0.99984704075692, 0.0012477397768, 0.01744529263365, 2.4845042e-08, 0.99745190008499, -0.071342182591],
      "ImagePositionPatient": [-934.79889837681, -955.01632619799, -41.436361097571],
      "ImageType": [
        "ORIGINAL",
        "PRIMARY",
        "M",
        "MB",
        "ND",
        "MOSAIC"
],
      "ImagedNucleus": "1H",
      "ImagingFrequency": 123.23483,
      "InPlanePhaseEncodingDirection": "COL",
      "MRAcquisitionType": "2D",
      "MagneticFieldStrength": 3.0,
      "Manufacturer": "SIEMENS",
      "ManufacturerModelName": "TrioTim",
      "Modality": "MR",
      "NumberOfAverages": 1.0,
      "NumberOfPhaseEncodingSteps": 91,
      "PercentPhaseFieldOfView": 100.0,
      "PercentSampling": 100.0,
      "PerformedProcedureStepStartTime": "145806.125000",
      "PhotometricInterpretation": "MONOCHROME2",
      "PixelBandwidth": 1923.0,
      "PixelRepresentation": 0,
      "PixelSpacing": [2.0, 2.0],
      "ProtocolName": "cmrr_mbep2d_bold_2mm_MB8_Task_8x",
      "RepetitionTime": 785.0,
      "Rows": 936,
      "SAR": 0.12153333128279,
      "SamplesPerPixel": 1,
      "ScanOptions": [
        "PFP",
        "FS"
],
      "ScanningSequence": "EP",
      "SequenceName": "epfid2d1_104",
      "SequenceVariant": [
        "SK",
        "SS"
],
      "SeriesDescription": "cmrr_mbep2d_bold_2mm_MB8_Task_8x",
      "SeriesNumber": 25,
      "SeriesTime": "180721.328000",
      "SliceLocation": -93.097484318613,
      "SliceThickness": 2.0,
      "SmallestImagePixelValue": 0,
      "SoftwareVersions": "syngo MR B19",
      "SpacingBetweenSlices": 2.0000000500871,
      "SpecificCharacterSet": "ISO_IR 100",
      "StudyID": "1",
      "StudyTime": "145806.031000",
      "TransmitCoilName": "Body",
      "VariableFlipAngleFlag": "N",
      "WindowCenterWidthExplanation": "Algo1",
      "dBdt": 0.0},
    "slices": {}
  },
  "time": {
    "samples": {
      "AcquisitionNumber": [1, 2, 3, 4, 5, 6, 7, 8, 9, 10, 11, 12, 13, 14, 15, 16, 17, 18, 19, 20, 21, 22, 23, 24, 25, 26, 27, 28, 29, 30, 31, 32, 33, 34, 35, 36, 37, 38, 39, 40, 41, 42, 43, 44, 45, 46, 47, 48, 49, 50, 51, 52, 53, 54, 55, 56, 57, 58, 59, 60, 61, 62, 63, 64, 65, 66, 67, 68, 69, 70, 71, 72, 73, 74, 75, 76, 77, 78, 79, 80, 81, 82, 83, 84, 85, 86, 87, 88, 89, 90, 91, 92, 93, 94, 95, 96, 97, 98, 99, 100, 101, 102, 103, 104, 105, 106, 107, 108, 109, 110, 111, 112, 113, 114, 115, 116, 117, 118, 119, 120, 121, 122, 123, 124, 125, 126, 127, 128, 129, 130, 131, 132, 133, 134, 135, 136, 137, 138, 139, 140, 141, 142, 143, 144, 145, 146, 147, 148, 149, 150, 151, 152, 153, 154, 155, 156, 157, 158, 159, 160, 161, 162, 163, 164, 165, 166, 167, 168, 169, 170, 171, 172, 173, 174, 175, 176, 177, 178, 179, 180, 181, 182, 183, 184, 185, 186, 187, 188, 189, 190, 191, 192, 193, 194, 195, 196, 197, 198, 199, 200, 201, 202, 203, 204, 205, 206, 207, 208, 209, 210, 211, 212, 213, 214, 215, 216, 217, 218, 219, 220, 221, 222, 223, 224, 225, 226, 227, 228, 229, 230, 231, 232, 233, 234, 235, 236, 237, 238, 239, 240, 241, 242, 243, 244, 245, 246, 247, 248, 249, 250, 251, 252, 253, 254, 255, 256, 257, 258, 259, 260, 261, 262, 263, 264, 265, 266, 267, 268, 269, 270, 271, 272, 273, 274, 275, 276, 277, 278, 279, 280, 281, 282, 283, 284, 285, 286, 287, 288, 289, 290, 291, 292, 293, 294, 295, 296, 297, 298, 299, 300, 301, 302, 303, 304, 305, 306, 307, 308, 309, 310, 311, 312, 313, 314, 315, 316, 317, 318, 319, 320, 321, 322, 323, 324, 325, 326, 327, 328, 329, 330, 331, 332, 333, 334, 335, 336, 337, 338, 339, 340, 341, 342, 343, 344, 345, 346, 347, 348, 349, 350, 351, 352, 353, 354, 355, 356, 357, 358, 359, 360, 361, 362, 363, 364, 365, 366, 367, 368, 369, 370, 371, 372, 373, 374, 375, 376, 377, 378, 379, 380, 381, 382, 383, 384, 385, 386, 387, 388, 389, 390, 391, 392, 393, 394, 395, 396, 397, 398, 399, 400, 401, 402, 403, 404, 405, 406, 407, 408, 409, 410, 411, 412, 413, 414, 415, 416, 417, 418, 419, 420, 421, 422, 423, 424, 425, 426, 427, 428, 429, 430, 431, 432, 433, 434, 435, 436, 437, 438, 439, 440, 441, 442, 443, 444, 445, 446, 447, 448, 449, 450, 451, 452, 453, 454, 455, 456, 457, 458, 459, 460, 461, 462, 463, 464, 465, 466, 467, 468, 469, 470, 471, 472, 473, 474, 475, 476, 477, 478, 479, 480, 481, 482, 483, 484, 485, 486, 487, 488, 489, 490, 491, 492, 493, 494, 495, 496, 497, 498, 499, 500, 501, 502, 503, 504, 505, 506, 507, 508, 509, 510, 511, 512, 513, 514, 515, 516, 517, 518, 519, 520, 521, 522, 523, 524, 525, 526, 527, 528, 529, 530, 531, 532, 533, 534, 535, 536, 537, 538, 539, 540, 541, 542, 543, 544, 545, 546, 547, 548, 549, 550, 551, 552, 553, 554, 555, 556, 557, 558, 559, 560, 561, 562, 563, 564, 565, 566, 567, 568, 569, 570, 571, 572, 573, 574, 575, 576, 577, 578, 579, 580, 581],
      "AcquisitionTime": ["163310.742500", "163311.530000", "163312.320000", "163313.107500", "163313.895000", "163314.682500", "163315.472500", "163316.260000", "163317.047500", "163317.835000", "163318.625000", "163319.412500", "163320.200000", "163320.987500", "163321.777500", "163322.565000", "163323.352500", "163324.140000", "163324.930000", "163325.717500", "163326.505000", "163327.292500", "163328.082500", "163328.870000", "163329.657500", "163330.447500", "163331.235000", "163332.022500", "163332.810000", "163333.600000", "163334.387500", "163335.175000", "163335.962500", "163336.752500", "163337.540000", "163338.327500", "163339.115000", "163339.905000", "163340.692500", "163341.480000", "163342.267500", "163343.057500", "163343.845000", "163344.632500", "163345.420000", "163346.210000", "163346.997500", "163347.785000", "163348.575000", "163349.362500", "163350.150000", "163350.937500", "163351.727500", "163352.515000", "163353.302500", "163354.090000", "163354.880000", "163355.667500", "163356.455000", "163357.242500", "163358.032500", "163358.820000", "163359.607500", "163400.395000", "163401.185000", "163401.972500", "163402.760000", "163403.547500", "163404.337500", "163405.125000", "163405.912500", "163406.702500", "163407.490000", "163408.277500", "163409.065000", "163409.855000", "163410.642500", "163411.430000", "163412.217500", "163413.007500", "163413.795000", "163414.582500", "163415.370000", "163416.160000", "163416.947500", "163417.735000", "163418.522500", "163419.312500", "163420.100000", "163420.887500", "163421.675000", "163422.465000", "163423.252500", "163424.040000", "163424.830000", "163425.617500", "163426.405000", "163427.192500", "163427.982500", "163428.770000", "163429.557500", "163430.345000", "163431.135000", "163431.922500", "163432.710000", "163433.497500", "163434.287500", "163435.075000", "163435.862500", "163436.650000", "163437.440000", "163438.227500", "163439.015000", "163439.802500", "163440.592500", "163441.380000", "163442.167500", "163442.957500", "163443.745000", "163444.532500", "163445.320000", "163446.110000", "163446.897500", "163447.685000", "163448.472500", "163449.262500", "163450.050000", "163450.837500", "163451.625000", "163452.415000", "163453.202500", "163453.990000", "163454.777500", "163455.567500", "163456.355000", "163457.142500", "163457.930000", "163458.720000", "163459.507500", "163500.295000", "163501.085000", "163501.872500", "163502.660000", "163503.447500", "163504.237500", "163505.025000", "163505.812500", "163506.600000", "163507.390000", "163508.177500", "163508.965000", "163509.752500", "163510.542500", "163511.330000", "163512.117500", "163512.905000", "163513.695000", "163514.482500", "163515.270000", "163516.057500", "163516.847500", "163517.635000", "163518.422500", "163519.212500", "163520.000000", "163520.787500", "163521.575000", "163522.365000", "163523.152500", "163523.940000", "163524.727500", "163525.517500", "163526.305000", "163527.092500", "163527.880000", "163528.670000", "163529.457500", "163530.245000", "163531.032500", "163531.822500", "163532.610000", "163533.397500", "163534.185000", "163534.975000", "163535.762500", "163536.550000", "163537.340000", "163538.127500", "163538.915000", "163539.702500", "163540.492500", "163541.280000", "163542.067500", "163542.855000", "163543.645000", "163544.432500", "163545.220000", "163546.007500", "163546.797500", "163547.585000", "163548.372500", "163549.160000", "163549.950000", "163550.737500", "163551.525000", "163552.312500", "163553.102500", "163553.890000", "163554.677500", "163555.467500", "163556.255000", "163557.042500", "163557.830000", "163558.620000", "163559.407500", "163600.195000", "163600.982500", "163601.772500", "163602.560000", "163603.347500", "163604.135000", "163604.925000", "163605.712500", "163606.500000", "163607.287500", "163608.077500", "163608.865000", "163609.652500", "163610.442500", "163611.230000", "163612.017500", "163612.805000", "163613.595000", "163614.382500", "163615.170000", "163615.957500", "163616.747500", "163617.535000", "163618.322500", "163619.110000", "163619.900000", "163620.687500", "163621.475000", "163622.262500", "163623.052500", "163623.840000", "163624.627500", "163625.415000", "163626.205000", "163626.992500", "163627.780000", "163628.570000", "163629.357500", "163630.145000", "163630.932500", "163631.722500", "163632.510000", "163633.297500", "163634.085000", "163634.875000", "163635.662500", "163636.450000", "163637.237500", "163638.027500", "163638.815000", "163639.602500", "163640.390000", "163641.180000", "163641.967500", "163642.755000", "163643.542500", "163644.332500", "163645.120000", "163645.907500", "163646.697500", "163647.485000", "163648.272500", "163649.060000", "163649.850000", "163650.637500", "163651.425000", "163652.212500", "163653.002500", "163653.790000", "163654.577500", "163655.365000", "163656.155000", "163656.942500", "163657.730000", "163658.517500", "163659.307500", "163700.095000", "163700.882500", "163701.670000", "163702.460000", "163703.247500", "163704.035000", "163704.825000", "163705.612500", "163706.400000", "163707.187500", "163707.977500", "163708.765000", "163709.552500", "163710.340000", "163711.130000", "163711.917500", "163712.705000", "163713.492500", "163714.282500", "163715.070000", "163715.857500", "163716.645000", "163717.435000", "163718.222500", "163719.010000", "163719.797500", "163720.587500", "163721.375000", "163722.162500", "163722.952500", "163723.740000", "163724.527500", "163725.315000", "163726.105000", "163726.892500", "163727.680000", "163728.467500", "163729.257500", "163730.045000", "163730.832500", "163731.620000", "163732.410000", "163733.197500", "163733.985000", "163734.772500", "163735.562500", "163736.350000", "163737.137500", "163737.925000", "163738.715000", "163739.502500", "163740.290000", "163741.080000", "163741.867500", "163742.655000", "163743.442500", "163744.232500", "163745.020000", "163745.807500", "163746.595000", "163747.385000", "163748.172500", "163748.960000", "163749.747500", "163750.537500", "163751.325000", "163752.112500", "163752.900000", "163753.690000", "163754.477500", "163755.265000", "163756.052500", "163756.842500", "163757.630000", "163758.417500", "163759.207500", "163759.995000", "163800.782500", "163801.570000", "163802.360000", "163803.147500", "163803.935000", "163804.722500", "163805.512500", "163806.300000", "163807.087500", "163807.875000", "163808.665000", "163809.452500", "163810.240000", "163811.027500", "163811.817500", "163812.605000", "163813.392500", "163814.180000", "163814.970000", "163815.757500", "163816.545000", "163817.335000", "163818.122500", "163818.910000", "163819.697500", "163820.487500", "163821.275000", "163822.062500", "163822.850000", "163823.640000", "163824.427500", "163825.215000", "163826.002500", "163826.792500", "163827.580000", "163828.367500", "163829.155000", "163829.945000", "163830.732500", "163831.520000", "163832.307500", "163833.097500", "163833.885000", "163834.672500", "163835.462500", "163836.250000", "163837.037500", "163837.825000", "163838.615000", "163839.402500", "163840.190000", "163840.977500", "163841.767500", "163842.555000", "163843.342500", "163844.130000", "163844.920000", "163845.707500", "163846.495000", "163847.282500", "163848.072500", "163848.860000", "163849.647500", "163850.435000", "163851.225000", "163852.012500", "163852.800000", "163853.590000", "163854.377500", "163855.165000", "163855.952500", "163856.742500", "163857.530000", "163858.317500", "163859.105000", "163859.895000", "163900.682500", "163901.470000", "163902.257500", "163903.047500", "163903.835000", "163904.622500", "163905.410000", "163906.200000", "163906.987500", "163907.775000", "163908.562500", "163909.352500", "163910.140000", "163910.927500", "163911.717500", "163912.505000", "163913.292500", "163914.080000", "163914.870000", "163915.657500", "163916.445000", "163917.232500", "163918.022500", "163918.810000", "163919.597500", "163920.385000", "163921.175000", "163921.962500", "163922.750000", "163923.537500", "163924.327500", "163925.115000", "163925.902500", "163926.692500", "163927.480000", "163928.267500", "163929.055000", "163929.845000", "163930.632500", "163931.420000", "163932.207500", "163932.997500", "163933.785000", "163934.572500", "163935.360000", "163936.150000", "163936.937500", "163937.725000", "163938.512500", "163939.302500", "163940.090000", "163940.877500", "163941.665000", "163942.455000", "163943.242500", "163944.030000", "163944.820000", "163945.607500", "163946.395000", "163947.182500", "163947.972500", "163948.760000", "163949.547500", "163950.335000", "163951.125000", "163951.912500", "163952.700000", "163953.487500", "163954.277500", "163955.065000", "163955.852500", "163956.640000", "163957.430000", "163958.217500", "163959.005000", "163959.792500", "164000.582500", "164001.370000", "164002.157500", "164002.947500", "164003.735000", "164004.522500", "164005.310000", "164006.100000", "164006.887500", "164007.675000", "164008.462500", "164009.252500", "164010.040000", "164010.827500", "164011.615000", "164012.405000", "164013.192500", "164013.980000", "164014.767500", "164015.557500", "164016.345000", "164017.132500", "164017.920000", "164018.710000", "164019.497500", "164020.285000", "164021.075000", "164021.862500", "164022.650000", "164023.437500", "164024.227500", "164025.015000", "164025.802500", "164026.590000", "164027.380000", "164028.167500", "164028.955000", "164029.742500", "164030.532500", "164031.320000", "164032.107500", "164032.895000", "164033.685000", "164034.472500", "164035.260000", "164036.047500", "164036.837500", "164037.625000", "164038.412500", "164039.202500", "164039.990000", "164040.777500", "164041.565000", "164042.355000", "164043.142500", "164043.930000", "164044.717500", "164045.507500", "164046.295000", "164047.082500", "164047.870000"],
      "ContentTime": ["180721.328000", "180721.328000", "180721.343000", "180821.312000", "180821.312000", "180821.312000", "180821.312000", "180821.312000", "180821.312000", "180821.328000", "180821.328000", "180821.328000", "180821.328000", "180821.328000", "180821.328000", "180821.328000", "180821.343000", "180821.343000", "180821.343000", "180821.343000", "180821.343000", "180821.343000", "180821.359000", "180821.359000", "180821.359000", "180821.359000", "180821.359000", "180821.359000", "180821.359000", "180821.375000", "180821.375000", "180921.312000", "180921.312000", "180921.312000", "180921.312000", "180921.312000", "180921.312000", "180921.328000", "180921.328000", "180921.328000", "180921.328000", "180921.328000", "180921.328000", "180921.343000", "180921.343000", "180921.343000", "180921.343000", "180921.343000", "180921.359000", "180921.359000", "180921.359000", "180921.359000", "180921.359000", "180921.359000", "180921.375000", "180921.375000", "180921.375000", "180921.375000", "180921.375000", "181021.312000", "181021.312000", "181021.312000", "181021.312000", "181021.328000", "181021.328000", "181021.328000", "181021.328000", "181021.328000", "181021.328000", "181021.328000", "181021.343000", "181021.343000", "181021.343000", "181021.343000", "181021.343000", "181021.359000", "181021.359000", "181021.359000", "181021.359000", "181021.359000", "181021.359000", "181021.375000", "181021.375000", "181021.375000", "181021.375000", "181021.375000", "181021.390000", "181021.390000", "181121.312000", "181121.312000", "181121.312000", "181121.312000", "181121.312000", "181121.312000", "181121.328000", "181121.328000", "181121.328000", "181121.328000", "181121.328000", "181121.328000", "181121.328000", "181121.343000", "181121.343000", "181121.343000", "181121.343000", "181121.343000", "181121.343000", "181121.343000", "181121.359000", "181121.359000", "181121.359000", "181121.359000", "181121.359000", "181121.359000", "181121.359000", "181121.375000", "181221.312000", "181221.312000", "181221.312000", "181221.312000", "181221.312000", "181221.312000", "181221.328000", "181221.328000", "181221.328000", "181221.328000", "181221.328000", "181221.328000", "181221.328000", "181221.343000", "181221.343000", "181221.343000", "181221.343000", "181221.343000", "181221.343000", "181221.343000", "181221.359000", "181221.359000", "181221.359000", "181221.359000", "181221.359000", "181221.375000", "181221.375000", "181221.375000", "181321.312000", "181321.312000", "181321.312000", "181321.312000", "181321.312000", "181321.312000", "181321.328000", "181321.328000", "181321.328000", "181321.328000", "181321.328000", "181321.328000", "181321.328000", "181321.343000", "181321.343000", "181321.343000", "181321.343000", "181321.343000", "181321.343000", "181321.343000", "181321.359000", "181321.359000", "181321.359000", "181321.359000", "181321.359000", "181321.359000", "181321.359000", "181321.375000", "181421.312000", "181421.312000", "181421.312000", "181421.312000", "181421.312000", "181421.312000", "181421.328000", "181421.328000", "181421.328000", "181421.328000", "181421.328000", "181421.328000", "181421.328000", "181421.343000", "181421.343000", "181421.343000", "181421.343000", "181421.343000", "181421.343000", "181421.343000", "181421.359000", "181421.359000", "181421.359000", "181421.359000", "181421.359000", "181421.359000", "181421.359000", "181421.375000", "181421.375000", "181521.312000", "181521.312000", "181521.312000", "181521.312000", "181521.312000", "181521.312000", "181521.328000", "181521.328000", "181521.328000", "181521.328000", "181521.328000", "181521.328000", "181521.328000", "181521.343000", "181521.343000", "181521.343000", "181521.343000", "181521.343000", "181521.343000", "181521.343000", "181521.359000", "181521.359000", "181521.359000", "181521.359000", "181521.359000", "181521.375000", "181521.375000", "181521.375000", "181621.312000", "181621.312000", "181621.312000", "181621.312000", "181621.312000", "181621.312000", "181621.328000", "181621.328000", "181621.328000", "181621.328000", "181621.328000", "181621.328000", "181621.328000", "181621.343000", "181621.343000", "181621.343000", "181621.343000", "181621.359000", "181621.359000", "181621.359000", "181621.359000", "181621.359000", "181621.375000", "181621.375000", "181621.375000", "181621.375000", "181621.375000", "181621.375000", "181721.312000", "181721.312000", "181721.312000", "181721.312000", "181721.312000", "181721.312000", "181721.328000", "181721.328000", "181721.328000", "181721.328000", "181721.328000", "181721.343000", "181721.343000", "181721.343000", "181721.343000", "181721.343000", "181721.343000", "181721.359000", "181721.359000", "181721.359000", "181721.359000", "181721.359000", "181721.375000", "181721.375000", "181721.375000", "181721.375000", "181721.375000", "181721.375000", "181821.312000", "181821.312000", "181821.312000", "181821.312000", "181821.312000", "181821.312000", "181821.328000", "181821.328000", "181821.328000", "181821.328000", "181821.328000", "181821.328000", "181821.328000", "181821.343000", "181821.343000", "181821.343000", "181821.343000", "181821.343000", "181821.343000", "181821.343000", "181821.359000", "181821.359000", "181821.359000", "181821.359000", "181821.359000", "181821.359000", "181821.359000", "181821.375000", "181921.312000", "181921.312000", "181921.312000", "181921.312000", "181921.312000", "181921.312000", "181921.328000", "181921.328000", "181921.328000", "181921.343000", "181921.343000", "181921.343000", "181921.343000", "181921.343000", "181921.343000", "181921.359000", "181921.359000", "181921.359000", "181921.359000", "181921.359000", "181921.359000", "181921.359000", "181921.375000", "181921.375000", "181921.375000", "181921.375000", "181921.375000", "181921.375000", "182021.312000", "182021.312000", "182021.312000", "182021.312000", "182021.312000", "182021.312000", "182021.328000", "182021.328000", "182021.328000", "182021.328000", "182021.328000", "182021.328000", "182021.328000", "182021.343000", "182021.343000", "182021.343000", "182021.343000", "182021.343000", "182021.343000", "182021.359000", "182021.359000", "182021.359000", "182021.359000", "182021.359000", "182021.375000", "182021.375000", "182021.375000", "182021.375000", "182021.375000", "182121.312000", "182121.312000", "182121.312000", "182121.312000", "182121.312000", "182121.312000", "182121.328000", "182121.328000", "182121.328000", "182121.328000", "182121.343000", "182121.343000", "182121.343000", "182121.343000", "182121.343000", "182121.343000", "182121.343000", "182121.359000", "182121.359000", "182121.359000", "182121.359000", "182121.359000", "182121.359000", "182121.359000", "182121.375000", "182121.375000", "182121.375000", "182121.375000", "182221.312000", "182221.312000", "182221.312000", "182221.312000", "182221.312000", "182221.312000", "182221.328000", "182221.328000", "182221.328000", "182221.328000", "182221.328000", "182221.328000", "182221.343000", "182221.343000", "182221.343000", "182221.343000", "182221.343000", "182221.343000", "182221.343000", "182221.359000", "182221.359000", "182221.359000", "182221.359000", "182221.359000", "182221.359000", "182221.359000", "182221.375000", "182221.375000", "182321.312000", "182321.312000", "182321.312000", "182321.312000", "182321.312000", "182321.328000", "182321.328000", "182321.328000", "182321.328000", "182321.328000", "182321.328000", "182321.328000", "182321.343000", "182321.343000", "182321.343000", "182321.343000", "182321.343000", "182321.343000", "182321.343000", "182321.359000", "182321.359000", "182321.359000", "182321.359000", "182321.359000", "182321.359000", "182321.375000", "182321.375000", "182321.375000", "182421.312000", "182421.312000", "182421.312000", "182421.312000", "182421.312000", "182421.312000", "182421.328000", "182421.328000", "182421.328000", "182421.328000", "182421.328000", "182421.343000", "182421.343000", "182421.343000", "182421.343000", "182421.343000", "182421.343000", "182421.343000", "182421.359000", "182421.359000", "182421.359000", "182421.359000", "182421.359000", "182421.359000", "182421.359000", "182421.375000", "182421.375000", "182421.375000", "182521.312000", "182521.312000", "182521.312000", "182521.312000", "182521.312000", "182521.312000", "182521.328000", "182521.328000", "182521.328000", "182521.328000", "182521.328000", "182521.328000", "182521.343000", "182521.343000", "182521.343000", "182521.343000", "182521.343000", "182521.343000", "182521.343000", "182521.359000", "182521.359000", "182521.359000", "182521.359000", "182521.359000", "182521.375000", "182521.375000", "182521.375000", "182521.375000", "182521.375000", "182621.312000", "182621.312000", "182621.312000", "182621.312000", "182621.312000", "182621.312000", "182621.328000", "182621.328000", "182621.328000", "182621.328000", "182621.328000", "182621.328000", "182621.328000", "182621.343000", "182621.343000", "182621.343000", "182621.343000", "182621.343000", "182621.359000", "182621.359000", "182621.359000", "182621.359000", "182621.359000", "182621.359000", "182621.375000", "182621.375000", "182621.375000", "182621.375000", "182721.312000", "182721.312000", "182721.312000", "182721.312000", "182721.312000", "182721.312000", "182721.328000", "182721.328000", "182721.328000", "182721.328000", "182721.328000", "182721.343000", "182721.343000", "182721.343000", "182721.343000", "182721.343000", "182721.343000", "182721.343000", "182721.359000", "182721.359000", "182721.359000", "182721.359000", "182721.359000", "182721.359000", "182721.375000", "182721.375000", "182721.375000", "182721.375000", "182749.359000", "182749.359000", "182749.359000", "182749.359000", "182749.359000", "182749.359000", "182749.375000", "182749.375000", "182749.375000", "182749.375000", "182749.375000", "182749.375000", "182749.375000", "182749.390000"],
