{
  "AcquisitionMatrixPE": 104,
  "AcquisitionNumber": 1,
  "AcquisitionTime": "16:24:54.767500",
  "BandwidthPerPixelPhaseEncode": 13.935,
  "BaseResolution": 104,
  "CoilString": "C:HEA;HEP",
  "ConversionSoftware": "dcm2niix",
  "ConversionSoftwareVersion": "v1.0.20210317",
  "DerivedVendorReportedEchoSpacing": 0.000690017,
  "DeviceSerialNumber": "35450",
  "DwellTime": 2.5e-06,
  "EchoTime": 0.0348,
  "EffectiveEchoSpacing": 0.000690017,
  "FlipAngle": 55,
  "ImageComments": "Unaliased MB8/PE3",
  "ImageOrientationPatientDICOM": [0.999847, 0.00124774, 0.0174453, 2.4845e-08, 0.997452, -0.0713422],
  "ImageType": [
    "ORIGINAL",
    "PRIMARY",
    "M",
    "MB",
    "ND",
    "MOSAIC"
],
  "ImagingFrequency": 123.235,
  "InPlanePhaseEncodingDirectionDICOM": "COL",
  "InstitutionAddress": "Univeristy Ave. 197,Newark,North East,US,07102-1814",
  "InstitutionName": "RUBIC",
  "InstitutionalDepartmentName": "Department",
  "MRAcquisitionType": "2D",
  "MagneticFieldStrength": 3,
  "Manufacturer": "Siemens",
  "ManufacturersModelName": "TrioTim",
  "Modality": "MR",
  "MultibandAccelerationFactor": 8,
  "PartialFourier": 0.875,
  "PatientPosition": "HFS",
  "PercentPhaseFOV": 100,
  "PercentSampling": 100,
  "PhaseEncodingDirection": "j-",
  "PhaseEncodingSteps": 91,
  "PhaseResolution": 1,
  "PixelBandwidth": 1923,
  "ProcedureStepDescription": "Cole^Michael",
  "ProtocolName": "cmrr_mbep2d_bold_2mm_MB8_Task_8x",
  "PulseSequenceDetails": "%CustomerSeq%\\cmrr_mbep2d_bold",
  "ReceiveCoilName": "32Ch_Head",
  "ReconMatrixPE": 104,
  "RepetitionTime": 0.785,
  "SAR": 0.121533,
  "ScanOptions": "PFP\\FS",
  "ScanningSequence": "EP",
  "SequenceName": "epfid2d1_104",
  "SequenceVariant": "SK\\SS",
  "SeriesDescription": "cmrr_mbep2d_bold_2mm_MB8_Task_8x",
  "SeriesNumber": 23,
  "ShimSetting": [2182, -334, -7368, 388, 301, -233, 128, -106],
  "SliceThickness": 2,
  "SliceTiming": [0, 0.4375, 0.0875, 0.525, 0.175, 0.6125, 0.2625, 0.7, 0.35, 0, 0.4375, 0.0875, 0.525, 0.175, 0.6125, 0.2625, 0.7, 0.35, 0, 0.4375, 0.0875, 0.525, 0.175, 0.6125, 0.2625, 0.7, 0.35, 0, 0.4375, 0.0875, 0.525, 0.175, 0.6125, 0.2625, 0.7, 0.35, 0, 0.4375, 0.0875, 0.525, 0.175, 0.6125, 0.2625, 0.7, 0.35, 0, 0.4375, 0.0875, 0.525, 0.175, 0.6125, 0.2625, 0.7, 0.35, 0, 0.4375, 0.0875, 0.525, 0.175, 0.6125, 0.2625, 0.7, 0.35, 0, 0.4375, 0.0875, 0.525, 0.175, 0.6125, 0.2625, 0.7, 0.35],
  "SoftwareVersions": "syngo MR B19",
  "SpacingBetweenSlices": 2,
  "StationName": "MRC35450",
  "TaskName": "cpro",
  "TotalReadoutTime": 0.0710717,
  "TxRefAmp": 317.037,
  "dcmmeta_affine": [
    [-1.9996941089630127, 4.969008315924839e-08, 0.03497971594333649, 102.92613220214844],
    [-0.0024954795371741056, 1.994903802871704, -0.14266254007816315, -81.37686920166016],
    [0.03489058464765549, 0.14268437027931213, 1.9945987462997437, -100.97505950927734],
    [0.0, 0.0, 0.0, 1.0]
],
  "dcmmeta_reorient_transform": [
    [0.0, -1.0, 0.0, 103.0],
    [1.0, 0.0, 0.0, 0.0],
    [0.0, 0.0, 1.0, 0.0],
    [0.0, 0.0, 0.0, 1.0]
],
  "dcmmeta_shape": [104, 104, 72, 581],
  "dcmmeta_slice_dim": 2,
  "dcmmeta_version": 0.6,
  "global": {
    "const": {
      "AcquisitionMatrix": [104, 0, 0, 104],
      "AngioFlag": "N",
      "BitsAllocated": 16,
      "BitsStored": 12,
      "Columns": 936,
      "EchoNumbers": 1,
      "EchoTime": 34.8,
      "EchoTrainLength": 1,
      "FlipAngle": 55.0,
      "HighBit": 11,
      "ImageOrientationPatient": [0.99984704075692, 0.0012477397768, 0.01744529263365, 2.4845042e-08, 0.99745190008499, -0.071342182591],
      "ImagePositionPatient": [-934.79889837681, -955.01632619799, -41.436361097571],
      "ImageType": [
        "ORIGINAL",
        "PRIMARY",
        "M",
        "MB",
        "ND",
        "MOSAIC"
],
      "ImagedNucleus": "1H",
      "ImagingFrequency": 123.23483,
      "InPlanePhaseEncodingDirection": "COL",
      "MRAcquisitionType": "2D",
      "MagneticFieldStrength": 3.0,
      "Manufacturer": "SIEMENS",
      "ManufacturerModelName": "TrioTim",
      "Modality": "MR",
      "NumberOfAverages": 1.0,
      "NumberOfPhaseEncodingSteps": 91,
      "PercentPhaseFieldOfView": 100.0,
      "PercentSampling": 100.0,
      "PerformedProcedureStepStartTime": "145806.125000",
      "PhotometricInterpretation": "MONOCHROME2",
      "PixelBandwidth": 1923.0,
      "PixelRepresentation": 0,
      "PixelSpacing": [2.0, 2.0],
      "ProtocolName": "cmrr_mbep2d_bold_2mm_MB8_Task_8x",
      "RepetitionTime": 785.0,
      "Rows": 936,
      "SAR": 0.12153333128279,
      "SamplesPerPixel": 1,
      "ScanOptions": [
        "PFP",
        "FS"
],
      "ScanningSequence": "EP",
      "SequenceName": "epfid2d1_104",
      "SequenceVariant": [
        "SK",
        "SS"
],
      "SeriesDescription": "cmrr_mbep2d_bold_2mm_MB8_Task_8x",
      "SeriesNumber": 23,
      "SeriesTime": "174641.984000",
      "SliceLocation": -93.097484318613,
      "SliceThickness": 2.0,
      "SmallestImagePixelValue": 0,
      "SoftwareVersions": "syngo MR B19",
      "SpacingBetweenSlices": 2.0000000500871,
      "SpecificCharacterSet": "ISO_IR 100",
      "StudyID": "1",
      "StudyTime": "145806.031000",
      "TransmitCoilName": "Body",
      "VariableFlipAngleFlag": "N",
      "WindowCenterWidthExplanation": "Algo1",
      "dBdt": 0.0},
    "slices": {}
  },
  "time": {
    "samples": {
      "AcquisitionNumber": [1, 2, 3, 4, 5, 6, 7, 8, 9, 10, 11, 12, 13, 14, 15, 16, 17, 18, 19, 20, 21, 22, 23, 24, 25, 26, 27, 28, 29, 30, 31, 32, 33, 34, 35, 36, 37, 38, 39, 40, 41, 42, 43, 44, 45, 46, 47, 48, 49, 50, 51, 52, 53, 54, 55, 56, 57, 58, 59, 60, 61, 62, 63, 64, 65, 66, 67, 68, 69, 70, 71, 72, 73, 74, 75, 76, 77, 78, 79, 80, 81, 82, 83, 84, 85, 86, 87, 88, 89, 90, 91, 92, 93, 94, 95, 96, 97, 98, 99, 100, 101, 102, 103, 104, 105, 106, 107, 108, 109, 110, 111, 112, 113, 114, 115, 116, 117, 118, 119, 120, 121, 122, 123, 124, 125, 126, 127, 128, 129, 130, 131, 132, 133, 134, 135, 136, 137, 138, 139, 140, 141, 142, 143, 144, 145, 146, 147, 148, 149, 150, 151, 152, 153, 154, 155, 156, 157, 158, 159, 160, 161, 162, 163, 164, 165, 166, 167, 168, 169, 170, 171, 172, 173, 174, 175, 176, 177, 178, 179, 180, 181, 182, 183, 184, 185, 186, 187, 188, 189, 190, 191, 192, 193, 194, 195, 196, 197, 198, 199, 200, 201, 202, 203, 204, 205, 206, 207, 208, 209, 210, 211, 212, 213, 214, 215, 216, 217, 218, 219, 220, 221, 222, 223, 224, 225, 226, 227, 228, 229, 230, 231, 232, 233, 234, 235, 236, 237, 238, 239, 240, 241, 242, 243, 244, 245, 246, 247, 248, 249, 250, 251, 252, 253, 254, 255, 256, 257, 258, 259, 260, 261, 262, 263, 264, 265, 266, 267, 268, 269, 270, 271, 272, 273, 274, 275, 276, 277, 278, 279, 280, 281, 282, 283, 284, 285, 286, 287, 288, 289, 290, 291, 292, 293, 294, 295, 296, 297, 298, 299, 300, 301, 302, 303, 304, 305, 306, 307, 308, 309, 310, 311, 312, 313, 314, 315, 316, 317, 318, 319, 320, 321, 322, 323, 324, 325, 326, 327, 328, 329, 330, 331, 332, 333, 334, 335, 336, 337, 338, 339, 340, 341, 342, 343, 344, 345, 346, 347, 348, 349, 350, 351, 352, 353, 354, 355, 356, 357, 358, 359, 360, 361, 362, 363, 364, 365, 366, 367, 368, 369, 370, 371, 372, 373, 374, 375, 376, 377, 378, 379, 380, 381, 382, 383, 384, 385, 386, 387, 388, 389, 390, 391, 392, 393, 394, 395, 396, 397, 398, 399, 400, 401, 402, 403, 404, 405, 406, 407, 408, 409, 410, 411, 412, 413, 414, 415, 416, 417, 418, 419, 420, 421, 422, 423, 424, 425, 426, 427, 428, 429, 430, 431, 432, 433, 434, 435, 436, 437, 438, 439, 440, 441, 442, 443, 444, 445, 446, 447, 448, 449, 450, 451, 452, 453, 454, 455, 456, 457, 458, 459, 460, 461, 462, 463, 464, 465, 466, 467, 468, 469, 470, 471, 472, 473, 474, 475, 476, 477, 478, 479, 480, 481, 482, 483, 484, 485, 486, 487, 488, 489, 490, 491, 492, 493, 494, 495, 496, 497, 498, 499, 500, 501, 502, 503, 504, 505, 506, 507, 508, 509, 510, 511, 512, 513, 514, 515, 516, 517, 518, 519, 520, 521, 522, 523, 524, 525, 526, 527, 528, 529, 530, 531, 532, 533, 534, 535, 536, 537, 538, 539, 540, 541, 542, 543, 544, 545, 546, 547, 548, 549, 550, 551, 552, 553, 554, 555, 556, 557, 558, 559, 560, 561, 562, 563, 564, 565, 566, 567, 568, 569, 570, 571, 572, 573, 574, 575, 576, 577, 578, 579, 580, 581],
      "AcquisitionTime": ["162454.767500", "162455.555000", "162456.345000", "162457.132500", "162457.920000", "162458.710000", "162459.497500", "162500.285000", "162501.072500", "162501.862500", "162502.650000", "162503.437500", "162504.225000", "162505.015000", "162505.802500", "162506.590000", "162507.377500", "162508.167500", "162508.955000", "162509.742500", "162510.530000", "162511.320000", "162512.107500", "162512.895000", "162513.682500", "162514.472500", "162515.260000", "162516.047500", "162516.837500", "162517.625000", "162518.412500", "162519.200000", "162519.990000", "162520.777500", "162521.565000", "162522.352500", "162523.142500", "162523.930000", "162524.717500", "162525.505000", "162526.295000", "162527.082500", "162527.870000", "162528.657500", "162529.447500", "162530.235000", "162531.022500", "162531.810000", "162532.600000", "162533.387500", "162534.175000", "162534.965000", "162535.752500", "162536.540000", "162537.327500", "162538.117500", "162538.905000", "162539.692500", "162540.480000", "162541.270000", "162542.057500", "162542.845000", "162543.632500", "162544.422500", "162545.210000", "162545.997500", "162546.785000", "162547.575000", "162548.362500", "162549.150000", "162549.937500", "162550.727500", "162551.515000", "162552.302500", "162553.092500", "162553.880000", "162554.667500", "162555.455000", "162556.245000", "162557.032500", "162557.820000", "162558.607500", "162559.397500", "162600.185000", "162600.972500", "162601.760000", "162602.550000", "162603.337500", "162604.125000", "162604.912500", "162605.702500", "162606.490000", "162607.277500", "162608.065000", "162608.855000", "162609.642500", "162610.430000", "162611.220000", "162612.007500", "162612.795000", "162613.582500", "162614.372500", "162615.160000", "162615.947500", "162616.735000", "162617.525000", "162618.312500", "162619.100000", "162619.887500", "162620.677500", "162621.465000", "162622.252500", "162623.040000", "162623.830000", "162624.617500", "162625.405000", "162626.192500", "162626.982500", "162627.770000", "162628.557500", "162629.347500", "162630.135000", "162630.922500", "162631.710000", "162632.500000", "162633.287500", "162634.075000", "162634.862500", "162635.652500", "162636.440000", "162637.227500", "162638.015000", "162638.805000", "162639.592500", "162640.380000", "162641.167500", "162641.957500", "162642.745000", "162643.532500", "162644.320000", "162645.110000", "162645.897500", "162646.685000", "162647.475000", "162648.262500", "162649.050000", "162649.837500", "162650.627500", "162651.415000", "162652.202500", "162652.990000", "162653.780000", "162654.567500", "162655.355000", "162656.142500", "162656.932500", "162657.720000", "162658.507500", "162659.295000", "162700.085000", "162700.872500", "162701.660000", "162702.447500", "162703.237500", "162704.025000", "162704.812500", "162705.602500", "162706.390000", "162707.177500", "162707.965000", "162708.755000", "162709.542500", "162710.330000", "162711.117500", "162711.907500", "162712.695000", "162713.482500", "162714.270000", "162715.060000", "162715.847500", "162716.635000", "162717.422500", "162718.212500", "162719.000000", "162719.787500", "162720.575000", "162721.365000", "162722.152500", "162722.940000", "162723.730000", "162724.517500", "162725.305000", "162726.092500", "162726.882500", "162727.670000", "162728.457500", "162729.245000", "162730.035000", "162730.822500", "162731.610000", "162732.397500", "162733.187500", "162733.975000", "162734.762500", "162735.550000", "162736.340000", "162737.127500", "162737.915000", "162738.705000", "162739.492500", "162740.280000", "162741.067500", "162741.857500", "162742.645000", "162743.432500", "162744.220000", "162745.010000", "162745.797500", "162746.585000", "162747.372500", "162748.162500", "162748.950000", "162749.737500", "162750.525000", "162751.315000", "162752.102500", "162752.890000", "162753.677500", "162754.467500", "162755.255000", "162756.042500", "162756.832500", "162757.620000", "162758.407500", "162759.195000", "162759.985000", "162800.772500", "162801.560000", "162802.347500", "162803.137500", "162803.925000", "162804.712500", "162805.500000", "162806.290000", "162807.077500", "162807.865000", "162808.652500", "162809.442500", "162810.230000", "162811.017500", "162811.805000", "162812.595000", "162813.382500", "162814.170000", "162814.960000", "162815.747500", "162816.535000", "162817.322500", "162818.112500", "162818.900000", "162819.687500", "162820.475000", "162821.265000", "162822.052500", "162822.840000", "162823.627500", "162824.417500", "162825.205000", "162825.992500", "162826.780000", "162827.570000", "162828.357500", "162829.145000", "162829.932500", "162830.722500", "162831.510000", "162832.297500", "162833.087500", "162833.875000", "162834.662500", "162835.450000", "162836.240000", "162837.027500", "162837.815000", "162838.602500", "162839.392500", "162840.180000", "162840.967500", "162841.755000", "162842.545000", "162843.332500", "162844.120000", "162844.907500", "162845.697500", "162846.485000", "162847.272500", "162848.060000", "162848.850000", "162849.637500", "162850.425000", "162851.215000", "162852.002500", "162852.790000", "162853.577500", "162854.367500", "162855.155000", "162855.942500", "162856.730000", "162857.520000", "162858.307500", "162859.095000", "162859.882500", "162900.672500", "162901.460000", "162902.247500", "162903.035000", "162903.825000", "162904.612500", "162905.400000", "162906.187500", "162906.977500", "162907.765000", "162908.552500", "162909.342500", "162910.130000", "162910.917500", "162911.705000", "162912.495000", "162913.282500", "162914.070000", "162914.857500", "162915.647500", "162916.435000", "162917.222500", "162918.010000", "162918.800000", "162919.587500", "162920.375000", "162921.162500", "162921.952500", "162922.740000", "162923.527500", "162924.315000", "162925.105000", "162925.892500", "162926.680000", "162927.470000", "162928.257500", "162929.045000", "162929.832500", "162930.622500", "162931.410000", "162932.197500", "162932.985000", "162933.775000", "162934.562500", "162935.350000", "162936.137500", "162936.927500", "162937.715000", "162938.502500", "162939.290000", "162940.080000", "162940.867500", "162941.655000", "162942.442500", "162943.232500", "162944.020000", "162944.807500", "162945.597500", "162946.385000", "162947.172500", "162947.960000", "162948.750000", "162949.537500", "162950.325000", "162951.112500", "162951.902500", "162952.690000", "162953.477500", "162954.265000", "162955.055000", "162955.842500", "162956.630000", "162957.417500", "162958.207500", "162958.995000", "162959.782500", "163000.570000", "163001.360000", "163002.147500", "163002.935000", "163003.725000", "163004.512500", "163005.300000", "163006.087500", "163006.877500", "163007.665000", "163008.452500", "163009.240000", "163010.030000", "163010.817500", "163011.605000", "163012.392500", "163013.182500", "163013.970000", "163014.757500", "163015.545000", "163016.335000", "163017.122500", "163017.910000", "163018.697500", "163019.487500", "163020.275000", "163021.062500", "163021.852500", "163022.640000", "163023.427500", "163024.215000", "163025.005000", "163025.792500", "163026.580000", "163027.367500", "163028.157500", "163028.945000", "163029.732500", "163030.520000", "163031.310000", "163032.097500", "163032.885000", "163033.672500", "163034.462500", "163035.250000", "163036.037500", "163036.825000", "163037.615000", "163038.402500", "163039.190000", "163039.980000", "163040.767500", "163041.555000", "163042.342500", "163043.132500", "163043.920000", "163044.707500", "163045.495000", "163046.285000", "163047.072500", "163047.860000", "163048.647500", "163049.437500", "163050.225000", "163051.012500", "163051.800000", "163052.590000", "163053.377500", "163054.165000", "163054.955000", "163055.742500", "163056.530000", "163057.317500", "163058.107500", "163058.895000", "163059.682500", "163100.470000", "163101.260000", "163102.047500", "163102.835000", "163103.622500", "163104.412500", "163105.200000", "163105.987500", "163106.775000", "163107.565000", "163108.352500", "163109.140000", "163109.927500", "163110.717500", "163111.505000", "163112.292500", "163113.082500", "163113.870000", "163114.657500", "163115.445000", "163116.235000", "163117.022500", "163117.810000", "163118.597500", "163119.387500", "163120.175000", "163120.962500", "163121.750000", "163122.540000", "163123.327500", "163124.115000", "163124.902500", "163125.692500", "163126.480000", "163127.267500", "163128.055000", "163128.845000", "163129.632500", "163130.420000", "163131.210000", "163131.997500", "163132.785000", "163133.572500", "163134.362500", "163135.150000", "163135.937500", "163136.725000", "163137.515000", "163138.302500", "163139.090000", "163139.877500", "163140.667500", "163141.455000", "163142.242500", "163143.030000", "163143.820000", "163144.607500", "163145.395000", "163146.182500", "163146.972500", "163147.760000", "163148.547500", "163149.337500", "163150.125000", "163150.912500", "163151.700000", "163152.490000", "163153.277500", "163154.065000", "163154.852500", "163155.642500", "163156.430000", "163157.217500", "163158.005000", "163158.795000", "163159.582500", "163200.370000", "163201.157500", "163201.947500", "163202.735000", "163203.522500", "163204.310000", "163205.100000", "163205.887500", "163206.675000", "163207.465000", "163208.252500", "163209.040000", "163209.827500", "163210.617500", "163211.405000", "163212.192500", "163212.980000", "163213.770000", "163214.557500", "163215.345000", "163216.132500", "163216.922500", "163217.710000", "163218.497500", "163219.285000", "163220.075000", "163220.862500", "163221.650000", "163222.437500", "163223.227500", "163224.015000", "163224.802500", "163225.592500", "163226.380000", "163227.167500", "163227.955000", "163228.745000", "163229.532500", "163230.320000", "163231.107500", "163231.897500"],
      "ContentTime": ["174641.984000", "174641.984000", "174641.984000", "174641.984000", "174641.984000", "174642.000000", "174642.000000", "174642.000000", "174741.968000", "174741.968000", "174741.968000", "174741.968000", "174741.968000", "174741.984000", "174741.984000", "174741.984000", "174741.984000", "174741.984000", "174741.984000", "174741.984000", "174742.000000", "174742.000000", "174742.000000", "174742.000000", "174742.000000", "174742.000000", "174742.000000", "174742.015000", "174742.015000", "174742.015000", "174742.015000", "174742.015000", "174742.015000", "174742.015000", "174742.031000", "174742.031000", "174841.968000", "174841.968000", "174841.968000", "174841.968000", "174841.968000", "174841.968000", "174841.984000", "174841.984000", "174841.984000", "174841.984000", "174841.984000", "174841.984000", "174841.984000", "174842.000000", "174842.000000", "174842.000000", "174842.000000", "174842.000000", "174842.000000", "174842.015000", "174842.015000", "174842.015000", "174842.015000", "174842.015000", "174842.015000", "174842.015000", "174842.031000", "174842.031000", "174842.031000", "174941.968000", "174941.968000", "174941.968000", "174941.968000", "174941.968000", "174941.984000", "174941.984000", "174941.984000", "174941.984000", "174941.984000", "174941.984000", "174941.984000", "174942.000000", "174942.000000", "174942.000000", "174942.000000", "174942.000000", "174942.000000", "174942.015000", "174942.015000", "174942.015000", "174942.015000", "174942.015000", "174942.031000", "174942.031000", "174942.031000", "174942.031000", "174942.031000", "175041.968000", "175041.968000", "175041.968000", "175041.968000", "175041.968000", "175041.984000", "175041.984000", "175041.984000", "175041.984000", "175041.984000", "175042.000000", "175042.000000", "175042.000000", "175042.000000", "175042.000000", "175042.000000", "175042.000000", "175042.015000", "175042.015000", "175042.015000", "175042.015000", "175042.015000", "175042.015000", "175042.015000", "175042.031000", "175042.031000", "175042.031000", "175042.031000", "175141.968000", "175141.968000", "175141.968000", "175141.968000", "175141.968000", "175141.968000", "175141.984000", "175141.984000", "175141.984000", "175141.984000", "175141.984000", "175141.984000", "175142.000000", "175142.000000", "175142.000000", "175142.000000", "175142.000000", "175142.000000", "175142.015000", "175142.015000", "175142.015000", "175142.015000", "175142.015000", "175142.015000", "175142.015000", "175142.031000", "175142.031000", "175142.031000", "175241.968000", "175241.968000", "175241.968000", "175241.968000", "175241.968000", "175241.968000", "175241.984000", "175241.984000", "175241.984000", "175241.984000", "175241.984000", "175241.984000", "175241.984000", "175242.000000", "175242.000000", "175242.000000", "175242.000000", "175242.000000", "175242.000000", "175242.015000", "175242.015000", "175242.015000", "175242.015000", "175242.015000", "175242.015000", "175242.015000", "175242.031000", "175242.031000", "175242.031000", "175321.968000", "175321.968000", "175321.968000", "175321.968000", "175321.968000", "175321.984000", "175321.984000", "175321.984000", "175321.984000", "175321.984000", "175321.984000", "175321.984000", "175322.000000", "175322.000000", "175322.000000", "175322.000000", "175322.000000", "175322.015000", "175421.968000", "175421.968000", "175421.968000", "175421.968000", "175421.968000", "175421.968000", "175421.984000", "175421.984000", "175421.984000", "175421.984000", "175421.984000", "175421.984000", "175422.000000", "175422.000000", "175422.000000", "175422.000000", "175422.000000", "175422.000000", "175422.000000", "175422.015000", "175422.015000", "175422.015000", "175422.015000", "175422.015000", "175422.031000", "175422.031000", "175422.031000", "175422.031000", "175422.031000", "175521.968000", "175521.968000", "175521.968000", "175521.968000", "175521.968000", "175521.968000", "175521.984000", "175521.984000", "175521.984000", "175522.000000", "175522.000000", "175522.000000", "175522.000000", "175522.000000", "175522.000000", "175522.015000", "175522.015000", "175522.015000", "175522.015000", "175522.015000", "175522.015000", "175522.015000", "175522.031000", "175522.031000", "175522.031000", "175522.031000", "175522.031000", "175522.046000", "175621.968000", "175621.968000", "175621.968000", "175621.968000", "175621.968000", "175621.984000", "175621.984000", "175621.984000", "175621.984000", "175621.984000", "175621.984000", "175621.984000", "175622.000000", "175622.000000", "175622.000000", "175622.000000", "175622.000000", "175622.000000", "175622.000000", "175622.015000", "175622.015000", "175622.015000", "175622.015000", "175622.015000", "175622.015000", "175622.031000", "175622.031000", "175622.031000", "175721.968000", "175721.968000", "175721.968000", "175721.968000", "175721.968000", "175721.984000", "175721.984000", "175721.984000", "175721.984000", "175721.984000", "175721.984000", "175721.984000", "175722.000000", "175722.000000", "175722.000000", "175722.000000", "175722.000000", "175722.000000", "175722.000000", "175722.015000", "175722.015000", "175722.015000", "175722.015000", "175722.015000", "175722.015000", "175722.015000", "175722.031000", "175722.031000", "175821.968000", "175821.968000", "175821.968000", "175821.968000", "175821.968000", "175821.968000", "175821.984000", "175821.984000", "175821.984000", "175821.984000", "175821.984000", "175821.984000", "175822.000000", "175822.000000", "175822.000000", "175822.000000", "175822.000000", "175822.015000", "175822.015000", "175822.015000", "175822.015000", "175822.015000", "175822.031000", "175822.031000", "175822.031000", "175822.031000", "175822.031000", "175822.031000", "175822.046000", "175921.968000", "175921.968000", "175921.968000", "175921.968000", "175921.968000", "175921.968000", "175921.984000", "175921.984000", "175921.984000", "175921.984000", "175921.984000", "175921.984000", "175922.000000", "175922.000000", "175922.000000", "175922.000000", "175922.000000", "175922.000000", "175922.000000", "175922.015000", "175922.015000", "175922.015000", "175922.015000", "175922.015000", "175922.015000", "175922.015000", "175922.031000", "175922.031000", "180021.968000", "180021.968000", "180021.968000", "180021.968000", "180021.968000", "180021.968000", "180021.984000", "180021.984000", "180021.984000", "180021.984000", "180021.984000", "180021.984000", "180022.000000", "180022.000000", "180022.000000", "180022.000000", "180022.000000", "180022.000000", "180022.000000", "180022.015000", "180022.015000", "180022.015000", "180022.015000", "180022.015000", "180022.015000", "180022.015000", "180022.031000", "180022.031000", "180121.968000", "180121.968000", "180121.968000", "180121.968000", "180121.968000", "180121.968000", "180121.984000", "180121.984000", "180121.984000", "180121.984000", "180121.984000", "180121.984000", "180122.000000", "180122.000000", "180122.000000", "180122.000000", "180122.000000", "180122.000000", "180122.000000", "180122.015000", "180122.015000", "180122.015000", "180122.015000", "180122.015000", "180122.015000", "180122.031000", "180122.031000", "180122.031000", "180221.968000", "180221.968000", "180221.968000", "180221.968000", "180221.968000", "180221.968000", "180221.984000", "180221.984000", "180221.984000", "180221.984000", "180221.984000", "180221.984000", "180222.000000", "180222.000000", "180222.000000", "180222.000000", "180222.000000", "180222.000000", "180222.000000", "180222.015000", "180222.015000", "180222.015000", "180222.015000", "180222.015000", "180222.015000", "180222.015000", "180222.031000", "180222.031000", "180222.031000", "180301.968000", "180301.968000", "180301.968000", "180301.968000", "180301.968000", "180301.968000", "180301.984000", "180301.984000", "180301.984000", "180301.984000", "180301.984000", "180301.984000", "180302.000000", "180302.000000", "180302.000000", "180302.000000", "180302.000000", "180302.000000", "180401.968000", "180401.968000", "180401.968000", "180401.968000", "180401.968000", "180401.968000", "180401.984000", "180401.984000", "180401.984000", "180401.984000", "180401.984000", "180401.984000", "180401.984000", "180402.000000", "180402.000000", "180402.000000", "180402.000000", "180402.000000", "180402.000000", "180402.015000", "180402.015000", "180402.015000", "180402.015000", "180402.015000", "180402.015000", "180402.031000", "180402.031000", "180402.031000", "180402.031000", "180501.968000", "180501.968000", "180501.968000", "180501.968000", "180501.968000", "180501.968000", "180501.984000", "180501.984000", "180501.984000", "180501.984000", "180501.984000", "180501.984000", "180502.000000", "180502.000000", "180502.000000", "180502.000000", "180502.000000", "180502.000000", "180502.000000", "180502.015000", "180502.015000", "180502.015000", "180502.015000", "180502.015000", "180502.015000", "180502.015000", "180502.031000", "180502.031000", "180601.968000", "180601.968000", "180601.968000", "180601.968000", "180601.968000", "180601.984000", "180601.984000", "180601.984000", "180601.984000", "180601.984000", "180601.984000", "180601.984000", "180602.000000", "180602.000000", "180602.000000", "180602.000000", "180602.000000", "180602.000000", "180602.000000", "180602.015000", "180602.015000", "180602.015000", "180602.015000", "180602.015000", "180602.015000", "180602.031000", "180602.031000", "180602.031000", "180657.937000", "180657.953000", "180657.953000", "180657.953000", "180657.953000", "180657.953000", "180657.953000", "180657.953000", "180657.968000", "180657.968000", "180657.968000", "180657.968000", "180657.968000", "180657.968000", "180657.984000", "180657.984000", "180657.984000", "180657.984000", "180657.984000", "180658.000000", "180658.000000", "180658.000000", "180658.000000", "180658.000000", "180658.000000", "180658.000000", "180658.015000"],
