{
  "AcquisitionMatrixPE": 104,
  "AcquisitionNumber": 1,
  "AcquisitionTime": "16:49:54.710000",
  "BandwidthPerPixelPhaseEncode": 13.935,
  "BaseResolution": 104,
  "CoilString": "C:HEA;HEP",
  "ConversionSoftware": "dcm2niix",
  "ConversionSoftwareVersion": "v1.0.20210317",
  "DerivedVendorReportedEchoSpacing": 0.000690017,
  "DeviceSerialNumber": "35450",
  "DwellTime": 2.5e-06,
  "EchoTime": 0.0348,
  "EffectiveEchoSpacing": 0.000690017,
  "FlipAngle": 55,
  "ImageComments": "Unaliased MB8/PE3",
  "ImageOrientationPatientDICOM": [0.999847, 0.00124774, 0.0174453, 2.4845e-08, 0.997452, -0.0713422],
  "ImageType": [
    "ORIGINAL",
    "PRIMARY",
    "M",
    "MB",
    "ND",
    "MOSAIC"
],
  "ImagingFrequency": 123.235,
  "InPlanePhaseEncodingDirectionDICOM": "COL",
  "InstitutionAddress": "Univeristy Ave. 197,Newark,North East,US,07102-1814",
  "InstitutionName": "RUBIC",
  "InstitutionalDepartmentName": "Department",
  "MRAcquisitionType": "2D",
  "MagneticFieldStrength": 3,
  "Manufacturer": "Siemens",
  "ManufacturersModelName": "TrioTim",
  "Modality": "MR",
  "MultibandAccelerationFactor": 8,
  "PartialFourier": 0.875,
  "PatientPosition": "HFS",
  "PercentPhaseFOV": 100,
  "PercentSampling": 100,
  "PhaseEncodingDirection": "j-",
  "PhaseEncodingSteps": 91,
  "PhaseResolution": 1,
  "PixelBandwidth": 1923,
  "ProcedureStepDescription": "Cole^Michael",
  "ProtocolName": "cmrr_mbep2d_bold_2mm_MB8_Task_8x",
  "PulseSequenceDetails": "%CustomerSeq%\\cmrr_mbep2d_bold",
  "ReceiveCoilName": "32Ch_Head",
  "ReconMatrixPE": 104,
  "RepetitionTime": 0.785,
  "SAR": 0.121533,
  "ScanOptions": "PFP\\FS",
  "ScanningSequence": "EP",
  "SequenceName": "epfid2d1_104",
  "SequenceVariant": "SK\\SS",
  "SeriesDescription": "cmrr_mbep2d_bold_2mm_MB8_Task_8x",
  "SeriesNumber": 29,
  "ShimSetting": [2182, -334, -7368, 388, 301, -233, 128, -106],
  "SliceThickness": 2,
  "SliceTiming": [0, 0.4375, 0.0875, 0.525, 0.175, 0.6125, 0.2625, 0.7, 0.35, 0, 0.4375, 0.0875, 0.525, 0.175, 0.6125, 0.2625, 0.7, 0.35, 0, 0.4375, 0.0875, 0.525, 0.175, 0.6125, 0.2625, 0.7, 0.35, 0, 0.4375, 0.0875, 0.525, 0.175, 0.6125, 0.2625, 0.7, 0.35, 0, 0.4375, 0.0875, 0.525, 0.175, 0.6125, 0.2625, 0.7, 0.35, 0, 0.4375, 0.0875, 0.525, 0.175, 0.6125, 0.2625, 0.7, 0.35, 0, 0.4375, 0.0875, 0.525, 0.175, 0.6125, 0.2625, 0.7, 0.35, 0, 0.4375, 0.0875, 0.525, 0.175, 0.6125, 0.2625, 0.7, 0.35],
  "SoftwareVersions": "syngo MR B19",
  "SpacingBetweenSlices": 2,
  "StationName": "MRC35450",
  "TaskName": "cpro",
  "TotalReadoutTime": 0.0710717,
  "TxRefAmp": 317.037,
  "dcmmeta_affine": [
    [-1.9996941089630127, 4.969008315924839e-08, 0.03497971594333649, 102.92613220214844],
    [-0.0024954795371741056, 1.994903802871704, -0.14266254007816315, -81.37686920166016],
    [0.03489058464765549, 0.14268437027931213, 1.9945987462997437, -100.97505950927734],
    [0.0, 0.0, 0.0, 1.0]
],
  "dcmmeta_reorient_transform": [
    [0.0, -1.0, 0.0, 103.0],
    [1.0, 0.0, 0.0, 0.0],
    [0.0, 0.0, 1.0, 0.0],
    [0.0, 0.0, 0.0, 1.0]
],
  "dcmmeta_shape": [104, 104, 72, 581],
  "dcmmeta_slice_dim": 2,
  "dcmmeta_version": 0.6,
  "global": {
    "const": {
      "AcquisitionMatrix": [104, 0, 0, 104],
      "AngioFlag": "N",
      "BitsAllocated": 16,
      "BitsStored": 12,
      "Columns": 936,
      "EchoNumbers": 1,
      "EchoTime": 34.8,
      "EchoTrainLength": 1,
      "FlipAngle": 55.0,
      "HighBit": 11,
      "ImageOrientationPatient": [0.99984704075692, 0.0012477397768, 0.01744529263365, 2.4845042e-08, 0.99745190008499, -0.071342182591],
      "ImagePositionPatient": [-934.79889837681, -955.01632619799, -41.436361097571],
      "ImageType": [
        "ORIGINAL",
        "PRIMARY",
        "M",
        "MB",
        "ND",
        "MOSAIC"
],
      "ImagedNucleus": "1H",
      "ImagingFrequency": 123.23483,
      "InPlanePhaseEncodingDirection": "COL",
      "MRAcquisitionType": "2D",
      "MagneticFieldStrength": 3.0,
      "Manufacturer": "SIEMENS",
      "ManufacturerModelName": "TrioTim",
      "Modality": "MR",
      "NumberOfAverages": 1.0,
      "NumberOfPhaseEncodingSteps": 91,
      "PercentPhaseFieldOfView": 100.0,
      "PercentSampling": 100.0,
      "PerformedProcedureStepStartTime": "145806.125000",
      "PhotometricInterpretation": "MONOCHROME2",
      "PixelBandwidth": 1923.0,
      "PixelRepresentation": 0,
      "PixelSpacing": [2.0, 2.0],
      "ProtocolName": "cmrr_mbep2d_bold_2mm_MB8_Task_8x",
      "RepetitionTime": 785.0,
      "Rows": 936,
      "SAR": 0.12153333128279,
      "SamplesPerPixel": 1,
      "ScanOptions": [
        "PFP",
        "FS"
],
      "ScanningSequence": "EP",
      "SequenceName": "epfid2d1_104",
      "SequenceVariant": [
        "SK",
        "SS"
],
      "SeriesDescription": "cmrr_mbep2d_bold_2mm_MB8_Task_8x",
      "SeriesNumber": 29,
      "SeriesTime": "184907.312000",
      "SliceLocation": -93.097484318613,
      "SliceThickness": 2.0,
      "SmallestImagePixelValue": 0,
      "SoftwareVersions": "syngo MR B19",
      "SpacingBetweenSlices": 2.0000000500871,
      "SpecificCharacterSet": "ISO_IR 100",
      "StudyID": "1",
      "StudyTime": "145806.031000",
      "TransmitCoilName": "Body",
      "VariableFlipAngleFlag": "N",
      "WindowCenterWidthExplanation": "Algo1",
      "dBdt": 0.0},
    "slices": {}
  },
  "time": {
    "samples": {
      "AcquisitionNumber": [1, 2, 3, 4, 5, 6, 7, 8, 9, 10, 11, 12, 13, 14, 15, 16, 17, 18, 19, 20, 21, 22, 23, 24, 25, 26, 27, 28, 29, 30, 31, 32, 33, 34, 35, 36, 37, 38, 39, 40, 41, 42, 43, 44, 45, 46, 47, 48, 49, 50, 51, 52, 53, 54, 55, 56, 57, 58, 59, 60, 61, 62, 63, 64, 65, 66, 67, 68, 69, 70, 71, 72, 73, 74, 75, 76, 77, 78, 79, 80, 81, 82, 83, 84, 85, 86, 87, 88, 89, 90, 91, 92, 93, 94, 95, 96, 97, 98, 99, 100, 101, 102, 103, 104, 105, 106, 107, 108, 109, 110, 111, 112, 113, 114, 115, 116, 117, 118, 119, 120, 121, 122, 123, 124, 125, 126, 127, 128, 129, 130, 131, 132, 133, 134, 135, 136, 137, 138, 139, 140, 141, 142, 143, 144, 145, 146, 147, 148, 149, 150, 151, 152, 153, 154, 155, 156, 157, 158, 159, 160, 161, 162, 163, 164, 165, 166, 167, 168, 169, 170, 171, 172, 173, 174, 175, 176, 177, 178, 179, 180, 181, 182, 183, 184, 185, 186, 187, 188, 189, 190, 191, 192, 193, 194, 195, 196, 197, 198, 199, 200, 201, 202, 203, 204, 205, 206, 207, 208, 209, 210, 211, 212, 213, 214, 215, 216, 217, 218, 219, 220, 221, 222, 223, 224, 225, 226, 227, 228, 229, 230, 231, 232, 233, 234, 235, 236, 237, 238, 239, 240, 241, 242, 243, 244, 245, 246, 247, 248, 249, 250, 251, 252, 253, 254, 255, 256, 257, 258, 259, 260, 261, 262, 263, 264, 265, 266, 267, 268, 269, 270, 271, 272, 273, 274, 275, 276, 277, 278, 279, 280, 281, 282, 283, 284, 285, 286, 287, 288, 289, 290, 291, 292, 293, 294, 295, 296, 297, 298, 299, 300, 301, 302, 303, 304, 305, 306, 307, 308, 309, 310, 311, 312, 313, 314, 315, 316, 317, 318, 319, 320, 321, 322, 323, 324, 325, 326, 327, 328, 329, 330, 331, 332, 333, 334, 335, 336, 337, 338, 339, 340, 341, 342, 343, 344, 345, 346, 347, 348, 349, 350, 351, 352, 353, 354, 355, 356, 357, 358, 359, 360, 361, 362, 363, 364, 365, 366, 367, 368, 369, 370, 371, 372, 373, 374, 375, 376, 377, 378, 379, 380, 381, 382, 383, 384, 385, 386, 387, 388, 389, 390, 391, 392, 393, 394, 395, 396, 397, 398, 399, 400, 401, 402, 403, 404, 405, 406, 407, 408, 409, 410, 411, 412, 413, 414, 415, 416, 417, 418, 419, 420, 421, 422, 423, 424, 425, 426, 427, 428, 429, 430, 431, 432, 433, 434, 435, 436, 437, 438, 439, 440, 441, 442, 443, 444, 445, 446, 447, 448, 449, 450, 451, 452, 453, 454, 455, 456, 457, 458, 459, 460, 461, 462, 463, 464, 465, 466, 467, 468, 469, 470, 471, 472, 473, 474, 475, 476, 477, 478, 479, 480, 481, 482, 483, 484, 485, 486, 487, 488, 489, 490, 491, 492, 493, 494, 495, 496, 497, 498, 499, 500, 501, 502, 503, 504, 505, 506, 507, 508, 509, 510, 511, 512, 513, 514, 515, 516, 517, 518, 519, 520, 521, 522, 523, 524, 525, 526, 527, 528, 529, 530, 531, 532, 533, 534, 535, 536, 537, 538, 539, 540, 541, 542, 543, 544, 545, 546, 547, 548, 549, 550, 551, 552, 553, 554, 555, 556, 557, 558, 559, 560, 561, 562, 563, 564, 565, 566, 567, 568, 569, 570, 571, 572, 573, 574, 575, 576, 577, 578, 579, 580, 581],
      "AcquisitionTime": ["164954.710000", "164955.497500", "164956.287500", "164957.075000", "164957.862500", "164958.650000", "164959.440000", "165000.227500", "165001.015000", "165001.802500", "165002.592500", "165003.380000", "165004.167500", "165004.955000", "165005.745000", "165006.532500", "165007.320000", "165008.107500", "165008.897500", "165009.685000", "165010.472500", "165011.262500", "165012.050000", "165012.837500", "165013.625000", "165014.415000", "165015.202500", "165015.990000", "165016.777500", "165017.567500", "165018.355000", "165019.142500", "165019.930000", "165020.720000", "165021.507500", "165022.295000", "165023.082500", "165023.872500", "165024.660000", "165025.447500", "165026.235000", "165027.025000", "165027.812500", "165028.600000", "165029.390000", "165030.177500", "165030.965000", "165031.752500", "165032.542500", "165033.330000", "165034.117500", "165034.905000", "165035.695000", "165036.482500", "165037.270000", "165038.057500", "165038.847500", "165039.635000", "165040.422500", "165041.210000", "165042.000000", "165042.787500", "165043.575000", "165044.362500", "165045.152500", "165045.940000", "165046.727500", "165047.517500", "165048.305000", "165049.092500", "165049.880000", "165050.670000", "165051.457500", "165052.245000", "165053.032500", "165053.822500", "165054.610000", "165055.397500", "165056.185000", "165056.975000", "165057.762500", "165058.550000", "165059.337500", "165100.127500", "165100.915000", "165101.702500", "165102.490000", "165103.280000", "165104.067500", "165104.855000", "165105.645000", "165106.432500", "165107.220000", "165108.007500", "165108.797500", "165109.585000", "165110.372500", "165111.160000", "165111.950000", "165112.737500", "165113.525000", "165114.312500", "165115.102500", "165115.890000", "165116.677500", "165117.465000", "165118.255000", "165119.042500", "165119.830000", "165120.617500", "165121.407500", "165122.195000", "165122.982500", "165123.772500", "165124.560000", "165125.347500", "165126.135000", "165126.925000", "165127.712500", "165128.500000", "165129.287500", "165130.077500", "165130.865000", "165131.652500", "165132.440000", "165133.230000", "165134.017500", "165134.805000", "165135.592500", "165136.382500", "165137.170000", "165137.957500", "165138.745000", "165139.535000", "165140.322500", "165141.110000", "165141.900000", "165142.687500", "165143.475000", "165144.262500", "165145.052500", "165145.840000", "165146.627500", "165147.415000", "165148.205000", "165148.992500", "165149.780000", "165150.567500", "165151.357500", "165152.145000", "165152.932500", "165153.720000", "165154.510000", "165155.297500", "165156.085000", "165156.872500", "165157.662500", "165158.450000", "165159.237500", "165200.027500", "165200.815000", "165201.602500", "165202.390000", "165203.180000", "165203.967500", "165204.755000", "165205.542500", "165206.332500", "165207.120000", "165207.907500", "165208.695000", "165209.485000", "165210.272500", "165211.060000", "165211.847500", "165212.637500", "165213.425000", "165214.212500", "165215.000000", "165215.790000", "165216.577500", "165217.365000", "165218.155000", "165218.942500", "165219.730000", "165220.517500", "165221.307500", "165222.095000", "165222.882500", "165223.670000", "165224.460000", "165225.247500", "165226.035000", "165226.822500", "165227.612500", "165228.400000", "165229.187500", "165229.975000", "165230.765000", "165231.552500", "165232.340000", "165233.127500", "165233.917500", "165234.705000", "165235.492500", "165236.282500", "165237.070000", "165237.857500", "165238.645000", "165239.435000", "165240.222500", "165241.010000", "165241.797500", "165242.587500", "165243.375000", "165244.162500", "165244.950000", "165245.740000", "165246.527500", "165247.315000", "165248.102500", "165248.892500", "165249.680000", "165250.467500", "165251.257500", "165252.045000", "165252.832500", "165253.620000", "165254.410000", "165255.197500", "165255.985000", "165256.772500", "165257.562500", "165258.350000", "165259.137500", "165259.925000", "165300.715000", "165301.502500", "165302.290000", "165303.077500", "165303.867500", "165304.655000", "165305.442500", "165306.230000", "165307.020000", "165307.807500", "165308.595000", "165309.385000", "165310.172500", "165310.960000", "165311.747500", "165312.537500", "165313.325000", "165314.112500", "165314.900000", "165315.690000", "165316.477500", "165317.265000", "165318.052500", "165318.842500", "165319.630000", "165320.417500", "165321.205000", "165321.995000", "165322.782500", "165323.570000", "165324.357500", "165325.147500", "165325.935000", "165326.722500", "165327.512500", "165328.300000", "165329.087500", "165329.875000", "165330.665000", "165331.452500", "165332.240000", "165333.027500", "165333.817500", "165334.605000", "165335.392500", "165336.180000", "165336.970000", "165337.757500", "165338.545000", "165339.332500", "165340.122500", "165340.910000", "165341.697500", "165342.485000", "165343.275000", "165344.062500", "165344.850000", "165345.640000", "165346.427500", "165347.215000", "165348.002500", "165348.792500", "165349.580000", "165350.367500", "165351.155000", "165351.945000", "165352.732500", "165353.520000", "165354.307500", "165355.097500", "165355.885000", "165356.672500", "165357.460000", "165358.250000", "165359.037500", "165359.825000", "165400.612500", "165401.402500", "165402.190000", "165402.977500", "165403.767500", "165404.555000", "165405.342500", "165406.130000", "165406.920000", "165407.707500", "165408.495000", "165409.282500", "165410.072500", "165410.860000", "165411.647500", "165412.435000", "165413.225000", "165414.012500", "165414.800000", "165415.587500", "165416.377500", "165417.165000", "165417.952500", "165418.740000", "165419.530000", "165420.317500", "165421.105000", "165421.895000", "165422.682500", "165423.470000", "165424.257500", "165425.047500", "165425.835000", "165426.622500", "165427.410000", "165428.200000", "165428.987500", "165429.775000", "165430.562500", "165431.352500", "165432.140000", "165432.927500", "165433.715000", "165434.505000", "165435.292500", "165436.080000", "165436.867500", "165437.657500", "165438.445000", "165439.232500", "165440.022500", "165440.810000", "165441.597500", "165442.385000", "165443.175000", "165443.962500", "165444.750000", "165445.537500", "165446.327500", "165447.115000", "165447.902500", "165448.690000", "165449.480000", "165450.267500", "165451.055000", "165451.842500", "165452.632500", "165453.420000", "165454.207500", "165454.995000", "165455.785000", "165456.572500", "165457.360000", "165458.150000", "165458.937500", "165459.725000", "165500.512500", "165501.302500", "165502.090000", "165502.877500", "165503.665000", "165504.455000", "165505.242500", "165506.030000", "165506.817500", "165507.607500", "165508.395000", "165509.182500", "165509.970000", "165510.760000", "165511.547500", "165512.335000", "165513.122500", "165513.912500", "165514.700000", "165515.487500", "165516.277500", "165517.065000", "165517.852500", "165518.640000", "165519.430000", "165520.217500", "165521.005000", "165521.792500", "165522.582500", "165523.370000", "165524.157500", "165524.945000", "165525.735000", "165526.522500", "165527.310000", "165528.097500", "165528.887500", "165529.675000", "165530.462500", "165531.250000", "165532.040000", "165532.827500", "165533.615000", "165534.405000", "165535.192500", "165535.980000", "165536.767500", "165537.557500", "165538.345000", "165539.132500", "165539.920000", "165540.710000", "165541.497500", "165542.285000", "165543.072500", "165543.862500", "165544.650000", "165545.437500", "165546.225000", "165547.015000", "165547.802500", "165548.590000", "165549.377500", "165550.167500", "165550.955000", "165551.742500", "165552.532500", "165553.320000", "165554.107500", "165554.895000", "165555.685000", "165556.472500", "165557.260000", "165558.047500", "165558.837500", "165559.625000", "165600.412500", "165601.200000", "165601.990000", "165602.777500", "165603.565000", "165604.352500", "165605.142500", "165605.930000", "165606.717500", "165607.507500", "165608.295000", "165609.082500", "165609.870000", "165610.660000", "165611.447500", "165612.235000", "165613.022500", "165613.812500", "165614.600000", "165615.387500", "165616.175000", "165616.965000", "165617.752500", "165618.540000", "165619.327500", "165620.117500", "165620.905000", "165621.692500", "165622.480000", "165623.270000", "165624.057500", "165624.845000", "165625.635000", "165626.422500", "165627.210000", "165627.997500", "165628.787500", "165629.575000", "165630.362500", "165631.150000", "165631.940000", "165632.727500", "165633.515000", "165634.302500", "165635.092500", "165635.880000", "165636.667500", "165637.455000", "165638.245000", "165639.032500", "165639.820000", "165640.607500", "165641.397500", "165642.185000", "165642.972500", "165643.762500", "165644.550000", "165645.337500", "165646.125000", "165646.915000", "165647.702500", "165648.490000", "165649.277500", "165650.067500", "165650.855000", "165651.642500", "165652.430000", "165653.220000", "165654.007500", "165654.795000", "165655.582500", "165656.372500", "165657.160000", "165657.947500", "165658.735000", "165659.525000", "165700.312500", "165701.100000", "165701.890000", "165702.677500", "165703.465000", "165704.252500", "165705.042500", "165705.830000", "165706.617500", "165707.405000", "165708.195000", "165708.982500", "165709.770000", "165710.557500", "165711.347500", "165712.135000", "165712.922500", "165713.710000", "165714.500000", "165715.287500", "165716.075000", "165716.862500", "165717.652500", "165718.440000", "165719.227500", "165720.017500", "165720.805000", "165721.592500", "165722.380000", "165723.170000", "165723.957500", "165724.745000", "165725.532500", "165726.322500", "165727.110000", "165727.897500", "165728.685000", "165729.475000", "165730.262500", "165731.050000", "165731.837500"],
      "ContentTime": ["184907.312000", "184907.312000", "184907.312000", "184907.312000", "184907.328000", "184907.328000", "184907.328000", "185007.296000", "185007.296000", "185007.296000", "185007.296000", "185007.296000", "185007.296000", "185007.312000", "185007.312000", "185007.312000", "185007.312000", "185007.312000", "185007.312000", "185007.312000", "185007.328000", "185007.328000", "185007.328000", "185007.328000", "185007.328000", "185007.343000", "185007.343000", "185007.343000", "185007.343000", "185007.343000", "185007.343000", "185007.359000", "185007.359000", "185007.359000", "185007.359000", "185107.296000", "185107.296000", "185107.296000", "185107.296000", "185107.296000", "185107.296000", "185107.312000", "185107.312000", "185107.312000", "185107.312000", "185107.312000", "185107.312000", "185107.312000", "185107.328000", "185107.328000", "185107.328000", "185107.328000", "185107.328000", "185107.328000", "185107.328000", "185107.343000", "185107.343000", "185107.343000", "185107.343000", "185107.343000", "185107.343000", "185107.343000", "185107.359000", "185207.296000", "185207.296000", "185207.296000", "185207.296000", "185207.296000", "185207.312000", "185207.312000", "185207.312000", "185207.312000", "185207.312000", "185207.312000", "185207.312000", "185207.328000", "185207.328000", "185207.328000", "185207.328000", "185207.328000", "185207.328000", "185207.328000", "185207.343000", "185207.343000", "185207.343000", "185207.343000", "185207.343000", "185207.359000", "185207.359000", "185207.359000", "185207.359000", "185307.296000", "185307.296000", "185307.296000", "185307.296000", "185307.296000", "185307.296000", "185307.312000", "185307.312000", "185307.312000", "185307.312000", "185307.312000", "185307.328000", "185307.328000", "185307.328000", "185307.328000", "185307.328000", "185307.328000", "185307.328000", "185307.328000", "185307.343000", "185307.343000", "185307.343000", "185307.359000", "185307.359000", "185307.359000", "185307.359000", "185307.359000", "185307.359000", "185307.359000", "185407.296000", "185407.296000", "185407.296000", "185407.296000", "185407.296000", "185407.296000", "185407.312000", "185407.312000", "185407.312000", "185407.312000", "185407.312000", "185407.312000", "185407.312000", "185407.328000", "185407.328000", "185407.328000", "185407.328000", "185407.328000", "185407.328000", "185407.328000", "185407.343000", "185407.343000", "185407.343000", "185407.343000", "185407.343000", "185407.343000", "185407.343000", "185407.359000", "185507.296000", "185507.296000", "185507.296000", "185507.296000", "185507.296000", "185507.296000", "185507.312000", "185507.312000", "185507.312000", "185507.312000", "185507.312000", "185507.312000", "185507.312000", "185507.328000", "185507.328000", "185507.328000", "185507.328000", "185507.328000", "185507.328000", "185507.328000", "185507.343000", "185507.343000", "185507.343000", "185507.343000", "185507.343000", "185507.343000", "185507.343000", "185507.359000", "185607.296000", "185607.296000", "185607.296000", "185607.296000", "185607.296000", "185607.296000", "185607.312000", "185607.312000", "185607.312000", "185607.312000", "185607.312000", "185607.312000", "185607.312000", "185607.328000", "185607.328000", "185607.328000", "185607.328000", "185607.328000", "185607.328000", "185607.328000", "185607.343000", "185607.343000", "185607.343000", "185607.343000", "185607.343000", "185607.359000", "185607.359000", "185607.359000", "185707.296000", "185707.296000", "185707.296000", "185707.296000", "185707.296000", "185707.296000", "185707.312000", "185707.312000", "185707.312000", "185707.312000", "185707.312000", "185707.312000", "185707.312000", "185707.328000", "185707.328000", "185707.328000", "185707.328000", "185707.328000", "185707.328000", "185707.328000", "185707.343000", "185707.343000", "185707.343000", "185707.343000", "185707.343000", "185707.343000", "185707.343000", "185707.359000", "185707.359000", "185807.296000", "185807.296000", "185807.296000", "185807.296000", "185807.296000", "185807.296000", "185807.312000", "185807.312000", "185807.312000", "185807.312000", "185807.312000", "185807.312000", "185807.312000", "185807.328000", "185807.328000", "185807.328000", "185807.328000", "185807.328000", "185807.328000", "185807.343000", "185807.343000", "185807.343000", "185807.343000", "185807.343000", "185807.343000", "185807.343000", "185807.359000", "185807.359000", "185907.296000", "185907.296000", "185907.296000", "185907.296000", "185907.296000", "185907.296000", "185907.312000", "185907.312000", "185907.312000", "185907.312000", "185907.312000", "185907.312000", "185907.312000", "185907.328000", "185907.328000", "185907.328000", "185907.328000", "185907.328000", "185907.343000", "185907.343000", "185907.343000", "185907.343000", "185907.343000", "185907.343000", "185907.359000", "185907.359000", "185907.359000", "185907.359000", "190007.296000", "190007.296000", "190007.296000", "190007.296000", "190007.296000", "190007.296000", "190007.312000", "190007.312000", "190007.312000", "190007.312000", "190007.312000", "190007.312000", "190007.328000", "190007.328000", "190007.328000", "190007.328000", "190007.328000", "190007.328000", "190007.328000", "190007.343000", "190007.343000", "190007.343000", "190007.343000", "190007.343000", "190007.343000", "190007.359000", "190007.359000", "190007.359000", "190107.296000", "190107.296000", "190107.296000", "190107.296000", "190107.296000", "190107.296000", "190107.312000", "190107.312000", "190107.312000", "190107.312000", "190107.312000", "190107.328000", "190107.328000", "190107.328000", "190107.328000", "190107.328000", "190107.328000", "190107.328000", "190107.343000", "190107.343000", "190107.343000", "190107.343000", "190107.343000", "190107.343000", "190107.359000", "190107.359000", "190107.359000", "190107.359000", "190107.359000", "190207.296000", "190207.296000", "190207.296000", "190207.296000", "190207.296000", "190207.296000", "190207.312000", "190207.312000", "190207.312000", "190207.312000", "190207.312000", "190207.312000", "190207.312000", "190207.328000", "190207.328000", "190207.328000", "190207.328000", "190207.328000", "190207.328000", "190207.328000", "190207.343000", "190207.343000", "190207.343000", "190207.343000", "190207.343000", "190207.343000", "190207.343000", "190207.359000", "190307.296000", "190307.296000", "190307.296000", "190307.296000", "190307.296000", "190307.296000", "190307.312000", "190307.312000", "190307.312000", "190307.312000", "190307.312000", "190307.312000", "190307.312000", "190307.328000", "190307.328000", "190307.328000", "190307.328000", "190307.328000", "190307.328000", "190307.328000", "190307.343000", "190307.343000", "190307.343000", "190307.343000", "190307.343000", "190307.359000", "190307.359000", "190307.359000", "190407.296000", "190407.296000", "190407.296000", "190407.296000", "190407.296000", "190407.296000", "190407.312000", "190407.312000", "190407.312000", "190407.312000", "190407.312000", "190407.312000", "190407.328000", "190407.328000", "190407.328000", "190407.328000", "190407.328000", "190407.328000", "190407.343000", "190407.343000", "190407.343000", "190407.343000", "190407.343000", "190407.343000", "190407.343000", "190407.359000", "190407.359000", "190407.359000", "190507.296000", "190507.296000", "190507.296000", "190507.296000", "190507.296000", "190507.296000", "190507.312000", "190507.312000", "190507.312000", "190507.312000", "190507.312000", "190507.312000", "190507.312000", "190507.328000", "190507.328000", "190507.328000", "190507.328000", "190507.328000", "190507.328000", "190507.328000", "190507.343000", "190507.343000", "190507.343000", "190507.343000", "190507.343000", "190507.359000", "190507.359000", "190507.359000", "190507.359000", "190607.296000", "190607.296000", "190607.296000", "190607.296000", "190607.296000", "190607.296000", "190607.312000", "190607.312000", "190607.312000", "190607.312000", "190607.312000", "190607.312000", "190607.312000", "190607.328000", "190607.328000", "190607.328000", "190607.328000", "190607.328000", "190607.328000", "190607.343000", "190607.343000", "190607.343000", "190607.343000", "190607.343000", "190607.343000", "190607.359000", "190607.359000", "190607.359000", "190707.296000", "190707.296000", "190707.296000", "190707.296000", "190707.296000", "190707.296000", "190707.312000", "190707.312000", "190707.312000", "190707.312000", "190707.312000", "190707.328000", "190707.328000", "190707.328000", "190707.328000", "190707.343000", "190707.343000", "190707.343000", "190707.343000", "190707.343000", "190707.359000", "190707.359000", "190707.359000", "190707.359000", "190707.359000", "190707.359000", "190707.375000", "190707.375000", "190807.296000", "190807.296000", "190807.296000", "190807.296000", "190807.296000", "190807.296000", "190807.312000", "190807.312000", "190807.312000", "190807.312000", "190807.312000", "190807.312000", "190807.312000", "190807.328000", "190807.328000", "190807.328000", "190807.328000", "190807.328000", "190807.328000", "190807.328000", "190807.343000", "190807.343000", "190807.343000", "190807.343000", "190807.343000", "190807.343000", "190807.343000", "190807.359000", "190807.359000", "190907.296000", "190907.296000", "190907.296000", "190907.296000", "190907.296000", "190907.296000", "190907.312000", "190907.312000", "190907.312000", "190907.312000", "190907.312000", "190907.312000", "190907.312000", "190907.328000", "190907.328000", "190907.328000", "190907.328000", "190907.328000", "190907.328000", "190907.328000", "190907.343000", "190907.343000", "190907.343000", "190907.343000", "190907.343000", "190907.343000", "190907.343000", "190907.359000", "190925.500000", "190925.515000", "190925.515000", "190925.515000", "190925.515000", "190925.515000", "190925.531000", "190925.531000", "190925.531000"],
