{
  "AcquisitionMatrixPE": 104,
  "AcquisitionNumber": 1,
  "AcquisitionTime": "16:16:40.792500",
  "BandwidthPerPixelPhaseEncode": 13.935,
  "BaseResolution": 104,
  "CoilString": "C:HEA;HEP",
  "ConversionSoftware": "dcm2niix",
  "ConversionSoftwareVersion": "v1.0.20210317",
  "DerivedVendorReportedEchoSpacing": 0.000690017,
  "DeviceSerialNumber": "35450",
  "DwellTime": 2.5e-06,
  "EchoTime": 0.0348,
  "EffectiveEchoSpacing": 0.000690017,
  "FlipAngle": 55,
  "ImageComments": "Unaliased MB8/PE3",
  "ImageOrientationPatientDICOM": [0.999847, 0.00124774, 0.0174453, 2.4845e-08, 0.997452, -0.0713422],
  "ImageType": [
    "ORIGINAL",
    "PRIMARY",
    "M",
    "MB",
    "ND",
    "MOSAIC"
],
  "ImagingFrequency": 123.235,
  "InPlanePhaseEncodingDirectionDICOM": "COL",
  "InstitutionAddress": "Univeristy Ave. 197,Newark,North East,US,07102-1814",
  "InstitutionName": "RUBIC",
  "InstitutionalDepartmentName": "Department",
  "MRAcquisitionType": "2D",
  "MagneticFieldStrength": 3,
  "Manufacturer": "Siemens",
  "ManufacturersModelName": "TrioTim",
  "Modality": "MR",
  "MultibandAccelerationFactor": 8,
  "PartialFourier": 0.875,
  "PatientPosition": "HFS",
  "PercentPhaseFOV": 100,
  "PercentSampling": 100,
  "PhaseEncodingDirection": "j-",
  "PhaseEncodingSteps": 91,
  "PhaseResolution": 1,
  "PixelBandwidth": 1923,
  "ProcedureStepDescription": "Cole^Michael",
  "ProtocolName": "cmrr_mbep2d_bold_2mm_MB8_Task_8x",
  "PulseSequenceDetails": "%CustomerSeq%\\cmrr_mbep2d_bold",
  "ReceiveCoilName": "32Ch_Head",
  "ReconMatrixPE": 104,
  "RepetitionTime": 0.785,
  "SAR": 0.121533,
  "ScanOptions": "PFP\\FS",
  "ScanningSequence": "EP",
  "SequenceName": "epfid2d1_104",
  "SequenceVariant": "SK\\SS",
  "SeriesDescription": "cmrr_mbep2d_bold_2mm_MB8_Task_8x",
  "SeriesNumber": 21,
  "ShimSetting": [2182, -334, -7368, 388, 301, -233, 128, -106],
  "SliceThickness": 2,
  "SliceTiming": [0, 0.4375, 0.0875, 0.525, 0.175, 0.6125, 0.2625, 0.7, 0.35, 0, 0.4375, 0.0875, 0.525, 0.175, 0.6125, 0.2625, 0.7, 0.35, 0, 0.4375, 0.0875, 0.525, 0.175, 0.6125, 0.2625, 0.7, 0.35, 0, 0.4375, 0.0875, 0.525, 0.175, 0.6125, 0.2625, 0.7, 0.35, 0, 0.4375, 0.0875, 0.525, 0.175, 0.6125, 0.2625, 0.7, 0.35, 0, 0.4375, 0.0875, 0.525, 0.175, 0.6125, 0.2625, 0.7, 0.35, 0, 0.4375, 0.0875, 0.525, 0.175, 0.6125, 0.2625, 0.7, 0.35, 0, 0.4375, 0.0875, 0.525, 0.175, 0.6125, 0.2625, 0.7, 0.35],
  "SoftwareVersions": "syngo MR B19",
  "SpacingBetweenSlices": 2,
  "StationName": "MRC35450",
  "TaskName": "cpro",
  "TotalReadoutTime": 0.0710717,
  "TxRefAmp": 317.037,
  "dcmmeta_affine": [
    [-1.9996941089630127, 4.969008315924839e-08, 0.03497971594333649, 102.92613220214844],
    [-0.0024954795371741056, 1.994903802871704, -0.14266254007816315, -81.37686920166016],
    [0.03489058464765549, 0.14268437027931213, 1.9945987462997437, -100.97505950927734],
    [0.0, 0.0, 0.0, 1.0]
],
  "dcmmeta_reorient_transform": [
    [0.0, -1.0, 0.0, 103.0],
    [1.0, 0.0, 0.0, 0.0],
    [0.0, 0.0, 1.0, 0.0],
    [0.0, 0.0, 0.0, 1.0]
],
  "dcmmeta_shape": [104, 104, 72, 581],
  "dcmmeta_slice_dim": 2,
  "dcmmeta_version": 0.6,
  "global": {
    "const": {
      "AcquisitionMatrix": [104, 0, 0, 104],
      "AngioFlag": "N",
      "BitsAllocated": 16,
      "BitsStored": 12,
      "Columns": 936,
      "EchoNumbers": 1,
      "EchoTime": 34.8,
      "EchoTrainLength": 1,
      "FlipAngle": 55.0,
      "HighBit": 11,
      "ImageOrientationPatient": [0.99984704075692, 0.0012477397768, 0.01744529263365, 2.4845042e-08, 0.99745190008499, -0.071342182591],
      "ImagePositionPatient": [-934.79889837681, -955.01632619799, -41.436361097571],
      "ImageType": [
        "ORIGINAL",
        "PRIMARY",
        "M",
        "MB",
        "ND",
        "MOSAIC"
],
      "ImagedNucleus": "1H",
      "ImagingFrequency": 123.23483,
      "InPlanePhaseEncodingDirection": "COL",
      "MRAcquisitionType": "2D",
      "MagneticFieldStrength": 3.0,
      "Manufacturer": "SIEMENS",
      "ManufacturerModelName": "TrioTim",
      "Modality": "MR",
      "NumberOfAverages": 1.0,
      "NumberOfPhaseEncodingSteps": 91,
      "PercentPhaseFieldOfView": 100.0,
      "PercentSampling": 100.0,
      "PerformedProcedureStepStartTime": "145806.125000",
      "PhotometricInterpretation": "MONOCHROME2",
      "PixelBandwidth": 1923.0,
      "PixelRepresentation": 0,
      "PixelSpacing": [2.0, 2.0],
      "ProtocolName": "cmrr_mbep2d_bold_2mm_MB8_Task_8x",
      "RepetitionTime": 785.0,
      "Rows": 936,
      "SAR": 0.12153333128279,
      "SamplesPerPixel": 1,
      "ScanOptions": [
        "PFP",
        "FS"
],
      "ScanningSequence": "EP",
      "SequenceName": "epfid2d1_104",
      "SequenceVariant": [
        "SK",
        "SS"
],
      "SeriesDescription": "cmrr_mbep2d_bold_2mm_MB8_Task_8x",
      "SeriesNumber": 21,
      "SeriesTime": "172551.390000",
      "SliceLocation": -93.097484318613,
      "SliceThickness": 2.0,
      "SmallestImagePixelValue": 0,
      "SoftwareVersions": "syngo MR B19",
      "SpacingBetweenSlices": 2.0000000500871,
      "SpecificCharacterSet": "ISO_IR 100",
      "StudyID": "1",
      "StudyTime": "145806.031000",
      "TransmitCoilName": "Body",
      "VariableFlipAngleFlag": "N",
      "WindowCenterWidthExplanation": "Algo1",
      "dBdt": 0.0},
    "slices": {}
  },
  "time": {
    "samples": {
      "AcquisitionNumber": [1, 2, 3, 4, 5, 6, 7, 8, 9, 10, 11, 12, 13, 14, 15, 16, 17, 18, 19, 20, 21, 22, 23, 24, 25, 26, 27, 28, 29, 30, 31, 32, 33, 34, 35, 36, 37, 38, 39, 40, 41, 42, 43, 44, 45, 46, 47, 48, 49, 50, 51, 52, 53, 54, 55, 56, 57, 58, 59, 60, 61, 62, 63, 64, 65, 66, 67, 68, 69, 70, 71, 72, 73, 74, 75, 76, 77, 78, 79, 80, 81, 82, 83, 84, 85, 86, 87, 88, 89, 90, 91, 92, 93, 94, 95, 96, 97, 98, 99, 100, 101, 102, 103, 104, 105, 106, 107, 108, 109, 110, 111, 112, 113, 114, 115, 116, 117, 118, 119, 120, 121, 122, 123, 124, 125, 126, 127, 128, 129, 130, 131, 132, 133, 134, 135, 136, 137, 138, 139, 140, 141, 142, 143, 144, 145, 146, 147, 148, 149, 150, 151, 152, 153, 154, 155, 156, 157, 158, 159, 160, 161, 162, 163, 164, 165, 166, 167, 168, 169, 170, 171, 172, 173, 174, 175, 176, 177, 178, 179, 180, 181, 182, 183, 184, 185, 186, 187, 188, 189, 190, 191, 192, 193, 194, 195, 196, 197, 198, 199, 200, 201, 202, 203, 204, 205, 206, 207, 208, 209, 210, 211, 212, 213, 214, 215, 216, 217, 218, 219, 220, 221, 222, 223, 224, 225, 226, 227, 228, 229, 230, 231, 232, 233, 234, 235, 236, 237, 238, 239, 240, 241, 242, 243, 244, 245, 246, 247, 248, 249, 250, 251, 252, 253, 254, 255, 256, 257, 258, 259, 260, 261, 262, 263, 264, 265, 266, 267, 268, 269, 270, 271, 272, 273, 274, 275, 276, 277, 278, 279, 280, 281, 282, 283, 284, 285, 286, 287, 288, 289, 290, 291, 292, 293, 294, 295, 296, 297, 298, 299, 300, 301, 302, 303, 304, 305, 306, 307, 308, 309, 310, 311, 312, 313, 314, 315, 316, 317, 318, 319, 320, 321, 322, 323, 324, 325, 326, 327, 328, 329, 330, 331, 332, 333, 334, 335, 336, 337, 338, 339, 340, 341, 342, 343, 344, 345, 346, 347, 348, 349, 350, 351, 352, 353, 354, 355, 356, 357, 358, 359, 360, 361, 362, 363, 364, 365, 366, 367, 368, 369, 370, 371, 372, 373, 374, 375, 376, 377, 378, 379, 380, 381, 382, 383, 384, 385, 386, 387, 388, 389, 390, 391, 392, 393, 394, 395, 396, 397, 398, 399, 400, 401, 402, 403, 404, 405, 406, 407, 408, 409, 410, 411, 412, 413, 414, 415, 416, 417, 418, 419, 420, 421, 422, 423, 424, 425, 426, 427, 428, 429, 430, 431, 432, 433, 434, 435, 436, 437, 438, 439, 440, 441, 442, 443, 444, 445, 446, 447, 448, 449, 450, 451, 452, 453, 454, 455, 456, 457, 458, 459, 460, 461, 462, 463, 464, 465, 466, 467, 468, 469, 470, 471, 472, 473, 474, 475, 476, 477, 478, 479, 480, 481, 482, 483, 484, 485, 486, 487, 488, 489, 490, 491, 492, 493, 494, 495, 496, 497, 498, 499, 500, 501, 502, 503, 504, 505, 506, 507, 508, 509, 510, 511, 512, 513, 514, 515, 516, 517, 518, 519, 520, 521, 522, 523, 524, 525, 526, 527, 528, 529, 530, 531, 532, 533, 534, 535, 536, 537, 538, 539, 540, 541, 542, 543, 544, 545, 546, 547, 548, 549, 550, 551, 552, 553, 554, 555, 556, 557, 558, 559, 560, 561, 562, 563, 564, 565, 566, 567, 568, 569, 570, 571, 572, 573, 574, 575, 576, 577, 578, 579, 580, 581],
      "AcquisitionTime": ["161640.792500", "161641.580000", "161642.367500", "161643.155000", "161643.945000", "161644.732500", "161645.520000", "161646.307500", "161647.097500", "161647.885000", "161648.672500", "161649.460000", "161650.250000", "161651.037500", "161651.825000", "161652.612500", "161653.402500", "161654.190000", "161654.977500", "161655.767500", "161656.555000", "161657.342500", "161658.130000", "161658.920000", "161659.707500", "161700.495000", "161701.282500", "161702.072500", "161702.860000", "161703.647500", "161704.435000", "161705.225000", "161706.012500", "161706.800000", "161707.587500", "161708.377500", "161709.165000", "161709.952500", "161710.742500", "161711.530000", "161712.317500", "161713.105000", "161713.895000", "161714.682500", "161715.470000", "161716.257500", "161717.047500", "161717.835000", "161718.622500", "161719.410000", "161720.200000", "161720.987500", "161721.775000", "161722.562500", "161723.352500", "161724.140000", "161724.927500", "161725.715000", "161726.505000", "161727.292500", "161728.080000", "161728.870000", "161729.657500", "161730.445000", "161731.232500", "161732.022500", "161732.810000", "161733.597500", "161734.385000", "161735.175000", "161735.962500", "161736.750000", "161737.537500", "161738.327500", "161739.115000", "161739.902500", "161740.690000", "161741.480000", "161742.267500", "161743.055000", "161743.842500", "161744.632500", "161745.420000", "161746.207500", "161746.997500", "161747.785000", "161748.572500", "161749.360000", "161750.150000", "161750.937500", "161751.725000", "161752.512500", "161753.302500", "161754.090000", "161754.877500", "161755.665000", "161756.455000", "161757.242500", "161758.030000", "161758.817500", "161759.607500", "161800.395000", "161801.182500", "161801.970000", "161802.760000", "161803.547500", "161804.335000", "161805.125000", "161805.912500", "161806.700000", "161807.487500", "161808.277500", "161809.065000", "161809.852500", "161810.640000", "161811.430000", "161812.217500", "161813.005000", "161813.792500", "161814.582500", "161815.370000", "161816.157500", "161816.945000", "161817.735000", "161818.522500", "161819.310000", "161820.097500", "161820.887500", "161821.675000", "161822.462500", "161823.252500", "161824.040000", "161824.827500", "161825.615000", "161826.405000", "161827.192500", "161827.980000", "161828.767500", "161829.557500", "161830.345000", "161831.132500", "161831.920000", "161832.710000", "161833.497500", "161834.285000", "161835.072500", "161835.862500", "161836.650000", "161837.437500", "161838.225000", "161839.015000", "161839.802500", "161840.590000", "161841.380000", "161842.167500", "161842.955000", "161843.742500", "161844.532500", "161845.320000", "161846.107500", "161846.895000", "161847.685000", "161848.472500", "161849.260000", "161850.047500", "161850.837500", "161851.625000", "161852.412500", "161853.200000", "161853.990000", "161854.777500", "161855.565000", "161856.352500", "161857.142500", "161857.930000", "161858.717500", "161859.507500", "161900.295000", "161901.082500", "161901.870000", "161902.660000", "161903.447500", "161904.235000", "161905.022500", "161905.812500", "161906.600000", "161907.387500", "161908.175000", "161908.965000", "161909.752500", "161910.540000", "161911.327500", "161912.117500", "161912.905000", "161913.692500", "161914.480000", "161915.270000", "161916.057500", "161916.845000", "161917.635000", "161918.422500", "161919.210000", "161919.997500", "161920.787500", "161921.575000", "161922.362500", "161923.150000", "161923.940000", "161924.727500", "161925.515000", "161926.302500", "161927.092500", "161927.880000", "161928.667500", "161929.455000", "161930.245000", "161931.032500", "161931.820000", "161932.607500", "161933.397500", "161934.185000", "161934.972500", "161935.762500", "161936.550000", "161937.337500", "161938.125000", "161938.915000", "161939.702500", "161940.490000", "161941.277500", "161942.067500", "161942.855000", "161943.642500", "161944.430000", "161945.220000", "161946.007500", "161946.795000", "161947.582500", "161948.372500", "161949.160000", "161949.947500", "161950.735000", "161951.525000", "161952.312500", "161953.100000", "161953.890000", "161954.677500", "161955.465000", "161956.252500", "161957.042500", "161957.830000", "161958.617500", "161959.405000", "162000.195000", "162000.982500", "162001.770000", "162002.557500", "162003.347500", "162004.135000", "162004.922500", "162005.710000", "162006.500000", "162007.287500", "162008.075000", "162008.862500", "162009.652500", "162010.440000", "162011.227500", "162012.017500", "162012.805000", "162013.592500", "162014.380000", "162015.170000", "162015.957500", "162016.745000", "162017.532500", "162018.322500", "162019.110000", "162019.897500", "162020.685000", "162021.475000", "162022.262500", "162023.050000", "162023.837500", "162024.627500", "162025.415000", "162026.202500", "162026.992500", "162027.780000", "162028.567500", "162029.355000", "162030.145000", "162030.932500", "162031.720000", "162032.507500", "162033.297500", "162034.085000", "162034.872500", "162035.660000", "162036.450000", "162037.237500", "162038.025000", "162038.812500", "162039.602500", "162040.390000", "162041.177500", "162041.965000", "162042.755000", "162043.542500", "162044.330000", "162045.120000", "162045.907500", "162046.695000", "162047.482500", "162048.272500", "162049.060000", "162049.847500", "162050.635000", "162051.425000", "162052.212500", "162053.000000", "162053.787500", "162054.577500", "162055.365000", "162056.152500", "162056.940000", "162057.730000", "162058.517500", "162059.305000", "162100.092500", "162100.882500", "162101.670000", "162102.457500", "162103.247500", "162104.035000", "162104.822500", "162105.610000", "162106.400000", "162107.187500", "162107.975000", "162108.762500", "162109.552500", "162110.340000", "162111.127500", "162111.915000", "162112.705000", "162113.492500", "162114.280000", "162115.067500", "162115.857500", "162116.645000", "162117.432500", "162118.220000", "162119.010000", "162119.797500", "162120.585000", "162121.375000", "162122.162500", "162122.950000", "162123.737500", "162124.527500", "162125.315000", "162126.102500", "162126.890000", "162127.680000", "162128.467500", "162129.255000", "162130.042500", "162130.832500", "162131.620000", "162132.407500", "162133.195000", "162133.985000", "162134.772500", "162135.560000", "162136.347500", "162137.137500", "162137.925000", "162138.712500", "162139.502500", "162140.290000", "162141.077500", "162141.865000", "162142.655000", "162143.442500", "162144.230000", "162145.017500", "162145.807500", "162146.595000", "162147.382500", "162148.170000", "162148.960000", "162149.747500", "162150.535000", "162151.322500", "162152.112500", "162152.900000", "162153.687500", "162154.475000", "162155.265000", "162156.052500", "162156.840000", "162157.630000", "162158.417500", "162159.205000", "162159.992500", "162200.782500", "162201.570000", "162202.357500", "162203.145000", "162203.935000", "162204.722500", "162205.510000", "162206.297500", "162207.087500", "162207.875000", "162208.662500", "162209.450000", "162210.240000", "162211.027500", "162211.815000", "162212.602500", "162213.392500", "162214.180000", "162214.967500", "162215.757500", "162216.545000", "162217.332500", "162218.120000", "162218.910000", "162219.697500", "162220.485000", "162221.272500", "162222.062500", "162222.850000", "162223.637500", "162224.425000", "162225.215000", "162226.002500", "162226.790000", "162227.577500", "162228.367500", "162229.155000", "162229.942500", "162230.730000", "162231.520000", "162232.307500", "162233.095000", "162233.885000", "162234.672500", "162235.460000", "162236.247500", "162237.037500", "162237.825000", "162238.612500", "162239.400000", "162240.190000", "162240.977500", "162241.765000", "162242.552500", "162243.342500", "162244.130000", "162244.917500", "162245.705000", "162246.495000", "162247.282500", "162248.070000", "162248.857500", "162249.647500", "162250.435000", "162251.222500", "162252.012500", "162252.800000", "162253.587500", "162254.375000", "162255.165000", "162255.952500", "162256.740000", "162257.527500", "162258.317500", "162259.105000", "162259.892500", "162300.680000", "162301.470000", "162302.257500", "162303.045000", "162303.832500", "162304.622500", "162305.410000", "162306.197500", "162306.985000", "162307.775000", "162308.562500", "162309.350000", "162310.140000", "162310.927500", "162311.715000", "162312.502500", "162313.292500", "162314.080000", "162314.867500", "162315.655000", "162316.445000", "162317.232500", "162318.020000", "162318.807500", "162319.597500", "162320.385000", "162321.172500", "162321.960000", "162322.750000", "162323.537500", "162324.325000", "162325.112500", "162325.902500", "162326.690000", "162327.477500", "162328.267500", "162329.055000", "162329.842500", "162330.630000", "162331.420000", "162332.207500", "162332.995000", "162333.782500", "162334.572500", "162335.360000", "162336.147500", "162336.935000", "162337.725000", "162338.512500", "162339.300000", "162340.087500", "162340.877500", "162341.665000", "162342.452500", "162343.242500", "162344.030000", "162344.817500", "162345.605000", "162346.395000", "162347.182500", "162347.970000", "162348.757500", "162349.547500", "162350.335000", "162351.122500", "162351.910000", "162352.700000", "162353.487500", "162354.275000", "162355.062500", "162355.852500", "162356.640000", "162357.427500", "162358.215000", "162359.005000", "162359.792500", "162400.580000", "162401.370000", "162402.157500", "162402.945000", "162403.732500", "162404.522500", "162405.310000", "162406.097500", "162406.885000", "162407.675000", "162408.462500", "162409.250000", "162410.037500", "162410.827500", "162411.615000", "162412.402500", "162413.190000", "162413.980000", "162414.767500", "162415.555000", "162416.342500", "162417.132500", "162417.920000"],
      "ContentTime": ["172551.390000", "172551.390000", "172551.390000", "172551.406000", "172551.406000", "172551.406000", "172551.406000", "172551.406000", "172651.375000", "172651.375000", "172651.375000", "172651.375000", "172651.375000", "172651.375000", "172651.390000", "172651.390000", "172651.390000", "172651.390000", "172651.390000", "172651.390000", "172651.390000", "172651.406000", "172651.406000", "172651.406000", "172651.406000", "172651.406000", "172651.406000", "172651.406000", "172651.421000", "172651.421000", "172651.421000", "172651.421000", "172651.421000", "172651.421000", "172651.421000", "172651.437000", "172751.375000", "172751.375000", "172751.375000", "172751.375000", "172751.375000", "172751.375000", "172751.390000", "172751.390000", "172751.390000", "172751.390000", "172751.390000", "172751.390000", "172751.390000", "172751.406000", "172751.406000", "172751.406000", "172751.406000", "172751.406000", "172751.421000", "172751.421000", "172751.421000", "172751.421000", "172751.421000", "172751.437000", "172751.437000", "172751.437000", "172751.437000", "172751.437000", "172751.437000", "172851.375000", "172851.375000", "172851.375000", "172851.375000", "172851.390000", "172851.390000", "172851.390000", "172851.390000", "172851.390000", "172851.390000", "172851.390000", "172851.406000", "172851.406000", "172851.406000", "172851.406000", "172851.406000", "172851.406000", "172851.406000", "172851.421000", "172851.421000", "172851.421000", "172851.421000", "172851.421000", "172851.421000", "172851.437000", "172851.437000", "172851.437000", "172851.437000", "172951.375000", "172951.375000", "172951.375000", "172951.375000", "172951.375000", "172951.375000", "172951.390000", "172951.390000", "172951.390000", "172951.390000", "172951.390000", "172951.390000", "172951.390000", "172951.406000", "172951.406000", "172951.406000", "172951.406000", "172951.406000", "172951.421000", "172951.421000", "172951.421000", "172951.421000", "172951.421000", "172951.421000", "172951.421000", "172951.437000", "172951.437000", "172951.437000", "173051.375000", "173051.375000", "173051.375000", "173051.375000", "173051.375000", "173051.375000", "173051.390000", "173051.390000", "173051.390000", "173051.406000", "173051.406000", "173051.406000", "173051.406000", "173051.406000", "173051.406000", "173051.421000", "173051.421000", "173051.421000", "173051.421000", "173051.421000", "173051.421000", "173051.421000", "173051.437000", "173051.437000", "173051.437000", "173051.437000", "173051.437000", "173051.437000", "173151.375000", "173151.375000", "173151.375000", "173151.375000", "173151.375000", "173151.375000", "173151.390000", "173151.390000", "173151.390000", "173151.390000", "173151.390000", "173151.390000", "173151.390000", "173151.406000", "173151.406000", "173151.406000", "173151.406000", "173151.406000", "173151.421000", "173151.421000", "173151.421000", "173151.421000", "173151.421000", "173151.437000", "173151.437000", "173151.437000", "173151.437000", "173151.437000", "173151.437000", "173251.375000", "173251.375000", "173251.375000", "173251.375000", "173251.375000", "173251.375000", "173251.390000", "173251.390000", "173251.390000", "173251.390000", "173251.390000", "173251.390000", "173251.406000", "173251.406000", "173251.406000", "173251.406000", "173251.406000", "173251.406000", "173251.406000", "173251.421000", "173251.421000", "173251.421000", "173251.421000", "173251.421000", "173251.421000", "173251.421000", "173251.437000", "173251.437000", "173351.375000", "173351.375000", "173351.375000", "173351.375000", "173351.375000", "173351.375000", "173351.390000", "173351.390000", "173351.390000", "173351.390000", "173351.390000", "173351.390000", "173351.390000", "173351.406000", "173351.406000", "173351.406000", "173351.406000", "173351.406000", "173351.406000", "173351.421000", "173351.421000", "173351.421000", "173351.421000", "173351.421000", "173351.421000", "173351.421000", "173351.437000", "173351.437000", "173451.375000", "173451.375000", "173451.375000", "173451.375000", "173451.375000", "173451.375000", "173451.390000", "173451.390000", "173451.390000", "173451.390000", "173451.390000", "173451.390000", "173451.390000", "173451.406000", "173451.406000", "173451.406000", "173451.406000", "173451.406000", "173451.406000", "173451.406000", "173451.421000", "173451.421000", "173451.421000", "173451.421000", "173451.421000", "173451.437000", "173451.437000", "173451.437000", "173551.375000", "173551.375000", "173551.375000", "173551.375000", "173551.375000", "173551.375000", "173551.390000", "173551.390000", "173551.390000", "173551.390000", "173551.390000", "173551.390000", "173551.406000", "173551.406000", "173551.406000", "173551.406000", "173551.406000", "173551.406000", "173551.406000", "173551.421000", "173551.421000", "173551.421000", "173551.421000", "173551.421000", "173551.421000", "173551.421000", "173551.437000", "173551.437000", "173631.375000", "173631.375000", "173631.375000", "173631.375000", "173631.375000", "173631.390000", "173631.390000", "173631.390000", "173631.390000", "173631.390000", "173631.390000", "173631.390000", "173631.406000", "173631.406000", "173631.406000", "173631.406000", "173631.406000", "173631.406000", "173631.406000", "173731.375000", "173731.375000", "173731.375000", "173731.375000", "173731.375000", "173731.375000", "173731.390000", "173731.390000", "173731.390000", "173731.390000", "173731.390000", "173731.390000", "173731.390000", "173731.406000", "173731.406000", "173731.406000", "173731.406000", "173731.406000", "173731.406000", "173731.406000", "173731.421000", "173731.421000", "173731.421000", "173731.421000", "173731.421000", "173731.421000", "173731.437000", "173731.437000", "173831.375000", "173831.375000", "173831.375000", "173831.375000", "173831.375000", "173831.375000", "173831.390000", "173831.390000", "173831.390000", "173831.390000", "173831.390000", "173831.390000", "173831.390000", "173831.406000", "173831.406000", "173831.406000", "173831.406000", "173831.406000", "173831.406000", "173831.406000", "173831.421000", "173831.421000", "173831.421000", "173831.421000", "173831.421000", "173831.421000", "173831.421000", "173831.437000", "173831.437000", "173931.375000", "173931.375000", "173931.375000", "173931.375000", "173931.375000", "173931.375000", "173931.390000", "173931.390000", "173931.390000", "173931.390000", "173931.390000", "173931.390000", "173931.390000", "173931.406000", "173931.406000", "173931.406000", "173931.406000", "173931.406000", "173931.406000", "173931.406000", "173931.421000", "173931.421000", "173931.421000", "173931.421000", "173931.421000", "173931.421000", "173931.437000", "173931.437000", "174031.375000", "174031.375000", "174031.375000", "174031.375000", "174031.375000", "174031.375000", "174031.390000", "174031.390000", "174031.390000", "174031.390000", "174031.390000", "174031.390000", "174031.390000", "174031.406000", "174031.406000", "174031.406000", "174031.406000", "174031.406000", "174031.406000", "174031.406000", "174031.421000", "174031.421000", "174031.421000", "174031.421000", "174031.421000", "174031.421000", "174031.421000", "174031.437000", "174131.375000", "174131.375000", "174131.375000", "174131.375000", "174131.375000", "174131.375000", "174131.390000", "174131.390000", "174131.390000", "174131.390000", "174131.390000", "174131.390000", "174131.406000", "174131.406000", "174131.406000", "174131.406000", "174131.406000", "174131.406000", "174131.406000", "174131.421000", "174131.421000", "174131.421000", "174131.421000", "174131.421000", "174131.421000", "174131.421000", "174131.437000", "174131.437000", "174231.375000", "174231.375000", "174231.375000", "174231.375000", "174231.375000", "174231.375000", "174231.390000", "174231.390000", "174231.390000", "174231.390000", "174231.390000", "174231.390000", "174231.406000", "174231.406000", "174231.406000", "174231.406000", "174231.406000", "174231.406000", "174231.421000", "174231.421000", "174231.421000", "174231.421000", "174231.421000", "174231.421000", "174231.421000", "174231.437000", "174231.437000", "174231.437000", "174331.375000", "174331.375000", "174331.375000", "174331.375000", "174331.375000", "174331.375000", "174331.390000", "174331.390000", "174331.390000", "174331.390000", "174331.390000", "174331.390000", "174331.390000", "174331.406000", "174331.406000", "174331.406000", "174331.406000", "174331.406000", "174331.406000", "174331.421000", "174331.421000", "174331.421000", "174331.421000", "174331.421000", "174331.421000", "174331.421000", "174331.437000", "174331.437000", "174331.437000", "174431.375000", "174431.375000", "174431.375000", "174431.375000", "174431.375000", "174431.375000", "174431.390000", "174431.390000", "174431.390000", "174431.390000", "174431.390000", "174431.390000", "174431.406000", "174431.406000", "174431.406000", "174431.406000", "174431.406000", "174431.406000", "174431.421000", "174431.421000", "174431.421000", "174431.421000", "174431.421000", "174431.437000", "174431.437000", "174431.437000", "174431.453000", "174431.453000", "174531.375000", "174531.375000", "174531.375000", "174531.375000", "174531.375000", "174531.375000", "174531.390000", "174531.390000", "174531.390000", "174531.390000", "174531.390000", "174531.390000", "174531.390000", "174531.406000", "174531.406000", "174531.406000", "174531.406000", "174531.406000", "174531.406000", "174531.421000", "174531.421000", "174531.421000", "174531.421000", "174531.421000", "174531.421000", "174531.421000", "174531.437000", "174531.437000", "174607.968000", "174607.968000", "174607.968000", "174607.968000", "174607.984000", "174607.984000", "174607.984000", "174607.984000", "174607.984000", "174607.984000", "174607.984000", "174608.000000", "174608.000000", "174608.000000", "174608.000000", "174608.000000", "174608.000000", "174608.000000"],
