{
  "AcquisitionMatrixPE": 104,
  "AcquisitionNumber": 1,
  "AcquisitionTime": "11:46:8.712500",
  "BandwidthPerPixelPhaseEncode": 13.935,
  "BaseResolution": 104,
  "CoilString": "C:HEA;HEP",
  "ConversionSoftware": "dcm2niix",
  "ConversionSoftwareVersion": "v1.0.20210317",
  "DerivedVendorReportedEchoSpacing": 0.000690017,
  "DeviceSerialNumber": "35450",
  "DwellTime": 2.5e-06,
  "EchoTime": 0.0348,
  "EffectiveEchoSpacing": 0.000690017,
  "FlipAngle": 55,
  "ImageComments": "Unaliased MB8/PE3 (remote)",
  "ImageOrientationPatientDICOM": [0.999886, 0.00055304, 0.0150886, 1.32634e-08, 0.999329, -0.0366291],
  "ImageType": [
    "ORIGINAL",
    "PRIMARY",
    "M",
    "MB",
    "ND",
    "MOSAIC"
],
  "ImagingFrequency": 123.234,
  "InPlanePhaseEncodingDirectionDICOM": "COL",
  "InstitutionAddress": "Univeristy Ave. 197,Newark,North East,US,07102-1814",
  "InstitutionName": "RUBIC",
  "InstitutionalDepartmentName": "Department",
  "MRAcquisitionType": "2D",
  "MagneticFieldStrength": 3,
  "Manufacturer": "Siemens",
  "ManufacturersModelName": "TrioTim",
  "Modality": "MR",
  "MultibandAccelerationFactor": 8,
  "PartialFourier": 0.875,
  "PatientPosition": "HFS",
  "PercentPhaseFOV": 100,
  "PercentSampling": 100,
  "PhaseEncodingDirection": "j-",
  "PhaseEncodingSteps": 91,
  "PhaseResolution": 1,
  "PixelBandwidth": 1923,
  "ProcedureStepDescription": "Cole^Michael",
  "ProtocolName": "cmrr_mbep2d_bold_2mm_MB8_Task_8x",
  "PulseSequenceDetails": "%CustomerSeq%\\cmrr_mbep2d_bold",
  "ReceiveCoilName": "32Ch_Head",
  "ReconMatrixPE": 104,
  "RepetitionTime": 0.785,
  "SAR": 0.139344,
  "ScanOptions": "PFP\\FS",
  "ScanningSequence": "EP",
  "SequenceName": "epfid2d1_104",
  "SequenceVariant": "SK\\SS",
  "SeriesDescription": "cmrr_mbep2d_bold_2mm_MB8_Task_8x",
  "SeriesNumber": 25,
  "ShimSetting": [2118, -386, -7275, 438, -103, -139, 350, 56],
  "SliceThickness": 2,
  "SliceTiming": [0, 0.4375, 0.0875, 0.525, 0.175, 0.6125, 0.2625, 0.7, 0.35, 0, 0.4375, 0.0875, 0.525, 0.175, 0.6125, 0.2625, 0.7, 0.35, 0, 0.4375, 0.0875, 0.525, 0.175, 0.6125, 0.2625, 0.7, 0.35, 0, 0.4375, 0.0875, 0.525, 0.175, 0.6125, 0.2625, 0.7, 0.35, 0, 0.4375, 0.0875, 0.525, 0.175, 0.6125, 0.2625, 0.7, 0.35, 0, 0.4375, 0.0875, 0.525, 0.175, 0.6125, 0.2625, 0.7, 0.35, 0, 0.4375, 0.0875, 0.525, 0.175, 0.6125, 0.2625, 0.7, 0.35, 0, 0.4375, 0.0875, 0.525, 0.175, 0.6125, 0.2625, 0.7, 0.35],
  "SoftwareVersions": "syngo MR B19",
  "SpacingBetweenSlices": 2,
  "StationName": "MRC35450",
  "TaskName": "cpro",
  "TotalReadoutTime": 0.0710717,
  "TxRefAmp": 356.05,
  "dcmmeta_affine": [
    [-1.999772071838379, 2.6526775442903272e-08, 0.03019750863313675, 104.38231658935547],
    [-0.001106079900637269, 1.9986578226089478, -0.07324977219104767, -79.66737365722656],
    [0.030177244916558266, 0.07325812429189682, 1.9984300136566162, -84.29165649414062],
    [0.0, 0.0, 0.0, 1.0]
],
  "dcmmeta_reorient_transform": [
    [0.0, -1.0, 0.0, 103.0],
    [1.0, 0.0, 0.0, 0.0],
    [0.0, 0.0, 1.0, 0.0],
    [0.0, 0.0, 0.0, 1.0]
],
  "dcmmeta_shape": [104, 104, 72, 581],
  "dcmmeta_slice_dim": 2,
  "dcmmeta_version": 0.6,
  "global": {
    "const": {
      "AcquisitionMatrix": [104, 0, 0, 104],
      "AngioFlag": "N",
      "BitsAllocated": 16,
      "BitsStored": 12,
      "Columns": 936,
      "EchoNumbers": 1,
      "EchoTime": 34.8,
      "EchoTrainLength": 1,
      "FlipAngle": 55.0,
      "HighBit": 11,
      "ImageOrientationPatient": [0.99988600731811, 0.00055303994747, 0.01508862207974, 1.3263388e-08, 0.99932893072312, -0.0366290625021],
      "ImagePositionPatient": [-936.28748641282, -958.09618195734, -58.824422483867],
      "ImageType": [
        "ORIGINAL",
        "PRIMARY",
        "M",
        "MB",
        "ND",
        "MOSAIC"
],
      "ImagedNucleus": "1H",
      "ImagingFrequency": 123.234407,
      "InPlanePhaseEncodingDirection": "COL",
      "MRAcquisitionType": "2D",
      "MagneticFieldStrength": 3.0,
      "Manufacturer": "SIEMENS",
      "ManufacturerModelName": "TrioTim",
      "Modality": "MR",
      "NumberOfAverages": 1.0,
      "NumberOfPhaseEncodingSteps": 91,
      "PercentPhaseFieldOfView": 100.0,
      "PercentSampling": 100.0,
      "PerformedProcedureStepStartTime": "093541.859000",
      "PhotometricInterpretation": "MONOCHROME2",
      "PixelBandwidth": 1923.0,
      "PixelRepresentation": 0,
      "PixelSpacing": [2.0, 2.0],
      "ProtocolName": "cmrr_mbep2d_bold_2mm_MB8_Task_8x",
      "RepetitionTime": 785.0,
      "Rows": 936,
      "SAR": 0.13934430259307,
      "SamplesPerPixel": 1,
      "ScanOptions": [
        "PFP",
        "FS"
],
      "ScanningSequence": "EP",
      "SequenceName": "epfid2d1_104",
      "SequenceVariant": [
        "SK",
        "SS"
],
      "SeriesDescription": "cmrr_mbep2d_bold_2mm_MB8_Task_8x",
      "SeriesNumber": 25,
      "SeriesTime": "114637.375000",
      "SliceLocation": -79.731636472144,
      "SliceThickness": 2.0,
      "SmallestImagePixelValue": 0,
      "SoftwareVersions": "syngo MR B19",
      "SpacingBetweenSlices": 2.0000000355515,
      "SpecificCharacterSet": "ISO_IR 100",
      "StudyID": "1",
      "StudyTime": "093541.765000",
      "TransmitCoilName": "Body",
      "VariableFlipAngleFlag": "N",
      "WindowCenterWidthExplanation": "Algo1",
      "dBdt": 0.0},
    "slices": {}
  },
  "time": {
    "samples": {
      "AcquisitionNumber": [1, 2, 3, 4, 5, 6, 7, 8, 9, 10, 11, 12, 13, 14, 15, 16, 17, 18, 19, 20, 21, 22, 23, 24, 25, 26, 27, 28, 29, 30, 31, 32, 33, 34, 35, 36, 37, 38, 39, 40, 41, 42, 43, 44, 45, 46, 47, 48, 49, 50, 51, 52, 53, 54, 55, 56, 57, 58, 59, 60, 61, 62, 63, 64, 65, 66, 67, 68, 69, 70, 71, 72, 73, 74, 75, 76, 77, 78, 79, 80, 81, 82, 83, 84, 85, 86, 87, 88, 89, 90, 91, 92, 93, 94, 95, 96, 97, 98, 99, 100, 101, 102, 103, 104, 105, 106, 107, 108, 109, 110, 111, 112, 113, 114, 115, 116, 117, 118, 119, 120, 121, 122, 123, 124, 125, 126, 127, 128, 129, 130, 131, 132, 133, 134, 135, 136, 137, 138, 139, 140, 141, 142, 143, 144, 145, 146, 147, 148, 149, 150, 151, 152, 153, 154, 155, 156, 157, 158, 159, 160, 161, 162, 163, 164, 165, 166, 167, 168, 169, 170, 171, 172, 173, 174, 175, 176, 177, 178, 179, 180, 181, 182, 183, 184, 185, 186, 187, 188, 189, 190, 191, 192, 193, 194, 195, 196, 197, 198, 199, 200, 201, 202, 203, 204, 205, 206, 207, 208, 209, 210, 211, 212, 213, 214, 215, 216, 217, 218, 219, 220, 221, 222, 223, 224, 225, 226, 227, 228, 229, 230, 231, 232, 233, 234, 235, 236, 237, 238, 239, 240, 241, 242, 243, 244, 245, 246, 247, 248, 249, 250, 251, 252, 253, 254, 255, 256, 257, 258, 259, 260, 261, 262, 263, 264, 265, 266, 267, 268, 269, 270, 271, 272, 273, 274, 275, 276, 277, 278, 279, 280, 281, 282, 283, 284, 285, 286, 287, 288, 289, 290, 291, 292, 293, 294, 295, 296, 297, 298, 299, 300, 301, 302, 303, 304, 305, 306, 307, 308, 309, 310, 311, 312, 313, 314, 315, 316, 317, 318, 319, 320, 321, 322, 323, 324, 325, 326, 327, 328, 329, 330, 331, 332, 333, 334, 335, 336, 337, 338, 339, 340, 341, 342, 343, 344, 345, 346, 347, 348, 349, 350, 351, 352, 353, 354, 355, 356, 357, 358, 359, 360, 361, 362, 363, 364, 365, 366, 367, 368, 369, 370, 371, 372, 373, 374, 375, 376, 377, 378, 379, 380, 381, 382, 383, 384, 385, 386, 387, 388, 389, 390, 391, 392, 393, 394, 395, 396, 397, 398, 399, 400, 401, 402, 403, 404, 405, 406, 407, 408, 409, 410, 411, 412, 413, 414, 415, 416, 417, 418, 419, 420, 421, 422, 423, 424, 425, 426, 427, 428, 429, 430, 431, 432, 433, 434, 435, 436, 437, 438, 439, 440, 441, 442, 443, 444, 445, 446, 447, 448, 449, 450, 451, 452, 453, 454, 455, 456, 457, 458, 459, 460, 461, 462, 463, 464, 465, 466, 467, 468, 469, 470, 471, 472, 473, 474, 475, 476, 477, 478, 479, 480, 481, 482, 483, 484, 485, 486, 487, 488, 489, 490, 491, 492, 493, 494, 495, 496, 497, 498, 499, 500, 501, 502, 503, 504, 505, 506, 507, 508, 509, 510, 511, 512, 513, 514, 515, 516, 517, 518, 519, 520, 521, 522, 523, 524, 525, 526, 527, 528, 529, 530, 531, 532, 533, 534, 535, 536, 537, 538, 539, 540, 541, 542, 543, 544, 545, 546, 547, 548, 549, 550, 551, 552, 553, 554, 555, 556, 557, 558, 559, 560, 561, 562, 563, 564, 565, 566, 567, 568, 569, 570, 571, 572, 573, 574, 575, 576, 577, 578, 579, 580, 581],
      "AcquisitionTime": ["114608.712500", "114609.500000", "114610.290000", "114611.077500", "114611.865000", "114612.652500", "114613.442500", "114614.230000", "114615.017500", "114615.807500", "114616.595000", "114617.382500", "114618.170000", "114618.960000", "114619.747500", "114620.535000", "114621.322500", "114622.112500", "114622.900000", "114623.687500", "114624.475000", "114625.265000", "114626.052500", "114626.840000", "114627.627500", "114628.417500", "114629.205000", "114629.992500", "114630.780000", "114631.570000", "114632.357500", "114633.145000", "114633.935000", "114634.722500", "114635.510000", "114636.297500", "114637.087500", "114637.875000", "114638.662500", "114639.450000", "114640.240000", "114641.027500", "114641.815000", "114642.602500", "114643.392500", "114644.180000", "114644.967500", "114645.755000", "114646.545000", "114647.332500", "114648.120000", "114648.907500", "114649.697500", "114650.485000", "114651.272500", "114652.062500", "114652.850000", "114653.637500", "114654.425000", "114655.215000", "114656.002500", "114656.790000", "114657.577500", "114658.367500", "114659.155000", "114659.942500", "114700.730000", "114701.520000", "114702.307500", "114703.095000", "114703.882500", "114704.672500", "114705.460000", "114706.247500", "114707.035000", "114707.825000", "114708.612500", "114709.400000", "114710.190000", "114710.977500", "114711.765000", "114712.552500", "114713.342500", "114714.130000", "114714.917500", "114715.705000", "114716.495000", "114717.282500", "114718.070000", "114718.857500", "114719.647500", "114720.435000", "114721.222500", "114722.010000", "114722.800000", "114723.587500", "114724.375000", "114725.162500", "114725.952500", "114726.740000", "114727.527500", "114728.317500", "114729.105000", "114729.892500", "114730.680000", "114731.470000", "114732.257500", "114733.045000", "114733.832500", "114734.622500", "114735.410000", "114736.197500", "114736.985000", "114737.775000", "114738.562500", "114739.350000", "114740.137500", "114740.927500", "114741.715000", "114742.502500", "114743.290000", "114744.080000", "114744.867500", "114745.655000", "114746.445000", "114747.232500", "114748.020000", "114748.807500", "114749.597500", "114750.385000", "114751.172500", "114751.960000", "114752.750000", "114753.537500", "114754.325000", "114755.112500", "114755.902500", "114756.690000", "114757.477500", "114758.265000", "114759.055000", "114759.842500", "114800.630000", "114801.417500", "114802.207500", "114802.995000", "114803.782500", "114804.572500", "114805.360000", "114806.147500", "114806.935000", "114807.725000", "114808.512500", "114809.300000", "114810.087500", "114810.877500", "114811.665000", "114812.452500", "114813.240000", "114814.030000", "114814.817500", "114815.605000", "114816.392500", "114817.182500", "114817.970000", "114818.757500", "114819.545000", "114820.335000", "114821.122500", "114821.910000", "114822.700000", "114823.487500", "114824.275000", "114825.062500", "114825.852500", "114826.640000", "114827.427500", "114828.215000", "114829.005000", "114829.792500", "114830.580000", "114831.367500", "114832.157500", "114832.945000", "114833.732500", "114834.520000", "114835.310000", "114836.097500", "114836.885000", "114837.672500", "114838.462500", "114839.250000", "114840.037500", "114840.827500", "114841.615000", "114842.402500", "114843.190000", "114843.980000", "114844.767500", "114845.555000", "114846.342500", "114847.132500", "114847.920000", "114848.707500", "114849.495000", "114850.285000", "114851.072500", "114851.860000", "114852.647500", "114853.437500", "114854.225000", "114855.012500", "114855.800000", "114856.590000", "114857.377500", "114858.165000", "114858.955000", "114859.742500", "114900.530000", "114901.317500", "114902.107500", "114902.895000", "114903.682500", "114904.470000", "114905.260000", "114906.047500", "114906.835000", "114907.622500", "114908.412500", "114909.200000", "114909.987500", "114910.775000", "114911.565000", "114912.352500", "114913.140000", "114913.927500", "114914.717500", "114915.505000", "114916.292500", "114917.082500", "114917.870000", "114918.657500", "114919.445000", "114920.235000", "114921.022500", "114921.810000", "114922.597500", "114923.387500", "114924.175000", "114924.962500", "114925.750000", "114926.540000", "114927.327500", "114928.115000", "114928.902500", "114929.692500", "114930.480000", "114931.267500", "114932.057500", "114932.845000", "114933.632500", "114934.420000", "114935.210000", "114935.997500", "114936.785000", "114937.572500", "114938.362500", "114939.150000", "114939.937500", "114940.725000", "114941.515000", "114942.302500", "114943.090000", "114943.877500", "114944.667500", "114945.455000", "114946.242500", "114947.030000", "114947.820000", "114948.607500", "114949.395000", "114950.185000", "114950.972500", "114951.760000", "114952.547500", "114953.337500", "114954.125000", "114954.912500", "114955.700000", "114956.490000", "114957.277500", "114958.065000", "114958.852500", "114959.642500", "115000.430000", "115001.217500", "115002.005000", "115002.795000", "115003.582500", "115004.370000", "115005.157500", "115005.947500", "115006.735000", "115007.522500", "115008.312500", "115009.100000", "115009.887500", "115010.675000", "115011.465000", "115012.252500", "115013.040000", "115013.827500", "115014.617500", "115015.405000", "115016.192500", "115016.980000", "115017.770000", "115018.557500", "115019.345000", "115020.132500", "115020.922500", "115021.710000", "115022.497500", "115023.285000", "115024.075000", "115024.862500", "115025.650000", "115026.440000", "115027.227500", "115028.015000", "115028.802500", "115029.592500", "115030.380000", "115031.167500", "115031.955000", "115032.745000", "115033.532500", "115034.320000", "115035.107500", "115035.897500", "115036.685000", "115037.472500", "115038.260000", "115039.050000", "115039.837500", "115040.625000", "115041.412500", "115042.202500", "115042.990000", "115043.777500", "115044.567500", "115045.355000", "115046.142500", "115046.930000", "115047.720000", "115048.507500", "115049.295000", "115050.082500", "115050.872500", "115051.660000", "115052.447500", "115053.235000", "115054.025000", "115054.812500", "115055.600000", "115056.387500", "115057.177500", "115057.965000", "115058.752500", "115059.540000", "115100.330000", "115101.117500", "115101.905000", "115102.695000", "115103.482500", "115104.270000", "115105.057500", "115105.847500", "115106.635000", "115107.422500", "115108.210000", "115109.000000", "115109.787500", "115110.575000", "115111.362500", "115112.152500", "115112.940000", "115113.727500", "115114.515000", "115115.305000", "115116.092500", "115116.880000", "115117.667500", "115118.457500", "115119.245000", "115120.032500", "115120.822500", "115121.610000", "115122.397500", "115123.185000", "115123.975000", "115124.762500", "115125.550000", "115126.337500", "115127.127500", "115127.915000", "115128.702500", "115129.490000", "115130.280000", "115131.067500", "115131.855000", "115132.642500", "115133.432500", "115134.220000", "115135.007500", "115135.795000", "115136.585000", "115137.372500", "115138.160000", "115138.950000", "115139.737500", "115140.525000", "115141.312500", "115142.102500", "115142.890000", "115143.677500", "115144.465000", "115145.255000", "115146.042500", "115146.830000", "115147.617500", "115148.407500", "115149.195000", "115149.982500", "115150.770000", "115151.560000", "115152.347500", "115153.135000", "115153.922500", "115154.712500", "115155.500000", "115156.287500", "115157.077500", "115157.865000", "115158.652500", "115159.440000", "115200.230000", "115201.017500", "115201.805000", "115202.592500", "115203.382500", "115204.170000", "115204.957500", "115205.745000", "115206.535000", "115207.322500", "115208.110000", "115208.897500", "115209.687500", "115210.475000", "115211.262500", "115212.050000", "115212.840000", "115213.627500", "115214.415000", "115215.205000", "115215.992500", "115216.780000", "115217.567500", "115218.357500", "115219.145000", "115219.932500", "115220.720000", "115221.510000", "115222.297500", "115223.085000", "115223.872500", "115224.662500", "115225.450000", "115226.237500", "115227.025000", "115227.815000", "115228.602500", "115229.390000", "115230.177500", "115230.967500", "115231.755000", "115232.542500", "115233.332500", "115234.120000", "115234.907500", "115235.695000", "115236.485000", "115237.272500", "115238.060000", "115238.847500", "115239.637500", "115240.425000", "115241.212500", "115242.000000", "115242.790000", "115243.577500", "115244.365000", "115245.152500", "115245.942500", "115246.730000", "115247.517500", "115248.307500", "115249.095000", "115249.882500", "115250.670000", "115251.460000", "115252.247500", "115253.035000", "115253.822500", "115254.612500", "115255.400000", "115256.187500", "115256.975000", "115257.765000", "115258.552500", "115259.340000", "115300.127500", "115300.917500", "115301.705000", "115302.492500", "115303.280000", "115304.070000", "115304.857500", "115305.645000", "115306.435000", "115307.222500", "115308.010000", "115308.797500", "115309.587500", "115310.375000", "115311.162500", "115311.950000", "115312.740000", "115313.527500", "115314.315000", "115315.102500", "115315.892500", "115316.680000", "115317.467500", "115318.255000", "115319.045000", "115319.832500", "115320.620000", "115321.407500", "115322.197500", "115322.985000", "115323.772500", "115324.562500", "115325.350000", "115326.137500", "115326.925000", "115327.715000", "115328.502500", "115329.290000", "115330.077500", "115330.867500", "115331.655000", "115332.442500", "115333.230000", "115334.020000", "115334.807500", "115335.595000", "115336.382500", "115337.172500", "115337.960000", "115338.747500", "115339.535000", "115340.325000", "115341.112500", "115341.900000", "115342.690000", "115343.477500", "115344.265000", "115345.052500", "115345.842500"],
      "ContentTime": ["114637.375000", "114637.375000", "114637.375000", "114637.375000", "114637.375000", "114637.390000", "114637.390000", "114637.390000", "114637.390000", "114637.390000", "114637.390000", "114637.390000", "114637.406000", "114637.406000", "114637.406000", "114637.406000", "114637.406000", "114637.406000", "114637.421000", "114637.421000", "114637.421000", "114637.421000", "114637.421000", "114637.437000", "114637.437000", "114637.437000", "114637.437000", "114637.437000", "114637.437000", "114637.437000", "114637.453000", "114637.453000", "114637.453000", "114637.453000", "114657.343000", "114657.343000", "114657.359000", "114657.359000", "114657.359000", "114657.359000", "114657.359000", "114657.359000", "114657.359000", "114657.375000", "114657.375000", "114657.375000", "114657.375000", "114657.375000", "114657.375000", "114657.375000", "114657.390000", "114657.390000", "114657.390000", "114657.390000", "114657.390000", "114657.390000", "114657.390000", "114657.406000", "114657.406000", "114657.406000", "114717.343000", "114717.343000", "114717.359000", "114717.359000", "114717.359000", "114717.359000", "114717.359000", "114717.359000", "114717.359000", "114717.375000", "114717.375000", "114717.375000", "114717.375000", "114717.375000", "114717.375000", "114717.375000", "114717.390000", "114717.390000", "114717.390000", "114717.390000", "114717.390000", "114717.390000", "114717.390000", "114717.390000", "114717.406000", "114737.343000", "114737.343000", "114737.359000", "114737.359000", "114737.359000", "114737.359000", "114737.359000", "114737.359000", "114737.359000", "114737.375000", "114737.375000", "114737.375000", "114737.375000", "114737.375000", "114737.375000", "114737.375000", "114737.390000", "114737.390000", "114737.390000", "114737.390000", "114737.390000", "114737.390000", "114737.390000", "114737.406000", "114737.406000", "114737.406000", "114757.343000", "114757.343000", "114757.359000", "114757.359000", "114757.359000", "114757.359000", "114757.359000", "114757.359000", "114757.359000", "114757.375000", "114757.375000", "114757.375000", "114757.375000", "114757.375000", "114757.375000", "114757.375000", "114757.390000", "114757.390000", "114757.390000", "114757.390000", "114757.390000", "114757.390000", "114757.390000", "114757.406000", "114757.406000", "114817.343000", "114817.343000", "114817.359000", "114817.359000", "114817.359000", "114817.359000", "114817.359000", "114817.375000", "114817.375000", "114817.375000", "114817.375000", "114817.375000", "114817.375000", "114817.390000", "114817.390000", "114817.390000", "114817.390000", "114817.390000", "114817.390000", "114817.406000", "114817.406000", "114817.406000", "114817.406000", "114817.406000", "114817.406000", "114817.406000", "114837.343000", "114837.343000", "114837.359000", "114837.359000", "114837.359000", "114837.359000", "114837.359000", "114837.375000", "114837.375000", "114837.375000", "114837.375000", "114837.375000", "114837.375000", "114837.375000", "114837.390000", "114837.390000", "114837.390000", "114837.390000", "114837.390000", "114837.390000", "114837.390000", "114837.406000", "114837.406000", "114837.406000", "114837.406000", "114857.343000", "114857.343000", "114857.359000", "114857.359000", "114857.359000", "114857.359000", "114857.359000", "114857.359000", "114857.359000", "114857.375000", "114857.375000", "114857.375000", "114857.375000", "114857.375000", "114857.375000", "114857.375000", "114857.390000", "114857.390000", "114857.390000", "114857.390000", "114857.390000", "114857.390000", "114857.390000", "114857.406000", "114857.406000", "114857.406000", "114917.343000", "114917.343000", "114917.359000", "114917.359000", "114917.359000", "114917.359000", "114917.359000", "114917.359000", "114917.359000", "114917.375000", "114917.375000", "114917.375000", "114917.375000", "114917.375000", "114917.375000", "114917.375000", "114917.390000", "114917.390000", "114917.390000", "114917.390000", "114917.390000", "114917.390000", "114917.406000", "114917.406000", "114917.406000", "114937.343000", "114937.343000", "114937.359000", "114937.359000", "114937.359000", "114937.359000", "114937.359000", "114937.359000", "114937.359000", "114937.375000", "114937.375000", "114937.375000", "114937.375000", "114937.375000", "114937.375000", "114937.375000", "114937.390000", "114937.390000", "114937.390000", "114937.390000", "114937.390000", "114937.390000", "114937.406000", "114937.406000", "114937.406000", "114937.406000", "114957.343000", "114957.343000", "114957.359000", "114957.359000", "114957.359000", "114957.359000", "114957.359000", "114957.359000", "114957.359000", "114957.375000", "114957.375000", "114957.375000", "114957.375000", "114957.375000", "114957.390000", "114957.390000", "114957.390000", "114957.390000", "114957.390000", "114957.390000", "114957.390000", "114957.406000", "114957.406000", "114957.406000", "114957.406000", "115017.343000", "115017.343000", "115017.359000", "115017.359000", "115017.359000", "115017.359000", "115017.359000", "115017.359000", "115017.359000", "115017.375000", "115017.375000", "115017.375000", "115017.375000", "115017.375000", "115017.375000", "115017.375000", "115017.390000", "115017.390000", "115017.390000", "115017.390000", "115017.390000", "115017.390000", "115017.390000", "115017.406000", "115017.406000", "115017.406000", "115037.343000", "115037.343000", "115037.359000", "115037.359000", "115037.359000", "115037.359000", "115037.359000", "115037.359000", "115037.359000", "115037.375000", "115037.375000", "115037.375000", "115037.375000", "115037.375000", "115037.375000", "115037.375000", "115037.390000", "115037.390000", "115037.390000", "115037.390000", "115037.390000", "115037.390000", "115037.406000", "115037.406000", "115037.406000", "115057.343000", "115057.343000", "115057.359000", "115057.359000", "115057.359000", "115057.359000", "115057.359000", "115057.359000", "115057.359000", "115057.375000", "115057.375000", "115057.375000", "115057.375000", "115057.375000", "115057.375000", "115057.375000", "115057.390000", "115057.390000", "115057.390000", "115057.390000", "115057.390000", "115057.390000", "115057.390000", "115057.406000", "115057.406000", "115117.343000", "115117.343000", "115117.359000", "115117.359000", "115117.359000", "115117.359000", "115117.359000", "115117.359000", "115117.359000", "115117.375000", "115117.375000", "115117.375000", "115117.375000", "115117.375000", "115117.375000", "115117.375000", "115117.390000", "115117.390000", "115117.390000", "115117.390000", "115117.390000", "115117.390000", "115117.406000", "115117.406000", "115117.406000", "115117.406000", "115137.343000", "115137.343000", "115137.359000", "115137.359000", "115137.359000", "115137.359000", "115137.359000", "115137.359000", "115137.375000", "115137.375000", "115137.375000", "115137.375000", "115137.375000", "115137.390000", "115137.390000", "115137.390000", "115137.390000", "115137.390000", "115137.390000", "115137.390000", "115137.406000", "115137.406000", "115137.406000", "115137.406000", "115137.406000", "115157.343000", "115157.343000", "115157.359000", "115157.359000", "115157.359000", "115157.359000", "115157.359000", "115157.359000", "115157.359000", "115157.375000", "115157.375000", "115157.375000", "115157.375000", "115157.375000", "115157.375000", "115157.375000", "115157.390000", "115157.390000", "115157.390000", "115157.390000", "115157.390000", "115157.390000", "115157.390000", "115157.406000", "115157.406000", "115157.406000", "115217.343000", "115217.343000", "115217.359000", "115217.359000", "115217.359000", "115217.359000", "115217.359000", "115217.359000", "115217.359000", "115217.375000", "115217.375000", "115217.375000", "115217.375000", "115217.375000", "115217.375000", "115217.390000", "115217.390000", "115217.390000", "115217.390000", "115217.390000", "115217.390000", "115217.390000", "115217.406000", "115217.406000", "115217.406000", "115237.343000", "115237.343000", "115237.359000", "115237.359000", "115237.359000", "115237.359000", "115237.359000", "115237.359000", "115237.359000", "115237.375000", "115237.375000", "115237.375000", "115237.375000", "115237.375000", "115237.375000", "115237.375000", "115237.390000", "115237.390000", "115237.390000", "115237.390000", "115237.390000", "115237.390000", "115237.390000", "115237.406000", "115237.406000", "115237.406000", "115257.343000", "115257.343000", "115257.359000", "115257.359000", "115257.359000", "115257.359000", "115257.359000", "115257.359000", "115257.359000", "115257.375000", "115257.375000", "115257.375000", "115257.375000", "115257.375000", "115257.375000", "115257.375000", "115257.390000", "115257.390000", "115257.390000", "115257.390000", "115257.390000", "115257.390000", "115257.390000", "115257.406000", "115257.406000", "115317.343000", "115317.343000", "115317.359000", "115317.359000", "115317.359000", "115317.359000", "115317.359000", "115317.359000", "115317.359000", "115317.375000", "115317.375000", "115317.375000", "115317.375000", "115317.375000", "115317.390000", "115317.390000", "115317.390000", "115317.390000", "115317.390000", "115317.390000", "115317.390000", "115317.406000", "115317.406000", "115317.406000", "115317.406000", "115317.406000", "115337.343000", "115337.343000", "115337.359000", "115337.359000", "115337.359000", "115337.359000", "115337.359000", "115337.359000", "115337.359000", "115337.375000", "115337.375000", "115337.375000", "115337.375000", "115337.375000", "115337.390000", "115337.390000", "115337.390000", "115337.390000", "115337.390000", "115337.390000", "115337.390000", "115337.406000", "115337.406000", "115337.406000", "115337.406000", "115346.203000", "115346.203000", "115346.203000", "115346.218000", "115346.218000", "115346.218000", "115346.218000", "115346.218000", "115346.234000", "115346.234000", "115346.234000", "115346.234000"],
      "DataSetTrailingPadding": [
        "\u0000\u0000\u0000\u0000\u0000\u0000\u0000\u0000\u0000\u0000\u0000\u0000\u0000\u0000\u0000\u0000\u0000\u0000\u0000\u0000\u0000\u0000\u0000\u0000\u0000\u0000\u0000\u0000\u0000\u0000\u0000\u0000\u0000\u0000\u0000\u0000\u0000\u0000\u0000\u0000\u0000\u0000\u0000\u0000\u0000\u0000\u0000\u0000\u0000\u0000\u0000\u0000\u0000\u0000\u0000\u0000\u0000\u0000\u0000\u0000\u0000\u0000\u0000\u0000\u0000\u0000\u0000\u0000\u0000\u0000\u0000\u0000",
        "\u0000\u0000\u0000\u0000\u0000\u0000\u0000\u0000\u0000\u0000\u0000\u0000\u0000\u0000\u0000\u0000\u0000\u0000\u0000\u0000\u0000\u0000\u0000\u0000\u0000\u0000\u0000\u0000\u0000\u0000\u0000\u0000\u0000\u0000\u0000\u0000\u0000\u0000\u0000\u0000\u0000\u0000\u0000\u0000\u0000\u0000\u0000\u0000\u0000\u0000\u0000\u0000\u0000\u0000\u0000\u0000\u0000\u0000\u0000\u0000\u0000\u0000\u0000\u0000\u0000\u0000\u0000\u0000\u0000\u0000\u0000\u0000",
        "\u0000\u0000\u0000\u0000\u0000\u0000\u0000\u0000\u0000\u0000\u0000\u0000\u0000\u0000\u0000\u0000\u0000\u0000\u0000\u0000\u0000\u0000\u0000\u0000\u0000\u0000\u0000\u0000\u0000\u0000\u0000\u0000\u0000\u0000\u0000\u0000\u0000\u0000\u0000\u0000\u0000\u0000\u0000\u0000\u0000\u0000\u0000\u0000\u0000\u0000\u0000\u0000\u0000\u0000\u0000\u0000\u0000\u0000\u0000\u0000\u0000\u0000\u0000\u0000\u0000\u0000\u0000\u0000\u0000\u0000\u0000\u0000",
        "\u0000\u0000\u0000\u0000\u0000\u0000\u0000\u0000\u0000\u0000\u0000\u0000\u0000\u0000\u0000\u0000\u0000\u0000\u0000\u0000\u0000\u0000\u0000\u0000\u0000\u0000\u0000\u0000\u0000\u0000\u0000\u0000\u0000\u0000\u0000\u0000\u0000\u0000\u0000\u0000\u0000\u0000\u0000\u0000\u0000\u0000\u0000\u0000\u0000\u0000\u0000\u0000\u0000\u0000\u0000\u0000\u0000\u0000\u0000\u0000\u0000\u0000\u0000\u0000\u0000\u0000\u0000\u0000\u0000\u0000",
