{
  "AcquisitionMatrixPE": 104,
  "AcquisitionNumber": 1,
  "AcquisitionTime": "10:57:36.752500",
  "BandwidthPerPixelPhaseEncode": 13.935,
  "BaseResolution": 104,
  "CoilString": "C:HEA;HEP",
  "ConversionSoftware": "dcm2niix",
  "ConversionSoftwareVersion": "v1.0.20210317",
  "DerivedVendorReportedEchoSpacing": 0.000690017,
  "DeviceSerialNumber": "35450",
  "DwellTime": 2.5e-06,
  "EchoTime": 0.0348,
  "EffectiveEchoSpacing": 0.000690017,
  "FlipAngle": 55,
  "ImageComments": "Unaliased MB8/PE3 (remote)",
  "ImageOrientationPatientDICOM": [0.999886, 0.00055304, 0.0150886, 1.32634e-08, 0.999329, -0.0366291],
  "ImageType": [
    "ORIGINAL",
    "PRIMARY",
    "M",
    "MB",
    "ND",
    "MOSAIC"
],
  "ImagingFrequency": 123.234,
  "InPlanePhaseEncodingDirectionDICOM": "COL",
  "InstitutionAddress": "Univeristy Ave. 197,Newark,North East,US,07102-1814",
  "InstitutionName": "RUBIC",
  "InstitutionalDepartmentName": "Department",
  "MRAcquisitionType": "2D",
  "MagneticFieldStrength": 3,
  "Manufacturer": "Siemens",
  "ManufacturersModelName": "TrioTim",
  "Modality": "MR",
  "MultibandAccelerationFactor": 8,
  "PartialFourier": 0.875,
  "PatientPosition": "HFS",
  "PercentPhaseFOV": 100,
  "PercentSampling": 100,
  "PhaseEncodingDirection": "j-",
  "PhaseEncodingSteps": 91,
  "PhaseResolution": 1,
  "PixelBandwidth": 1923,
  "ProcedureStepDescription": "Cole^Michael",
  "ProtocolName": "cmrr_mbep2d_bold_2mm_MB8_Task_8x",
  "PulseSequenceDetails": "%CustomerSeq%\\cmrr_mbep2d_bold",
  "ReceiveCoilName": "32Ch_Head",
  "ReconMatrixPE": 104,
  "RepetitionTime": 0.785,
  "SAR": 0.152422,
  "ScanOptions": "PFP\\FS",
  "ScanningSequence": "EP",
  "SequenceName": "epfid2d1_104",
  "SequenceVariant": "SK\\SS",
  "SeriesDescription": "cmrr_mbep2d_bold_2mm_MB8_Task_8x",
  "SeriesNumber": 13,
  "ShimSetting": [2118, -386, -7275, 438, -103, -139, 350, 56],
  "SliceThickness": 2,
  "SliceTiming": [0, 0.4375, 0.0875, 0.525, 0.175, 0.6125, 0.2625, 0.7, 0.35, 0, 0.4375, 0.0875, 0.525, 0.175, 0.6125, 0.2625, 0.7, 0.35, 0, 0.4375, 0.0875, 0.525, 0.175, 0.6125, 0.2625, 0.7, 0.35, 0, 0.4375, 0.0875, 0.525, 0.175, 0.6125, 0.2625, 0.7, 0.35, 0, 0.4375, 0.0875, 0.525, 0.175, 0.6125, 0.2625, 0.7, 0.35, 0, 0.4375, 0.0875, 0.525, 0.175, 0.6125, 0.2625, 0.7, 0.35, 0, 0.4375, 0.0875, 0.525, 0.175, 0.6125, 0.2625, 0.7, 0.35, 0, 0.4375, 0.0875, 0.525, 0.175, 0.6125, 0.2625, 0.7, 0.35],
  "SoftwareVersions": "syngo MR B19",
  "SpacingBetweenSlices": 2,
  "StationName": "MRC35450",
  "TaskName": "cpro",
  "TotalReadoutTime": 0.0710717,
  "TxRefAmp": 356.05,
  "dcmmeta_affine": [
    [-1.999772071838379, 2.6526775442903272e-08, 0.03019750863313675, 104.38231658935547],
    [-0.001106079900637269, 1.9986578226089478, -0.07324977219104767, -79.66737365722656],
    [0.030177244916558266, 0.07325812429189682, 1.9984300136566162, -84.29165649414062],
    [0.0, 0.0, 0.0, 1.0]
],
  "dcmmeta_reorient_transform": [
    [0.0, -1.0, 0.0, 103.0],
    [1.0, 0.0, 0.0, 0.0],
    [0.0, 0.0, 1.0, 0.0],
    [0.0, 0.0, 0.0, 1.0]
],
  "dcmmeta_shape": [104, 104, 72, 581],
  "dcmmeta_slice_dim": 2,
  "dcmmeta_version": 0.6,
  "global": {
    "const": {
      "AcquisitionMatrix": [104, 0, 0, 104],
      "AngioFlag": "N",
      "BitsAllocated": 16,
      "BitsStored": 12,
      "Columns": 936,
      "EchoNumbers": 1,
      "EchoTime": 34.8,
      "EchoTrainLength": 1,
      "FlipAngle": 55.0,
      "HighBit": 11,
      "ImageOrientationPatient": [0.99988600731811, 0.00055303994747, 0.01508862207974, 1.3263388e-08, 0.99932893072312, -0.0366290625021],
      "ImagePositionPatient": [-936.28748641282, -958.09618195734, -58.824422483867],
      "ImageType": [
        "ORIGINAL",
        "PRIMARY",
        "M",
        "MB",
        "ND",
        "MOSAIC"
],
      "ImagedNucleus": "1H",
      "ImagingFrequency": 123.234407,
      "InPlanePhaseEncodingDirection": "COL",
      "MRAcquisitionType": "2D",
      "MagneticFieldStrength": 3.0,
      "Manufacturer": "SIEMENS",
      "ManufacturerModelName": "TrioTim",
      "Modality": "MR",
      "NumberOfAverages": 1.0,
      "NumberOfPhaseEncodingSteps": 91,
      "PercentPhaseFieldOfView": 100.0,
      "PercentSampling": 100.0,
      "PerformedProcedureStepStartTime": "093541.859000",
      "PhotometricInterpretation": "MONOCHROME2",
      "PixelBandwidth": 1923.0,
      "PixelRepresentation": 0,
      "PixelSpacing": [2.0, 2.0],
      "ProtocolName": "cmrr_mbep2d_bold_2mm_MB8_Task_8x",
      "RepetitionTime": 785.0,
      "Rows": 936,
      "SAR": 0.15242152312012,
      "SamplesPerPixel": 1,
      "ScanOptions": [
        "PFP",
        "FS"
],
      "ScanningSequence": "EP",
      "SequenceName": "epfid2d1_104",
      "SequenceVariant": [
        "SK",
        "SS"
],
      "SeriesDescription": "cmrr_mbep2d_bold_2mm_MB8_Task_8x",
      "SeriesNumber": 13,
      "SeriesTime": "105757.359000",
      "SliceLocation": -79.731636472144,
      "SliceThickness": 2.0,
      "SmallestImagePixelValue": 0,
      "SoftwareVersions": "syngo MR B19",
      "SpacingBetweenSlices": 2.0000000355515,
      "SpecificCharacterSet": "ISO_IR 100",
      "StudyID": "1",
      "StudyTime": "093541.765000",
      "TransmitCoilName": "Body",
      "VariableFlipAngleFlag": "N",
      "WindowCenterWidthExplanation": "Algo1",
      "dBdt": 0.0},
    "slices": {}
  },
  "time": {
    "samples": {
      "AcquisitionNumber": [1, 2, 3, 4, 5, 6, 7, 8, 9, 10, 11, 12, 13, 14, 15, 16, 17, 18, 19, 20, 21, 22, 23, 24, 25, 26, 27, 28, 29, 30, 31, 32, 33, 34, 35, 36, 37, 38, 39, 40, 41, 42, 43, 44, 45, 46, 47, 48, 49, 50, 51, 52, 53, 54, 55, 56, 57, 58, 59, 60, 61, 62, 63, 64, 65, 66, 67, 68, 69, 70, 71, 72, 73, 74, 75, 76, 77, 78, 79, 80, 81, 82, 83, 84, 85, 86, 87, 88, 89, 90, 91, 92, 93, 94, 95, 96, 97, 98, 99, 100, 101, 102, 103, 104, 105, 106, 107, 108, 109, 110, 111, 112, 113, 114, 115, 116, 117, 118, 119, 120, 121, 122, 123, 124, 125, 126, 127, 128, 129, 130, 131, 132, 133, 134, 135, 136, 137, 138, 139, 140, 141, 142, 143, 144, 145, 146, 147, 148, 149, 150, 151, 152, 153, 154, 155, 156, 157, 158, 159, 160, 161, 162, 163, 164, 165, 166, 167, 168, 169, 170, 171, 172, 173, 174, 175, 176, 177, 178, 179, 180, 181, 182, 183, 184, 185, 186, 187, 188, 189, 190, 191, 192, 193, 194, 195, 196, 197, 198, 199, 200, 201, 202, 203, 204, 205, 206, 207, 208, 209, 210, 211, 212, 213, 214, 215, 216, 217, 218, 219, 220, 221, 222, 223, 224, 225, 226, 227, 228, 229, 230, 231, 232, 233, 234, 235, 236, 237, 238, 239, 240, 241, 242, 243, 244, 245, 246, 247, 248, 249, 250, 251, 252, 253, 254, 255, 256, 257, 258, 259, 260, 261, 262, 263, 264, 265, 266, 267, 268, 269, 270, 271, 272, 273, 274, 275, 276, 277, 278, 279, 280, 281, 282, 283, 284, 285, 286, 287, 288, 289, 290, 291, 292, 293, 294, 295, 296, 297, 298, 299, 300, 301, 302, 303, 304, 305, 306, 307, 308, 309, 310, 311, 312, 313, 314, 315, 316, 317, 318, 319, 320, 321, 322, 323, 324, 325, 326, 327, 328, 329, 330, 331, 332, 333, 334, 335, 336, 337, 338, 339, 340, 341, 342, 343, 344, 345, 346, 347, 348, 349, 350, 351, 352, 353, 354, 355, 356, 357, 358, 359, 360, 361, 362, 363, 364, 365, 366, 367, 368, 369, 370, 371, 372, 373, 374, 375, 376, 377, 378, 379, 380, 381, 382, 383, 384, 385, 386, 387, 388, 389, 390, 391, 392, 393, 394, 395, 396, 397, 398, 399, 400, 401, 402, 403, 404, 405, 406, 407, 408, 409, 410, 411, 412, 413, 414, 415, 416, 417, 418, 419, 420, 421, 422, 423, 424, 425, 426, 427, 428, 429, 430, 431, 432, 433, 434, 435, 436, 437, 438, 439, 440, 441, 442, 443, 444, 445, 446, 447, 448, 449, 450, 451, 452, 453, 454, 455, 456, 457, 458, 459, 460, 461, 462, 463, 464, 465, 466, 467, 468, 469, 470, 471, 472, 473, 474, 475, 476, 477, 478, 479, 480, 481, 482, 483, 484, 485, 486, 487, 488, 489, 490, 491, 492, 493, 494, 495, 496, 497, 498, 499, 500, 501, 502, 503, 504, 505, 506, 507, 508, 509, 510, 511, 512, 513, 514, 515, 516, 517, 518, 519, 520, 521, 522, 523, 524, 525, 526, 527, 528, 529, 530, 531, 532, 533, 534, 535, 536, 537, 538, 539, 540, 541, 542, 543, 544, 545, 546, 547, 548, 549, 550, 551, 552, 553, 554, 555, 556, 557, 558, 559, 560, 561, 562, 563, 564, 565, 566, 567, 568, 569, 570, 571, 572, 573, 574, 575, 576, 577, 578, 579, 580, 581],
      "AcquisitionTime": ["105736.752500", "105737.540000", "105738.327500", "105739.115000", "105739.905000", "105740.692500", "105741.480000", "105742.267500", "105743.057500", "105743.845000", "105744.632500", "105745.420000", "105746.210000", "105746.997500", "105747.785000", "105748.572500", "105749.362500", "105750.150000", "105750.937500", "105751.725000", "105752.515000", "105753.302500", "105754.090000", "105754.880000", "105755.667500", "105756.455000", "105757.242500", "105758.032500", "105758.820000", "105759.607500", "105800.395000", "105801.185000", "105801.972500", "105802.760000", "105803.547500", "105804.337500", "105805.125000", "105805.912500", "105806.700000", "105807.490000", "105808.277500", "105809.065000", "105809.852500", "105810.642500", "105811.430000", "105812.217500", "105813.007500", "105813.795000", "105814.582500", "105815.370000", "105816.160000", "105816.947500", "105817.735000", "105818.522500", "105819.312500", "105820.100000", "105820.887500", "105821.675000", "105822.465000", "105823.252500", "105824.040000", "105824.827500", "105825.617500", "105826.405000", "105827.192500", "105827.980000", "105828.770000", "105829.557500", "105830.345000", "105831.135000", "105831.922500", "105832.710000", "105833.497500", "105834.287500", "105835.075000", "105835.862500", "105836.650000", "105837.440000", "105838.227500", "105839.015000", "105839.802500", "105840.592500", "105841.380000", "105842.167500", "105842.955000", "105843.745000", "105844.532500", "105845.320000", "105846.107500", "105846.897500", "105847.685000", "105848.472500", "105849.262500", "105850.050000", "105850.837500", "105851.625000", "105852.415000", "105853.202500", "105853.990000", "105854.777500", "105855.567500", "105856.355000", "105857.142500", "105857.930000", "105858.720000", "105859.507500", "105900.295000", "105901.082500", "105901.872500", "105902.660000", "105903.447500", "105904.235000", "105905.025000", "105905.812500", "105906.600000", "105907.390000", "105908.177500", "105908.965000", "105909.752500", "105910.542500", "105911.330000", "105912.117500", "105912.905000", "105913.695000", "105914.482500", "105915.270000", "105916.057500", "105916.847500", "105917.635000", "105918.422500", "105919.210000", "105920.000000", "105920.787500", "105921.575000", "105922.362500", "105923.152500", "105923.940000", "105924.727500", "105925.517500", "105926.305000", "105927.092500", "105927.880000", "105928.670000", "105929.457500", "105930.245000", "105931.032500", "105931.822500", "105932.610000", "105933.397500", "105934.185000", "105934.975000", "105935.762500", "105936.550000", "105937.337500", "105938.127500", "105938.915000", "105939.702500", "105940.490000", "105941.280000", "105942.067500", "105942.855000", "105943.645000", "105944.432500", "105945.220000", "105946.007500", "105946.797500", "105947.585000", "105948.372500", "105949.160000", "105949.950000", "105950.737500", "105951.525000", "105952.312500", "105953.102500", "105953.890000", "105954.677500", "105955.465000", "105956.255000", "105957.042500", "105957.830000", "105958.617500", "105959.407500", "110000.195000", "110000.982500", "110001.772500", "110002.560000", "110003.347500", "110004.135000", "110004.925000", "110005.712500", "110006.500000", "110007.287500", "110008.077500", "110008.865000", "110009.652500", "110010.440000", "110011.230000", "110012.017500", "110012.805000", "110013.592500", "110014.382500", "110015.170000", "110015.957500", "110016.745000", "110017.535000", "110018.322500", "110019.110000", "110019.900000", "110020.687500", "110021.475000", "110022.262500", "110023.052500", "110023.840000", "110024.627500", "110025.415000", "110026.205000", "110026.992500", "110027.780000", "110028.567500", "110029.357500", "110030.145000", "110030.932500", "110031.720000", "110032.510000", "110033.297500", "110034.085000", "110034.872500", "110035.662500", "110036.450000", "110037.237500", "110038.027500", "110038.815000", "110039.602500", "110040.390000", "110041.180000", "110041.967500", "110042.755000", "110043.542500", "110044.332500", "110045.120000", "110045.907500", "110046.695000", "110047.485000", "110048.272500", "110049.060000", "110049.847500", "110050.637500", "110051.425000", "110052.212500", "110053.002500", "110053.790000", "110054.577500", "110055.365000", "110056.155000", "110056.942500", "110057.730000", "110058.517500", "110059.307500", "110100.095000", "110100.882500", "110101.670000", "110102.460000", "110103.247500", "110104.035000", "110104.822500", "110105.612500", "110106.400000", "110107.187500", "110107.975000", "110108.765000", "110109.552500", "110110.340000", "110111.130000", "110111.917500", "110112.705000", "110113.492500", "110114.282500", "110115.070000", "110115.857500", "110116.645000", "110117.435000", "110118.222500", "110119.010000", "110119.797500", "110120.587500", "110121.375000", "110122.162500", "110122.950000", "110123.740000", "110124.527500", "110125.315000", "110126.102500", "110126.892500", "110127.680000", "110128.467500", "110129.257500", "110130.045000", "110130.832500", "110131.620000", "110132.410000", "110133.197500", "110133.985000", "110134.772500", "110135.562500", "110136.350000", "110137.137500", "110137.925000", "110138.715000", "110139.502500", "110140.290000", "110141.077500", "110141.867500", "110142.655000", "110143.442500", "110144.230000", "110145.020000", "110145.807500", "110146.595000", "110147.385000", "110148.172500", "110148.960000", "110149.747500", "110150.537500", "110151.325000", "110152.112500", "110152.900000", "110153.690000", "110154.477500", "110155.265000", "110156.052500", "110156.842500", "110157.630000", "110158.417500", "110159.205000", "110159.995000", "110200.782500", "110201.570000", "110202.357500", "110203.147500", "110203.935000", "110204.722500", "110205.512500", "110206.300000", "110207.087500", "110207.875000", "110208.665000", "110209.452500", "110210.240000", "110211.027500", "110211.817500", "110212.605000", "110213.392500", "110214.180000", "110214.970000", "110215.757500", "110216.545000", "110217.332500", "110218.122500", "110218.910000", "110219.697500", "110220.485000", "110221.275000", "110222.062500", "110222.850000", "110223.640000", "110224.427500", "110225.215000", "110226.002500", "110226.792500", "110227.580000", "110228.367500", "110229.155000", "110229.945000", "110230.732500", "110231.520000", "110232.307500", "110233.097500", "110233.885000", "110234.672500", "110235.460000", "110236.250000", "110237.037500", "110237.825000", "110238.612500", "110239.402500", "110240.190000", "110240.977500", "110241.767500", "110242.555000", "110243.342500", "110244.130000", "110244.920000", "110245.707500", "110246.495000", "110247.282500", "110248.072500", "110248.860000", "110249.647500", "110250.435000", "110251.225000", "110252.012500", "110252.800000", "110253.587500", "110254.377500", "110255.165000", "110255.952500", "110256.740000", "110257.530000", "110258.317500", "110259.105000", "110259.895000", "110300.682500", "110301.470000", "110302.257500", "110303.047500", "110303.835000", "110304.622500", "110305.410000", "110306.200000", "110306.987500", "110307.775000", "110308.562500", "110309.352500", "110310.140000", "110310.927500", "110311.715000", "110312.505000", "110313.292500", "110314.080000", "110314.867500", "110315.657500", "110316.445000", "110317.232500", "110318.022500", "110318.810000", "110319.597500", "110320.385000", "110321.175000", "110321.962500", "110322.750000", "110323.537500", "110324.327500", "110325.115000", "110325.902500", "110326.690000", "110327.480000", "110328.267500", "110329.055000", "110329.842500", "110330.632500", "110331.420000", "110332.207500", "110332.995000", "110333.785000", "110334.572500", "110335.360000", "110336.150000", "110336.937500", "110337.725000", "110338.512500", "110339.302500", "110340.090000", "110340.877500", "110341.665000", "110342.455000", "110343.242500", "110344.030000", "110344.817500", "110345.607500", "110346.395000", "110347.182500", "110347.970000", "110348.760000", "110349.547500", "110350.335000", "110351.122500", "110351.912500", "110352.700000", "110353.487500", "110354.277500", "110355.065000", "110355.852500", "110356.640000", "110357.430000", "110358.217500", "110359.005000", "110359.792500", "110400.582500", "110401.370000", "110402.157500", "110402.945000", "110403.735000", "110404.522500", "110405.310000", "110406.097500", "110406.887500", "110407.675000", "110408.462500", "110409.252500", "110410.040000", "110410.827500", "110411.615000", "110412.405000", "110413.192500", "110413.980000", "110414.767500", "110415.557500", "110416.345000", "110417.132500", "110417.920000", "110418.710000", "110419.497500", "110420.285000", "110421.072500", "110421.862500", "110422.650000", "110423.437500", "110424.225000", "110425.015000", "110425.802500", "110426.590000", "110427.380000", "110428.167500", "110428.955000", "110429.742500", "110430.532500", "110431.320000", "110432.107500", "110432.895000", "110433.685000", "110434.472500", "110435.260000", "110436.047500", "110436.837500", "110437.625000", "110438.412500", "110439.200000", "110439.990000", "110440.777500", "110441.565000", "110442.352500", "110443.142500", "110443.930000", "110444.717500", "110445.507500", "110446.295000", "110447.082500", "110447.870000", "110448.660000", "110449.447500", "110450.235000", "110451.022500", "110451.812500", "110452.600000", "110453.387500", "110454.175000", "110454.965000", "110455.752500", "110456.540000", "110457.327500", "110458.117500", "110458.905000", "110459.692500", "110500.480000", "110501.270000", "110502.057500", "110502.845000", "110503.635000", "110504.422500", "110505.210000", "110505.997500", "110506.787500", "110507.575000", "110508.362500", "110509.150000", "110509.940000", "110510.727500", "110511.515000", "110512.302500", "110513.092500", "110513.880000"],
      "ContentTime": ["105757.375000", "105757.375000", "105757.375000", "105757.375000", "105757.375000", "105757.375000", "105757.375000", "105757.390000", "105757.390000", "105757.390000", "105757.390000", "105757.390000", "105757.390000", "105757.390000", "105757.406000", "105757.406000", "105757.406000", "105757.406000", "105757.406000", "105757.406000", "105757.421000", "105757.421000", "105757.421000", "105757.421000", "105757.421000", "105817.343000", "105817.343000", "105817.359000", "105817.359000", "105817.359000", "105817.359000", "105817.359000", "105817.359000", "105817.359000", "105817.375000", "105817.375000", "105817.375000", "105817.375000", "105817.375000", "105817.375000", "105817.375000", "105817.390000", "105817.390000", "105817.390000", "105817.390000", "105817.390000", "105817.390000", "105817.390000", "105817.406000", "105817.406000", "105817.406000", "105837.343000", "105837.343000", "105837.359000", "105837.359000", "105837.359000", "105837.359000", "105837.359000", "105837.359000", "105837.359000", "105837.375000", "105837.375000", "105837.375000", "105837.375000", "105837.375000", "105837.375000", "105837.390000", "105837.390000", "105837.390000", "105837.390000", "105837.390000", "105837.390000", "105837.406000", "105837.406000", "105837.406000", "105837.406000", "105857.343000", "105857.343000", "105857.359000", "105857.359000", "105857.359000", "105857.359000", "105857.359000", "105857.359000", "105857.359000", "105857.375000", "105857.375000", "105857.375000", "105857.375000", "105857.375000", "105857.375000", "105857.375000", "105857.390000", "105857.390000", "105857.390000", "105857.390000", "105857.390000", "105857.390000", "105857.390000", "105857.406000", "105857.406000", "105857.406000", "105917.343000", "105917.343000", "105917.359000", "105917.359000", "105917.359000", "105917.359000", "105917.359000", "105917.359000", "105917.359000", "105917.375000", "105917.375000", "105917.375000", "105917.375000", "105917.375000", "105917.375000", "105917.375000", "105917.390000", "105917.390000", "105917.390000", "105917.390000", "105917.390000", "105917.390000", "105917.390000", "105917.406000", "105917.406000", "105937.343000", "105937.343000", "105937.359000", "105937.359000", "105937.359000", "105937.359000", "105937.359000", "105937.359000", "105937.359000", "105937.375000", "105937.375000", "105937.375000", "105937.375000", "105937.375000", "105937.375000", "105937.375000", "105937.390000", "105937.390000", "105937.390000", "105937.390000", "105937.390000", "105937.390000", "105937.390000", "105937.406000", "105937.406000", "105937.406000", "105957.343000", "105957.343000", "105957.359000", "105957.359000", "105957.359000", "105957.359000", "105957.359000", "105957.359000", "105957.359000", "105957.375000", "105957.375000", "105957.375000", "105957.375000", "105957.375000", "105957.375000", "105957.390000", "105957.390000", "105957.390000", "105957.390000", "105957.390000", "105957.390000", "105957.390000", "105957.406000", "105957.406000", "105957.406000", "110017.343000", "110017.343000", "110017.359000", "110017.359000", "110017.359000", "110017.359000", "110017.359000", "110017.359000", "110017.359000", "110017.375000", "110017.375000", "110017.375000", "110017.375000", "110017.375000", "110017.375000", "110017.375000", "110017.390000", "110017.390000", "110017.390000", "110017.390000", "110017.390000", "110017.390000", "110017.390000", "110017.406000", "110017.406000", "110017.406000", "110037.343000", "110037.343000", "110037.359000", "110037.359000", "110037.359000", "110037.359000", "110037.359000", "110037.359000", "110037.359000", "110037.375000", "110037.375000", "110037.375000", "110037.375000", "110037.375000", "110037.375000", "110037.375000", "110037.390000", "110037.390000", "110037.390000", "110037.390000", "110037.390000", "110037.390000", "110037.390000", "110037.406000", "110037.406000", "110057.343000", "110057.343000", "110057.359000", "110057.359000", "110057.359000", "110057.359000", "110057.359000", "110057.359000", "110057.375000", "110057.375000", "110057.375000", "110057.375000", "110057.375000", "110057.375000", "110057.375000", "110057.390000", "110057.390000", "110057.390000", "110057.390000", "110057.390000", "110057.406000", "110057.406000", "110057.406000", "110057.406000", "110057.406000", "110057.406000", "110117.343000", "110117.343000", "110117.359000", "110117.359000", "110117.359000", "110117.359000", "110117.359000", "110117.359000", "110117.359000", "110117.375000", "110117.375000", "110117.375000", "110117.375000", "110117.375000", "110117.390000", "110117.390000", "110117.390000", "110117.390000", "110117.390000", "110117.390000", "110117.390000", "110117.406000", "110117.406000", "110117.406000", "110117.406000", "110137.343000", "110137.343000", "110137.359000", "110137.359000", "110137.359000", "110137.359000", "110137.359000", "110137.359000", "110137.359000", "110137.375000", "110137.375000", "110137.375000", "110137.375000", "110137.375000", "110137.375000", "110137.375000", "110137.390000", "110137.390000", "110137.390000", "110137.390000", "110137.390000", "110137.390000", "110137.390000", "110137.406000", "110137.406000", "110137.406000", "110157.343000", "110157.343000", "110157.359000", "110157.359000", "110157.359000", "110157.359000", "110157.359000", "110157.359000", "110157.359000", "110157.375000", "110157.375000", "110157.375000", "110157.375000", "110157.375000", "110157.375000", "110157.375000", "110157.390000", "110157.390000", "110157.390000", "110157.390000", "110157.390000", "110157.406000", "110157.406000", "110157.406000", "110157.406000", "110217.343000", "110217.343000", "110217.359000", "110217.359000", "110217.359000", "110217.359000", "110217.359000", "110217.359000", "110217.359000", "110217.375000", "110217.375000", "110217.375000", "110217.375000", "110217.375000", "110217.375000", "110217.375000", "110217.390000", "110217.390000", "110217.390000", "110217.390000", "110217.390000", "110217.390000", "110217.390000", "110217.406000", "110217.406000", "110237.343000", "110237.343000", "110237.359000", "110237.359000", "110237.359000", "110237.359000", "110237.359000", "110237.375000", "110237.375000", "110237.375000", "110237.375000", "110237.375000", "110237.390000", "110237.390000", "110237.390000", "110237.390000", "110237.390000", "110237.406000", "110237.406000", "110237.406000", "110237.406000", "110237.406000", "110237.406000", "110237.406000", "110237.421000", "110237.421000", "110257.343000", "110257.343000", "110257.359000", "110257.359000", "110257.359000", "110257.359000", "110257.359000", "110257.359000", "110257.375000", "110257.375000", "110257.375000", "110257.375000", "110257.375000", "110257.390000", "110257.390000", "110257.390000", "110257.390000", "110257.390000", "110257.390000", "110257.406000", "110257.406000", "110257.406000", "110257.406000", "110257.406000", "110257.406000", "110317.343000", "110317.343000", "110317.359000", "110317.359000", "110317.359000", "110317.359000", "110317.359000", "110317.359000", "110317.375000", "110317.375000", "110317.375000", "110317.375000", "110317.375000", "110317.375000", "110317.390000", "110317.390000", "110317.390000", "110317.390000", "110317.390000", "110317.390000", "110317.390000", "110317.406000", "110317.406000", "110317.406000", "110317.406000", "110317.406000", "110337.343000", "110337.343000", "110337.359000", "110337.359000", "110337.359000", "110337.359000", "110337.359000", "110337.359000", "110337.375000", "110337.375000", "110337.375000", "110337.375000", "110337.375000", "110337.375000", "110337.390000", "110337.390000", "110337.390000", "110337.406000", "110337.406000", "110337.406000", "110337.406000", "110337.406000", "110337.406000", "110337.406000", "110337.421000", "110357.343000", "110357.343000", "110357.359000", "110357.359000", "110357.359000", "110357.359000", "110357.359000", "110357.375000", "110357.375000", "110357.375000", "110357.375000", "110357.375000", "110357.375000", "110357.390000", "110357.390000", "110357.390000", "110357.390000", "110357.390000", "110357.390000", "110357.406000", "110357.406000", "110357.406000", "110357.406000", "110357.406000", "110357.406000", "110357.406000", "110417.343000", "110417.343000", "110417.359000", "110417.359000", "110417.359000", "110417.359000", "110417.359000", "110417.375000", "110417.375000", "110417.375000", "110417.375000", "110417.375000", "110417.375000", "110417.390000", "110417.390000", "110417.390000", "110417.390000", "110417.390000", "110417.390000", "110417.390000", "110417.406000", "110417.406000", "110417.406000", "110417.406000", "110417.406000", "110437.343000", "110437.343000", "110437.359000", "110437.359000", "110437.359000", "110437.359000", "110437.359000", "110437.359000", "110437.359000", "110437.375000", "110437.375000", "110437.375000", "110437.375000", "110437.375000", "110437.375000", "110437.375000", "110437.390000", "110437.390000", "110437.390000", "110437.390000", "110437.390000", "110437.390000", "110437.406000", "110437.406000", "110437.406000", "110437.406000", "110457.343000", "110457.343000", "110457.359000", "110457.359000", "110457.359000", "110457.359000", "110457.359000", "110457.359000", "110457.359000", "110457.375000", "110457.375000", "110457.375000", "110457.375000", "110457.375000", "110457.375000", "110457.375000", "110457.390000", "110457.390000", "110457.390000", "110457.390000", "110457.390000", "110457.390000", "110457.406000", "110457.406000", "110457.406000", "110513.218000", "110513.218000", "110513.218000", "110513.218000", "110513.218000", "110513.234000", "110513.234000", "110513.234000", "110513.234000", "110513.234000", "110513.234000", "110513.234000", "110513.250000", "110513.250000", "110513.250000", "110513.250000", "110513.250000", "110513.265000", "110513.265000", "110513.265000", "110513.265000"],
      "DataSetTrailingPadding": [
        "\u0000\u0000\u0000\u0000\u0000\u0000\u0000\u0000\u0000\u0000\u0000\u0000\u0000\u0000\u0000\u0000\u0000\u0000\u0000\u0000\u0000\u0000\u0000\u0000\u0000\u0000\u0000\u0000\u0000\u0000\u0000\u0000\u0000\u0000\u0000\u0000\u0000\u0000\u0000\u0000\u0000\u0000\u0000\u0000\u0000\u0000\u0000\u0000\u0000\u0000\u0000\u0000\u0000\u0000\u0000\u0000\u0000\u0000\u0000\u0000\u0000\u0000\u0000\u0000\u0000\u0000\u0000\u0000\u0000\u0000\u0000\u0000\u0000\u0000",
        "\u0000\u0000\u0000\u0000\u0000\u0000\u0000\u0000\u0000\u0000\u0000\u0000\u0000\u0000\u0000\u0000\u0000\u0000\u0000\u0000\u0000\u0000\u0000\u0000\u0000\u0000\u0000\u0000\u0000\u0000\u0000\u0000\u0000\u0000\u0000\u0000\u0000\u0000\u0000\u0000\u0000\u0000\u0000\u0000\u0000\u0000\u0000\u0000\u0000\u0000\u0000\u0000\u0000\u0000\u0000\u0000\u0000\u0000\u0000\u0000\u0000\u0000\u0000\u0000\u0000\u0000\u0000\u0000\u0000\u0000",
        "\u0000\u0000\u0000\u0000\u0000\u0000\u0000\u0000\u0000\u0000\u0000\u0000\u0000\u0000\u0000\u0000\u0000\u0000\u0000\u0000\u0000\u0000\u0000\u0000\u0000\u0000\u0000\u0000\u0000\u0000\u0000\u0000\u0000\u0000\u0000\u0000\u0000\u0000\u0000\u0000\u0000\u0000\u0000\u0000\u0000\u0000\u0000\u0000\u0000\u0000\u0000\u0000\u0000\u0000\u0000\u0000\u0000\u0000\u0000\u0000\u0000\u0000\u0000\u0000\u0000\u0000\u0000\u0000\u0000\u0000\u0000\u0000",
        "\u0000\u0000\u0000\u0000\u0000\u0000\u0000\u0000\u0000\u0000\u0000\u0000\u0000\u0000\u0000\u0000\u0000\u0000\u0000\u0000\u0000\u0000\u0000\u0000\u0000\u0000\u0000\u0000\u0000\u0000\u0000\u0000\u0000\u0000\u0000\u0000\u0000\u0000\u0000\u0000\u0000\u0000\u0000\u0000\u0000\u0000\u0000\u0000\u0000\u0000\u0000\u0000\u0000\u0000\u0000\u0000\u0000\u0000\u0000\u0000\u0000\u0000\u0000\u0000\u0000\u0000\u0000\u0000\u0000\u0000",
