{
  "AcquisitionMatrixPE": 104,
  "AcquisitionNumber": 1,
  "AcquisitionTime": "11:14:6.757500",
  "BandwidthPerPixelPhaseEncode": 13.935,
  "BaseResolution": 104,
  "CoilString": "C:HEA;HEP",
  "ConversionSoftware": "dcm2niix",
  "ConversionSoftwareVersion": "v1.0.20210317",
  "DerivedVendorReportedEchoSpacing": 0.000690017,
  "DeviceSerialNumber": "35450",
  "DwellTime": 2.5e-06,
  "EchoTime": 0.0348,
  "EffectiveEchoSpacing": 0.000690017,
  "FlipAngle": 55,
  "ImageComments": "Unaliased MB8/PE3 (remote)",
  "ImageOrientationPatientDICOM": [0.999886, 0.00055304, 0.0150886, 1.32634e-08, 0.999329, -0.0366291],
  "ImageType": [
    "ORIGINAL",
    "PRIMARY",
    "M",
    "MB",
    "ND",
    "MOSAIC"
],
  "ImagingFrequency": 123.234,
  "InPlanePhaseEncodingDirectionDICOM": "COL",
  "InstitutionAddress": "Univeristy Ave. 197,Newark,North East,US,07102-1814",
  "InstitutionName": "RUBIC",
  "InstitutionalDepartmentName": "Department",
  "MRAcquisitionType": "2D",
  "MagneticFieldStrength": 3,
  "Manufacturer": "Siemens",
  "ManufacturersModelName": "TrioTim",
  "Modality": "MR",
  "MultibandAccelerationFactor": 8,
  "PartialFourier": 0.875,
  "PatientPosition": "HFS",
  "PercentPhaseFOV": 100,
  "PercentSampling": 100,
  "PhaseEncodingDirection": "j-",
  "PhaseEncodingSteps": 91,
  "PhaseResolution": 1,
  "PixelBandwidth": 1923,
  "ProcedureStepDescription": "Cole^Michael",
  "ProtocolName": "cmrr_mbep2d_bold_2mm_MB8_Task_8x",
  "PulseSequenceDetails": "%CustomerSeq%\\cmrr_mbep2d_bold",
  "ReceiveCoilName": "32Ch_Head",
  "ReconMatrixPE": 104,
  "RepetitionTime": 0.785,
  "SAR": 0.139344,
  "ScanOptions": "PFP\\FS",
  "ScanningSequence": "EP",
  "SequenceName": "epfid2d1_104",
  "SequenceVariant": "SK\\SS",
  "SeriesDescription": "cmrr_mbep2d_bold_2mm_MB8_Task_8x",
  "SeriesNumber": 17,
  "ShimSetting": [2118, -386, -7275, 438, -103, -139, 350, 56],
  "SliceThickness": 2,
  "SliceTiming": [0, 0.4375, 0.0875, 0.525, 0.175, 0.6125, 0.2625, 0.7, 0.35, 0, 0.4375, 0.0875, 0.525, 0.175, 0.6125, 0.2625, 0.7, 0.35, 0, 0.4375, 0.0875, 0.525, 0.175, 0.6125, 0.2625, 0.7, 0.35, 0, 0.4375, 0.0875, 0.525, 0.175, 0.6125, 0.2625, 0.7, 0.35, 0, 0.4375, 0.0875, 0.525, 0.175, 0.6125, 0.2625, 0.7, 0.35, 0, 0.4375, 0.0875, 0.525, 0.175, 0.6125, 0.2625, 0.7, 0.35, 0, 0.4375, 0.0875, 0.525, 0.175, 0.6125, 0.2625, 0.7, 0.35, 0, 0.4375, 0.0875, 0.525, 0.175, 0.6125, 0.2625, 0.7, 0.35],
  "SoftwareVersions": "syngo MR B19",
  "SpacingBetweenSlices": 2,
  "StationName": "MRC35450",
  "TaskName": "cpro",
  "TotalReadoutTime": 0.0710717,
  "TxRefAmp": 356.05,
  "dcmmeta_affine": [
    [-1.999772071838379, 2.6526775442903272e-08, 0.03019750863313675, 104.38231658935547],
    [-0.001106079900637269, 1.9986578226089478, -0.07324977219104767, -79.66737365722656],
    [0.030177244916558266, 0.07325812429189682, 1.9984300136566162, -84.29165649414062],
    [0.0, 0.0, 0.0, 1.0]
],
  "dcmmeta_reorient_transform": [
    [0.0, -1.0, 0.0, 103.0],
    [1.0, 0.0, 0.0, 0.0],
    [0.0, 0.0, 1.0, 0.0],
    [0.0, 0.0, 0.0, 1.0]
],
  "dcmmeta_shape": [104, 104, 72, 581],
  "dcmmeta_slice_dim": 2,
  "dcmmeta_version": 0.6,
  "global": {
    "const": {
      "AcquisitionMatrix": [104, 0, 0, 104],
      "AngioFlag": "N",
      "BitsAllocated": 16,
      "BitsStored": 12,
      "Columns": 936,
      "EchoNumbers": 1,
      "EchoTime": 34.8,
      "EchoTrainLength": 1,
      "FlipAngle": 55.0,
      "HighBit": 11,
      "ImageOrientationPatient": [0.99988600731811, 0.00055303994747, 0.01508862207974, 1.3263388e-08, 0.99932893072312, -0.0366290625021],
      "ImagePositionPatient": [-936.28748641282, -958.09618195734, -58.824422483867],
      "ImageType": [
        "ORIGINAL",
        "PRIMARY",
        "M",
        "MB",
        "ND",
        "MOSAIC"
],
      "ImagedNucleus": "1H",
      "ImagingFrequency": 123.234407,
      "InPlanePhaseEncodingDirection": "COL",
      "MRAcquisitionType": "2D",
      "MagneticFieldStrength": 3.0,
      "Manufacturer": "SIEMENS",
      "ManufacturerModelName": "TrioTim",
      "Modality": "MR",
      "NumberOfAverages": 1.0,
      "NumberOfPhaseEncodingSteps": 91,
      "PercentPhaseFieldOfView": 100.0,
      "PercentSampling": 100.0,
      "PerformedProcedureStepStartTime": "093541.859000",
      "PhotometricInterpretation": "MONOCHROME2",
      "PixelBandwidth": 1923.0,
      "PixelRepresentation": 0,
      "PixelSpacing": [2.0, 2.0],
      "ProtocolName": "cmrr_mbep2d_bold_2mm_MB8_Task_8x",
      "RepetitionTime": 785.0,
      "Rows": 936,
      "SAR": 0.13934430259307,
      "SamplesPerPixel": 1,
      "ScanOptions": [
        "PFP",
        "FS"
],
      "ScanningSequence": "EP",
      "SequenceName": "epfid2d1_104",
      "SequenceVariant": [
        "SK",
        "SS"
],
      "SeriesDescription": "cmrr_mbep2d_bold_2mm_MB8_Task_8x",
      "SeriesNumber": 17,
      "SeriesTime": "111437.390000",
      "SliceLocation": -79.731636472144,
      "SliceThickness": 2.0,
      "SmallestImagePixelValue": 0,
      "SoftwareVersions": "syngo MR B19",
      "SpacingBetweenSlices": 2.0000000355515,
      "SpecificCharacterSet": "ISO_IR 100",
      "StudyID": "1",
      "StudyTime": "093541.765000",
      "TransmitCoilName": "Body",
      "VariableFlipAngleFlag": "N",
      "WindowCenterWidthExplanation": "Algo1",
      "dBdt": 0.0},
    "slices": {}
  },
  "time": {
    "samples": {
      "AcquisitionNumber": [1, 2, 3, 4, 5, 6, 7, 8, 9, 10, 11, 12, 13, 14, 15, 16, 17, 18, 19, 20, 21, 22, 23, 24, 25, 26, 27, 28, 29, 30, 31, 32, 33, 34, 35, 36, 37, 38, 39, 40, 41, 42, 43, 44, 45, 46, 47, 48, 49, 50, 51, 52, 53, 54, 55, 56, 57, 58, 59, 60, 61, 62, 63, 64, 65, 66, 67, 68, 69, 70, 71, 72, 73, 74, 75, 76, 77, 78, 79, 80, 81, 82, 83, 84, 85, 86, 87, 88, 89, 90, 91, 92, 93, 94, 95, 96, 97, 98, 99, 100, 101, 102, 103, 104, 105, 106, 107, 108, 109, 110, 111, 112, 113, 114, 115, 116, 117, 118, 119, 120, 121, 122, 123, 124, 125, 126, 127, 128, 129, 130, 131, 132, 133, 134, 135, 136, 137, 138, 139, 140, 141, 142, 143, 144, 145, 146, 147, 148, 149, 150, 151, 152, 153, 154, 155, 156, 157, 158, 159, 160, 161, 162, 163, 164, 165, 166, 167, 168, 169, 170, 171, 172, 173, 174, 175, 176, 177, 178, 179, 180, 181, 182, 183, 184, 185, 186, 187, 188, 189, 190, 191, 192, 193, 194, 195, 196, 197, 198, 199, 200, 201, 202, 203, 204, 205, 206, 207, 208, 209, 210, 211, 212, 213, 214, 215, 216, 217, 218, 219, 220, 221, 222, 223, 224, 225, 226, 227, 228, 229, 230, 231, 232, 233, 234, 235, 236, 237, 238, 239, 240, 241, 242, 243, 244, 245, 246, 247, 248, 249, 250, 251, 252, 253, 254, 255, 256, 257, 258, 259, 260, 261, 262, 263, 264, 265, 266, 267, 268, 269, 270, 271, 272, 273, 274, 275, 276, 277, 278, 279, 280, 281, 282, 283, 284, 285, 286, 287, 288, 289, 290, 291, 292, 293, 294, 295, 296, 297, 298, 299, 300, 301, 302, 303, 304, 305, 306, 307, 308, 309, 310, 311, 312, 313, 314, 315, 316, 317, 318, 319, 320, 321, 322, 323, 324, 325, 326, 327, 328, 329, 330, 331, 332, 333, 334, 335, 336, 337, 338, 339, 340, 341, 342, 343, 344, 345, 346, 347, 348, 349, 350, 351, 352, 353, 354, 355, 356, 357, 358, 359, 360, 361, 362, 363, 364, 365, 366, 367, 368, 369, 370, 371, 372, 373, 374, 375, 376, 377, 378, 379, 380, 381, 382, 383, 384, 385, 386, 387, 388, 389, 390, 391, 392, 393, 394, 395, 396, 397, 398, 399, 400, 401, 402, 403, 404, 405, 406, 407, 408, 409, 410, 411, 412, 413, 414, 415, 416, 417, 418, 419, 420, 421, 422, 423, 424, 425, 426, 427, 428, 429, 430, 431, 432, 433, 434, 435, 436, 437, 438, 439, 440, 441, 442, 443, 444, 445, 446, 447, 448, 449, 450, 451, 452, 453, 454, 455, 456, 457, 458, 459, 460, 461, 462, 463, 464, 465, 466, 467, 468, 469, 470, 471, 472, 473, 474, 475, 476, 477, 478, 479, 480, 481, 482, 483, 484, 485, 486, 487, 488, 489, 490, 491, 492, 493, 494, 495, 496, 497, 498, 499, 500, 501, 502, 503, 504, 505, 506, 507, 508, 509, 510, 511, 512, 513, 514, 515, 516, 517, 518, 519, 520, 521, 522, 523, 524, 525, 526, 527, 528, 529, 530, 531, 532, 533, 534, 535, 536, 537, 538, 539, 540, 541, 542, 543, 544, 545, 546, 547, 548, 549, 550, 551, 552, 553, 554, 555, 556, 557, 558, 559, 560, 561, 562, 563, 564, 565, 566, 567, 568, 569, 570, 571, 572, 573, 574, 575, 576, 577, 578, 579, 580, 581],
      "AcquisitionTime": ["111406.757500", "111407.545000", "111408.332500", "111409.122500", "111409.910000", "111410.697500", "111411.487500", "111412.275000", "111413.062500", "111413.850000", "111414.640000", "111415.427500", "111416.215000", "111417.002500", "111417.792500", "111418.580000", "111419.367500", "111420.155000", "111420.945000", "111421.732500", "111422.520000", "111423.307500", "111424.097500", "111424.885000", "111425.672500", "111426.460000", "111427.250000", "111428.037500", "111428.825000", "111429.615000", "111430.402500", "111431.190000", "111431.977500", "111432.767500", "111433.555000", "111434.342500", "111435.130000", "111435.920000", "111436.707500", "111437.495000", "111438.282500", "111439.072500", "111439.860000", "111440.647500", "111441.435000", "111442.225000", "111443.012500", "111443.800000", "111444.587500", "111445.377500", "111446.165000", "111446.952500", "111447.742500", "111448.530000", "111449.317500", "111450.105000", "111450.895000", "111451.682500", "111452.470000", "111453.257500", "111454.047500", "111454.835000", "111455.622500", "111456.410000", "111457.200000", "111457.987500", "111458.775000", "111459.562500", "111500.352500", "111501.140000", "111501.927500", "111502.715000", "111503.505000", "111504.292500", "111505.080000", "111505.870000", "111506.657500", "111507.445000", "111508.232500", "111509.022500", "111509.810000", "111510.597500", "111511.385000", "111512.175000", "111512.962500", "111513.750000", "111514.537500", "111515.327500", "111516.115000", "111516.902500", "111517.690000", "111518.480000", "111519.267500", "111520.055000", "111520.845000", "111521.632500", "111522.420000", "111523.207500", "111523.997500", "111524.785000", "111525.572500", "111526.360000", "111527.150000", "111527.937500", "111528.725000", "111529.512500", "111530.302500", "111531.090000", "111531.877500", "111532.665000", "111533.455000", "111534.242500", "111535.030000", "111535.817500", "111536.607500", "111537.395000", "111538.182500", "111538.972500", "111539.760000", "111540.547500", "111541.335000", "111542.125000", "111542.912500", "111543.700000", "111544.487500", "111545.277500", "111546.065000", "111546.852500", "111547.640000", "111548.430000", "111549.217500", "111550.005000", "111550.792500", "111551.582500", "111552.370000", "111553.157500", "111553.945000", "111554.735000", "111555.522500", "111556.310000", "111557.100000", "111557.887500", "111558.675000", "111559.462500", "111600.252500", "111601.040000", "111601.827500", "111602.615000", "111603.405000", "111604.192500", "111604.980000", "111605.767500", "111606.557500", "111607.345000", "111608.132500", "111608.920000", "111609.710000", "111610.497500", "111611.285000", "111612.072500", "111612.862500", "111613.650000", "111614.437500", "111615.227500", "111616.015000", "111616.802500", "111617.590000", "111618.380000", "111619.167500", "111619.955000", "111620.742500", "111621.532500", "111622.320000", "111623.107500", "111623.895000", "111624.685000", "111625.472500", "111626.260000", "111627.047500", "111627.837500", "111628.625000", "111629.412500", "111630.200000", "111630.990000", "111631.777500", "111632.565000", "111633.355000", "111634.142500", "111634.930000", "111635.717500", "111636.507500", "111637.295000", "111638.082500", "111638.870000", "111639.660000", "111640.447500", "111641.235000", "111642.022500", "111642.812500", "111643.600000", "111644.387500", "111645.175000", "111645.965000", "111646.752500", "111647.540000", "111648.327500", "111649.117500", "111649.905000", "111650.692500", "111651.482500", "111652.270000", "111653.057500", "111653.845000", "111654.635000", "111655.422500", "111656.210000", "111656.997500", "111657.787500", "111658.575000", "111659.362500", "111700.150000", "111700.940000", "111701.727500", "111702.515000", "111703.302500", "111704.092500", "111704.880000", "111705.667500", "111706.455000", "111707.245000", "111708.032500", "111708.820000", "111709.610000", "111710.397500", "111711.185000", "111711.972500", "111712.762500", "111713.550000", "111714.337500", "111715.125000", "111715.915000", "111716.702500", "111717.490000", "111718.277500", "111719.067500", "111719.855000", "111720.642500", "111721.430000", "111722.220000", "111723.007500", "111723.795000", "111724.582500", "111725.372500", "111726.160000", "111726.947500", "111727.737500", "111728.525000", "111729.312500", "111730.100000", "111730.890000", "111731.677500", "111732.465000", "111733.252500", "111734.042500", "111734.830000", "111735.617500", "111736.405000", "111737.195000", "111737.982500", "111738.770000", "111739.557500", "111740.347500", "111741.135000", "111741.922500", "111742.710000", "111743.500000", "111744.287500", "111745.075000", "111745.865000", "111746.652500", "111747.440000", "111748.227500", "111749.017500", "111749.805000", "111750.592500", "111751.380000", "111752.170000", "111752.957500", "111753.745000", "111754.532500", "111755.322500", "111756.110000", "111756.897500", "111757.685000", "111758.475000", "111759.262500", "111800.050000", "111800.837500", "111801.627500", "111802.415000", "111803.202500", "111803.992500", "111804.780000", "111805.567500", "111806.355000", "111807.145000", "111807.932500", "111808.720000", "111809.507500", "111810.297500", "111811.085000", "111811.872500", "111812.660000", "111813.450000", "111814.237500", "111815.025000", "111815.812500", "111816.602500", "111817.390000", "111818.177500", "111818.965000", "111819.755000", "111820.542500", "111821.330000", "111822.120000", "111822.907500", "111823.695000", "111824.482500", "111825.272500", "111826.060000", "111826.847500", "111827.635000", "111828.425000", "111829.212500", "111830.000000", "111830.787500", "111831.577500", "111832.365000", "111833.152500", "111833.940000", "111834.730000", "111835.517500", "111836.305000", "111837.095000", "111837.882500", "111838.670000", "111839.457500", "111840.247500", "111841.035000", "111841.822500", "111842.610000", "111843.400000", "111844.187500", "111844.975000", "111845.762500", "111846.552500", "111847.340000", "111848.127500", "111848.915000", "111849.705000", "111850.492500", "111851.280000", "111852.067500", "111852.857500", "111853.645000", "111854.432500", "111855.222500", "111856.010000", "111856.797500", "111857.585000", "111858.375000", "111859.162500", "111859.950000", "111900.737500", "111901.527500", "111902.315000", "111903.102500", "111903.890000", "111904.680000", "111905.467500", "111906.255000", "111907.042500", "111907.832500", "111908.620000", "111909.407500", "111910.195000", "111910.985000", "111911.772500", "111912.560000", "111913.350000", "111914.137500", "111914.925000", "111915.712500", "111916.502500", "111917.290000", "111918.077500", "111918.865000", "111919.655000", "111920.442500", "111921.230000", "111922.017500", "111922.807500", "111923.595000", "111924.382500", "111925.170000", "111925.960000", "111926.747500", "111927.535000", "111928.322500", "111929.112500", "111929.900000", "111930.687500", "111931.477500", "111932.265000", "111933.052500", "111933.840000", "111934.630000", "111935.417500", "111936.205000", "111936.992500", "111937.782500", "111938.570000", "111939.357500", "111940.145000", "111940.935000", "111941.722500", "111942.510000", "111943.297500", "111944.087500", "111944.875000", "111945.662500", "111946.450000", "111947.240000", "111948.027500", "111948.815000", "111949.605000", "111950.392500", "111951.180000", "111951.967500", "111952.757500", "111953.545000", "111954.332500", "111955.120000", "111955.910000", "111956.697500", "111957.485000", "111958.272500", "111959.062500", "111959.850000", "112000.637500", "112001.425000", "112002.215000", "112003.002500", "112003.790000", "112004.577500", "112005.367500", "112006.155000", "112006.942500", "112007.732500", "112008.520000", "112009.307500", "112010.095000", "112010.885000", "112011.672500", "112012.460000", "112013.247500", "112014.037500", "112014.825000", "112015.612500", "112016.400000", "112017.190000", "112017.977500", "112018.765000", "112019.552500", "112020.342500", "112021.130000", "112021.917500", "112022.705000", "112023.495000", "112024.282500", "112025.070000", "112025.860000", "112026.647500", "112027.435000", "112028.222500", "112029.012500", "112029.800000", "112030.587500", "112031.375000", "112032.165000", "112032.952500", "112033.740000", "112034.527500", "112035.317500", "112036.105000", "112036.892500", "112037.680000", "112038.470000", "112039.257500", "112040.045000", "112040.832500", "112041.622500", "112042.410000", "112043.197500", "112043.987500", "112044.775000", "112045.562500", "112046.350000", "112047.140000", "112047.927500", "112048.715000", "112049.502500", "112050.292500", "112051.080000", "112051.867500", "112052.655000", "112053.445000", "112054.232500", "112055.020000", "112055.807500", "112056.597500", "112057.385000", "112058.172500", "112058.960000", "112059.750000", "112100.537500", "112101.325000", "112102.115000", "112102.902500", "112103.690000", "112104.477500", "112105.267500", "112106.055000", "112106.842500", "112107.630000", "112108.420000", "112109.207500", "112109.995000", "112110.782500", "112111.572500", "112112.360000", "112113.147500", "112113.935000", "112114.725000", "112115.512500", "112116.300000", "112117.087500", "112117.877500", "112118.665000", "112119.452500", "112120.242500", "112121.030000", "112121.817500", "112122.605000", "112123.395000", "112124.182500", "112124.970000", "112125.757500", "112126.547500", "112127.335000", "112128.122500", "112128.910000", "112129.700000", "112130.487500", "112131.275000", "112132.062500", "112132.852500", "112133.640000", "112134.427500", "112135.215000", "112136.005000", "112136.792500", "112137.580000", "112138.370000", "112139.157500", "112139.945000", "112140.732500", "112141.522500", "112142.310000", "112143.097500", "112143.885000"],
      "ContentTime": ["111437.390000", "111437.390000", "111437.390000", "111437.390000", "111437.406000", "111437.406000", "111437.406000", "111437.406000", "111437.406000", "111437.406000", "111437.406000", "111437.421000", "111437.421000", "111437.421000", "111437.421000", "111437.421000", "111437.421000", "111437.437000", "111437.437000", "111437.437000", "111437.437000", "111437.437000", "111437.437000", "111437.437000", "111437.453000", "111437.453000", "111437.453000", "111437.453000", "111437.453000", "111437.453000", "111437.453000", "111437.453000", "111437.468000", "111437.468000", "111437.468000", "111437.468000", "111457.359000", "111457.359000", "111457.375000", "111457.375000", "111457.375000", "111457.375000", "111457.375000", "111457.390000", "111457.390000", "111457.390000", "111457.390000", "111457.390000", "111457.406000", "111457.406000", "111457.406000", "111457.406000", "111457.406000", "111457.406000", "111457.406000", "111457.421000", "111457.421000", "111457.421000", "111457.421000", "111457.421000", "111457.421000", "111517.359000", "111517.359000", "111517.375000", "111517.375000", "111517.375000", "111517.375000", "111517.375000", "111517.375000", "111517.375000", "111517.390000", "111517.390000", "111517.390000", "111517.390000", "111517.390000", "111517.390000", "111517.390000", "111517.406000", "111517.406000", "111517.406000", "111517.406000", "111517.406000", "111517.406000", "111517.406000", "111517.421000", "111517.421000", "111517.421000", "111537.359000", "111537.359000", "111537.375000", "111537.375000", "111537.375000", "111537.375000", "111537.375000", "111537.375000", "111537.375000", "111537.390000", "111537.390000", "111537.390000", "111537.390000", "111537.390000", "111537.406000", "111537.406000", "111537.406000", "111537.406000", "111537.406000", "111537.421000", "111537.421000", "111537.421000", "111537.421000", "111537.421000", "111537.437000", "111557.359000", "111557.359000", "111557.375000", "111557.375000", "111557.375000", "111557.375000", "111557.375000", "111557.375000", "111557.375000", "111557.390000", "111557.390000", "111557.390000", "111557.390000", "111557.390000", "111557.390000", "111557.390000", "111557.406000", "111557.406000", "111557.406000", "111557.406000", "111557.406000", "111557.406000", "111557.406000", "111557.421000", "111557.421000", "111557.421000", "111617.359000", "111617.359000", "111617.375000", "111617.375000", "111617.375000", "111617.375000", "111617.375000", "111617.390000", "111617.390000", "111617.390000", "111617.390000", "111617.390000", "111617.390000", "111617.406000", "111617.406000", "111617.406000", "111617.406000", "111617.406000", "111617.406000", "111617.421000", "111617.421000", "111617.421000", "111617.421000", "111617.421000", "111617.421000", "111637.359000", "111637.359000", "111637.375000", "111637.375000", "111637.375000", "111637.375000", "111637.375000", "111637.375000", "111637.375000", "111637.390000", "111637.390000", "111637.390000", "111637.390000", "111637.390000", "111637.390000", "111637.390000", "111637.406000", "111637.406000", "111637.406000", "111637.406000", "111637.406000", "111637.406000", "111637.406000", "111637.421000", "111637.421000", "111637.421000", "111657.359000", "111657.359000", "111657.375000", "111657.375000", "111657.375000", "111657.375000", "111657.375000", "111657.375000", "111657.375000", "111657.390000", "111657.390000", "111657.390000", "111657.390000", "111657.390000", "111657.390000", "111657.390000", "111657.406000", "111657.406000", "111657.406000", "111657.406000", "111657.406000", "111657.406000", "111657.421000", "111657.421000", "111657.421000", "111717.359000", "111717.375000", "111717.375000", "111717.375000", "111717.375000", "111717.375000", "111717.375000", "111717.390000", "111717.390000", "111717.390000", "111717.390000", "111717.390000", "111717.390000", "111717.406000", "111717.406000", "111717.406000", "111717.406000", "111717.406000", "111717.406000", "111717.406000", "111717.421000", "111717.421000", "111717.421000", "111717.421000", "111717.421000", "111717.421000", "111737.359000", "111737.359000", "111737.375000", "111737.375000", "111737.375000", "111737.375000", "111737.375000", "111737.375000", "111737.375000", "111737.390000", "111737.390000", "111737.390000", "111737.390000", "111737.390000", "111737.390000", "111737.390000", "111737.406000", "111737.406000", "111737.406000", "111737.406000", "111737.406000", "111737.421000", "111737.421000", "111737.421000", "111737.421000", "111757.359000", "111757.359000", "111757.375000", "111757.375000", "111757.375000", "111757.375000", "111757.375000", "111757.375000", "111757.375000", "111757.390000", "111757.390000", "111757.390000", "111757.390000", "111757.390000", "111757.390000", "111757.390000", "111757.406000", "111757.406000", "111757.406000", "111757.406000", "111757.406000", "111757.406000", "111757.406000", "111757.421000", "111757.421000", "111757.421000", "111817.359000", "111817.359000", "111817.375000", "111817.375000", "111817.375000", "111817.375000", "111817.375000", "111817.375000", "111817.375000", "111817.390000", "111817.390000", "111817.390000", "111817.390000", "111817.390000", "111817.390000", "111817.390000", "111817.406000", "111817.406000", "111817.406000", "111817.406000", "111817.406000", "111817.406000", "111817.406000", "111817.421000", "111817.421000", "111837.359000", "111837.359000", "111837.375000", "111837.375000", "111837.375000", "111837.375000", "111837.375000", "111837.375000", "111837.390000", "111837.390000", "111837.390000", "111837.390000", "111837.390000", "111837.390000", "111837.406000", "111837.406000", "111837.406000", "111837.406000", "111837.421000", "111837.421000", "111837.421000", "111837.421000", "111837.421000", "111837.421000", "111837.421000", "111837.437000", "111857.359000", "111857.359000", "111857.375000", "111857.375000", "111857.375000", "111857.375000", "111857.375000", "111857.375000", "111857.375000", "111857.390000", "111857.390000", "111857.390000", "111857.390000", "111857.390000", "111857.390000", "111857.406000", "111857.406000", "111857.406000", "111857.406000", "111857.406000", "111857.406000", "111857.421000", "111857.421000", "111857.421000", "111857.421000", "111917.359000", "111917.359000", "111917.375000", "111917.375000", "111917.375000", "111917.375000", "111917.375000", "111917.375000", "111917.375000", "111917.390000", "111917.390000", "111917.390000", "111917.390000", "111917.390000", "111917.390000", "111917.390000", "111917.406000", "111917.406000", "111917.406000", "111917.406000", "111917.406000", "111917.406000", "111917.406000", "111917.421000", "111917.421000", "111917.421000", "111937.359000", "111937.359000", "111937.375000", "111937.375000", "111937.375000", "111937.375000", "111937.375000", "111937.375000", "111937.375000", "111937.390000", "111937.390000", "111937.390000", "111937.390000", "111937.390000", "111937.390000", "111937.390000", "111937.406000", "111937.406000", "111937.406000", "111937.406000", "111937.406000", "111937.406000", "111937.406000", "111937.421000", "111937.421000", "111957.359000", "111957.359000", "111957.375000", "111957.375000", "111957.375000", "111957.375000", "111957.390000", "111957.390000", "111957.390000", "111957.390000", "111957.390000", "111957.390000", "111957.390000", "111957.406000", "111957.406000", "111957.406000", "111957.406000", "111957.406000", "111957.406000", "111957.406000", "111957.421000", "111957.421000", "111957.421000", "111957.421000", "111957.421000", "111957.421000", "112017.359000", "112017.359000", "112017.375000", "112017.375000", "112017.375000", "112017.375000", "112017.375000", "112017.375000", "112017.375000", "112017.390000", "112017.390000", "112017.390000", "112017.390000", "112017.390000", "112017.406000", "112017.406000", "112017.406000", "112017.406000", "112017.406000", "112017.406000", "112017.406000", "112017.421000", "112017.421000", "112017.421000", "112017.421000", "112037.359000", "112037.359000", "112037.375000", "112037.375000", "112037.375000", "112037.375000", "112037.375000", "112037.375000", "112037.375000", "112037.390000", "112037.390000", "112037.390000", "112037.390000", "112037.390000", "112037.390000", "112037.390000", "112037.406000", "112037.406000", "112037.406000", "112037.406000", "112037.406000", "112037.406000", "112037.406000", "112037.421000", "112037.421000", "112037.421000", "112057.359000", "112057.359000", "112057.375000", "112057.375000", "112057.375000", "112057.375000", "112057.375000", "112057.375000", "112057.375000", "112057.390000", "112057.390000", "112057.390000", "112057.390000", "112057.390000", "112057.390000", "112057.390000", "112057.406000", "112057.406000", "112057.406000", "112057.406000", "112057.406000", "112057.406000", "112057.421000", "112057.421000", "112057.421000", "112117.359000", "112117.359000", "112117.375000", "112117.375000", "112117.375000", "112117.375000", "112117.375000", "112117.375000", "112117.375000", "112117.390000", "112117.390000", "112117.390000", "112117.390000", "112117.390000", "112117.390000", "112117.390000", "112117.406000", "112117.406000", "112117.406000", "112117.406000", "112117.406000", "112117.406000", "112117.406000", "112117.421000", "112117.421000", "112117.421000", "112137.359000", "112137.359000", "112137.375000", "112137.375000", "112137.375000", "112137.375000", "112137.375000", "112137.375000", "112137.375000", "112137.390000", "112137.390000", "112137.390000", "112137.390000", "112137.390000", "112137.390000", "112137.390000", "112137.406000", "112137.406000", "112137.406000", "112137.406000", "112137.406000", "112137.421000", "112137.421000", "112137.421000", "112137.421000", "112144.812000", "112144.828000", "112144.828000", "112144.828000", "112144.828000", "112144.828000", "112144.828000", "112144.828000", "112144.843000", "112144.843000"],
      "DataSetTrailingPadding": [
        "\u0000\u0000\u0000\u0000\u0000\u0000\u0000\u0000\u0000\u0000\u0000\u0000\u0000\u0000\u0000\u0000\u0000\u0000\u0000\u0000\u0000\u0000\u0000\u0000\u0000\u0000\u0000\u0000\u0000\u0000\u0000\u0000\u0000\u0000\u0000\u0000\u0000\u0000\u0000\u0000\u0000\u0000\u0000\u0000\u0000\u0000\u0000\u0000\u0000\u0000\u0000\u0000\u0000\u0000\u0000\u0000\u0000\u0000\u0000\u0000\u0000\u0000\u0000\u0000\u0000\u0000\u0000\u0000\u0000\u0000\u0000\u0000",
        "\u0000\u0000\u0000\u0000\u0000\u0000\u0000\u0000\u0000\u0000\u0000\u0000\u0000\u0000\u0000\u0000\u0000\u0000\u0000\u0000\u0000\u0000\u0000\u0000\u0000\u0000\u0000\u0000\u0000\u0000\u0000\u0000\u0000\u0000\u0000\u0000\u0000\u0000\u0000\u0000\u0000\u0000\u0000\u0000\u0000\u0000\u0000\u0000\u0000\u0000\u0000\u0000\u0000\u0000\u0000\u0000\u0000\u0000\u0000\u0000\u0000\u0000\u0000\u0000\u0000\u0000\u0000\u0000\u0000\u0000\u0000\u0000",
        "\u0000\u0000\u0000\u0000\u0000\u0000\u0000\u0000\u0000\u0000\u0000\u0000\u0000\u0000\u0000\u0000\u0000\u0000\u0000\u0000\u0000\u0000\u0000\u0000\u0000\u0000\u0000\u0000\u0000\u0000\u0000\u0000\u0000\u0000\u0000\u0000\u0000\u0000\u0000\u0000\u0000\u0000\u0000\u0000\u0000\u0000\u0000\u0000\u0000\u0000\u0000\u0000\u0000\u0000\u0000\u0000\u0000\u0000\u0000\u0000\u0000\u0000\u0000\u0000\u0000\u0000\u0000\u0000\u0000\u0000",
        "\u0000\u0000\u0000\u0000\u0000\u0000\u0000\u0000\u0000\u0000\u0000\u0000\u0000\u0000\u0000\u0000\u0000\u0000\u0000\u0000\u0000\u0000\u0000\u0000\u0000\u0000\u0000\u0000\u0000\u0000\u0000\u0000\u0000\u0000\u0000\u0000\u0000\u0000\u0000\u0000\u0000\u0000\u0000\u0000\u0000\u0000\u0000\u0000\u0000\u0000\u0000\u0000\u0000\u0000\u0000\u0000\u0000\u0000\u0000\u0000\u0000\u0000\u0000\u0000\u0000\u0000\u0000\u0000\u0000\u0000",
