{
  "AcquisitionMatrixPE": 104,
  "AcquisitionNumber": 1,
  "AcquisitionTime": "11:49:31.717500",
  "BandwidthPerPixelPhaseEncode": 13.935,
  "BaseResolution": 104,
  "CoilString": "C:HEA;HEP",
  "ConversionSoftware": "dcm2niix",
  "ConversionSoftwareVersion": "v1.0.20210317",
  "DerivedVendorReportedEchoSpacing": 0.000690017,
  "DeviceSerialNumber": "35450",
  "DwellTime": 2.5e-06,
  "EchoTime": 0.0348,
  "EffectiveEchoSpacing": 0.000690017,
  "FlipAngle": 55,
  "ImageComments": "Unaliased MB8/PE3 (remote)",
  "ImageOrientationPatientDICOM": [1, 0, 0, 0, 0.995056, -0.0993197],
  "ImageType": [
    "ORIGINAL",
    "PRIMARY",
    "M",
    "MB",
    "ND",
    "MOSAIC"
],
  "ImagingFrequency": 123.235,
  "InPlanePhaseEncodingDirectionDICOM": "COL",
  "InstitutionAddress": "Univeristy Ave. 197,Newark,North East,US,07102-1814",
  "InstitutionName": "RUBIC",
  "InstitutionalDepartmentName": "Department",
  "MRAcquisitionType": "2D",
  "MagneticFieldStrength": 3,
  "Manufacturer": "Siemens",
  "ManufacturersModelName": "TrioTim",
  "Modality": "MR",
  "MultibandAccelerationFactor": 8,
  "PartialFourier": 0.875,
  "PatientPosition": "HFS",
  "PercentPhaseFOV": 100,
  "PercentSampling": 100,
  "PhaseEncodingDirection": "j-",
  "PhaseEncodingSteps": 91,
  "PhaseResolution": 1,
  "PixelBandwidth": 1923,
  "ProcedureStepDescription": "Cole^Michael",
  "ProtocolName": "cmrr_mbep2d_bold_2mm_MB8_Task_8x",
  "PulseSequenceDetails": "%CustomerSeq%\\cmrr_mbep2d_bold",
  "ReceiveCoilName": "32Ch_Head",
  "ReconMatrixPE": 104,
  "RepetitionTime": 0.785,
  "SAR": 0.139927,
  "ScanOptions": "PFP\\FS",
  "ScanningSequence": "EP",
  "SequenceName": "epfid2d1_104",
  "SequenceVariant": "SK\\SS",
  "SeriesDescription": "cmrr_mbep2d_bold_2mm_MB8_Task_8x",
  "SeriesNumber": 25,
  "ShimSetting": [2120, -387, -7269, 507, -26, -299, -56, 123],
  "SliceThickness": 2,
  "SliceTiming": [0, 0.4375, 0.0875, 0.525, 0.175, 0.6125, 0.2625, 0.7, 0.35, 0, 0.4375, 0.0875, 0.525, 0.175, 0.6125, 0.2625, 0.7, 0.35, 0, 0.4375, 0.0875, 0.525, 0.175, 0.6125, 0.2625, 0.7, 0.35, 0, 0.4375, 0.0875, 0.525, 0.175, 0.6125, 0.2625, 0.7, 0.35, 0, 0.4375, 0.0875, 0.525, 0.175, 0.6125, 0.2625, 0.7, 0.35, 0, 0.4375, 0.0875, 0.525, 0.175, 0.6125, 0.2625, 0.7, 0.35, 0, 0.4375, 0.0875, 0.525, 0.175, 0.6125, 0.2625, 0.7, 0.35, 0, 0.4375, 0.0875, 0.525, 0.175, 0.6125, 0.2625, 0.7, 0.35],
  "SoftwareVersions": "syngo MR B19",
  "SpacingBetweenSlices": 2,
  "StationName": "MRC35450",
  "TaskName": "cpro",
  "TotalReadoutTime": 0.0710717,
  "TxRefAmp": 337.104,
  "dcmmeta_affine": [
    [-2.0, 0.0, 0.0, 104.0],
    [0.0, 1.9901111125946045, -0.19863949716091156, -77.97496795654297],
    [0.0, 0.19863949716091156, 1.990111231803894, -111.92528533935547],
    [0.0, 0.0, 0.0, 1.0]
],
  "dcmmeta_reorient_transform": [
    [0.0, -1.0, 0.0, 103.0],
    [1.0, 0.0, 0.0, 0.0],
    [0.0, 0.0, 1.0, 0.0],
    [0.0, 0.0, 0.0, 1.0]
],
  "dcmmeta_shape": [104, 104, 72, 581],
  "dcmmeta_slice_dim": 2,
  "dcmmeta_version": 0.6,
  "global": {
    "const": {
      "AcquisitionMatrix": [104, 0, 0, 104],
      "AngioFlag": "N",
      "BitsAllocated": 16,
      "BitsStored": 12,
      "Columns": 936,
      "EchoNumbers": 1,
      "EchoTime": 34.8,
      "EchoTrainLength": 1,
      "FlipAngle": 55.0,
      "HighBit": 11,
      "ImageOrientationPatient": [1.0, 0.0, 0.0, 0.0, 0.9950555699221, -0.0993197501357],
      "ImagePositionPatient": [-936.0, -954.8927139018, -8.8313839780102],
      "ImageType": [
        "ORIGINAL",
        "PRIMARY",
        "M",
        "MB",
        "ND",
        "MOSAIC"
],
      "ImagedNucleus": "1H",
      "ImagingFrequency": 123.234545,
      "InPlanePhaseEncodingDirection": "COL",
      "MRAcquisitionType": "2D",
      "MagneticFieldStrength": 3.0,
      "Manufacturer": "SIEMENS",
      "ManufacturerModelName": "TrioTim",
      "Modality": "MR",
      "NumberOfAverages": 1.0,
      "NumberOfPhaseEncodingSteps": 91,
      "PercentPhaseFieldOfView": 100.0,
      "PercentSampling": 100.0,
      "PerformedProcedureStepStartTime": "101209.765000",
      "PhotometricInterpretation": "MONOCHROME2",
      "PixelBandwidth": 1923.0,
      "PixelRepresentation": 0,
      "PixelSpacing": [2.0, 2.0],
      "ProtocolName": "cmrr_mbep2d_bold_2mm_MB8_Task_8x",
      "RepetitionTime": 785.0,
      "Rows": 936,
      "SAR": 0.13992675359712,
      "SamplesPerPixel": 1,
      "ScanOptions": [
        "PFP",
        "FS"
],
      "ScanningSequence": "EP",
      "SequenceName": "epfid2d1_104",
      "SequenceVariant": [
        "SK",
        "SS"
],
      "SeriesDescription": "cmrr_mbep2d_bold_2mm_MB8_Task_8x",
      "SeriesNumber": 25,
      "SeriesTime": "114952.734000",
      "SliceLocation": -103.62742356852,
      "SliceThickness": 2.0,
      "SmallestImagePixelValue": 0,
      "SoftwareVersions": "syngo MR B19",
      "SpacingBetweenSlices": 2.0000000357085,
      "SpecificCharacterSet": "ISO_IR 100",
      "StudyID": "1",
      "StudyTime": "101209.687000",
      "TransmitCoilName": "Body",
      "VariableFlipAngleFlag": "N",
      "WindowCenterWidthExplanation": "Algo1",
      "dBdt": 0.0},
    "slices": {}
  },
  "time": {
    "samples": {
      "AcquisitionNumber": [1, 2, 3, 4, 5, 6, 7, 8, 9, 10, 11, 12, 13, 14, 15, 16, 17, 18, 19, 20, 21, 22, 23, 24, 25, 26, 27, 28, 29, 30, 31, 32, 33, 34, 35, 36, 37, 38, 39, 40, 41, 42, 43, 44, 45, 46, 47, 48, 49, 50, 51, 52, 53, 54, 55, 56, 57, 58, 59, 60, 61, 62, 63, 64, 65, 66, 67, 68, 69, 70, 71, 72, 73, 74, 75, 76, 77, 78, 79, 80, 81, 82, 83, 84, 85, 86, 87, 88, 89, 90, 91, 92, 93, 94, 95, 96, 97, 98, 99, 100, 101, 102, 103, 104, 105, 106, 107, 108, 109, 110, 111, 112, 113, 114, 115, 116, 117, 118, 119, 120, 121, 122, 123, 124, 125, 126, 127, 128, 129, 130, 131, 132, 133, 134, 135, 136, 137, 138, 139, 140, 141, 142, 143, 144, 145, 146, 147, 148, 149, 150, 151, 152, 153, 154, 155, 156, 157, 158, 159, 160, 161, 162, 163, 164, 165, 166, 167, 168, 169, 170, 171, 172, 173, 174, 175, 176, 177, 178, 179, 180, 181, 182, 183, 184, 185, 186, 187, 188, 189, 190, 191, 192, 193, 194, 195, 196, 197, 198, 199, 200, 201, 202, 203, 204, 205, 206, 207, 208, 209, 210, 211, 212, 213, 214, 215, 216, 217, 218, 219, 220, 221, 222, 223, 224, 225, 226, 227, 228, 229, 230, 231, 232, 233, 234, 235, 236, 237, 238, 239, 240, 241, 242, 243, 244, 245, 246, 247, 248, 249, 250, 251, 252, 253, 254, 255, 256, 257, 258, 259, 260, 261, 262, 263, 264, 265, 266, 267, 268, 269, 270, 271, 272, 273, 274, 275, 276, 277, 278, 279, 280, 281, 282, 283, 284, 285, 286, 287, 288, 289, 290, 291, 292, 293, 294, 295, 296, 297, 298, 299, 300, 301, 302, 303, 304, 305, 306, 307, 308, 309, 310, 311, 312, 313, 314, 315, 316, 317, 318, 319, 320, 321, 322, 323, 324, 325, 326, 327, 328, 329, 330, 331, 332, 333, 334, 335, 336, 337, 338, 339, 340, 341, 342, 343, 344, 345, 346, 347, 348, 349, 350, 351, 352, 353, 354, 355, 356, 357, 358, 359, 360, 361, 362, 363, 364, 365, 366, 367, 368, 369, 370, 371, 372, 373, 374, 375, 376, 377, 378, 379, 380, 381, 382, 383, 384, 385, 386, 387, 388, 389, 390, 391, 392, 393, 394, 395, 396, 397, 398, 399, 400, 401, 402, 403, 404, 405, 406, 407, 408, 409, 410, 411, 412, 413, 414, 415, 416, 417, 418, 419, 420, 421, 422, 423, 424, 425, 426, 427, 428, 429, 430, 431, 432, 433, 434, 435, 436, 437, 438, 439, 440, 441, 442, 443, 444, 445, 446, 447, 448, 449, 450, 451, 452, 453, 454, 455, 456, 457, 458, 459, 460, 461, 462, 463, 464, 465, 466, 467, 468, 469, 470, 471, 472, 473, 474, 475, 476, 477, 478, 479, 480, 481, 482, 483, 484, 485, 486, 487, 488, 489, 490, 491, 492, 493, 494, 495, 496, 497, 498, 499, 500, 501, 502, 503, 504, 505, 506, 507, 508, 509, 510, 511, 512, 513, 514, 515, 516, 517, 518, 519, 520, 521, 522, 523, 524, 525, 526, 527, 528, 529, 530, 531, 532, 533, 534, 535, 536, 537, 538, 539, 540, 541, 542, 543, 544, 545, 546, 547, 548, 549, 550, 551, 552, 553, 554, 555, 556, 557, 558, 559, 560, 561, 562, 563, 564, 565, 566, 567, 568, 569, 570, 571, 572, 573, 574, 575, 576, 577, 578, 579, 580, 581],
      "AcquisitionTime": ["114931.717500", "114932.505000", "114933.295000", "114934.082500", "114934.870000", "114935.657500", "114936.447500", "114937.235000", "114938.022500", "114938.812500", "114939.600000", "114940.387500", "114941.175000", "114941.965000", "114942.752500", "114943.540000", "114944.327500", "114945.117500", "114945.905000", "114946.692500", "114947.480000", "114948.270000", "114949.057500", "114949.845000", "114950.632500", "114951.422500", "114952.210000", "114952.997500", "114953.785000", "114954.575000", "114955.362500", "114956.150000", "114956.940000", "114957.727500", "114958.515000", "114959.302500", "115000.092500", "115000.880000", "115001.667500", "115002.455000", "115003.245000", "115004.032500", "115004.820000", "115005.607500", "115006.397500", "115007.185000", "115007.972500", "115008.760000", "115009.550000", "115010.337500", "115011.125000", "115011.915000", "115012.702500", "115013.490000", "115014.277500", "115015.067500", "115015.855000", "115016.642500", "115017.430000", "115018.220000", "115019.007500", "115019.795000", "115020.582500", "115021.372500", "115022.160000", "115022.947500", "115023.735000", "115024.525000", "115025.312500", "115026.100000", "115026.887500", "115027.677500", "115028.465000", "115029.252500", "115030.042500", "115030.830000", "115031.617500", "115032.405000", "115033.195000", "115033.982500", "115034.770000", "115035.557500", "115036.347500", "115037.135000", "115037.922500", "115038.710000", "115039.500000", "115040.287500", "115041.075000", "115041.862500", "115042.652500", "115043.440000", "115044.227500", "115045.015000", "115045.805000", "115046.592500", "115047.380000", "115048.170000", "115048.957500", "115049.745000", "115050.532500", "115051.322500", "115052.110000", "115052.897500", "115053.685000", "115054.475000", "115055.262500", "115056.050000", "115056.837500", "115057.627500", "115058.415000", "115059.202500", "115059.990000", "115100.780000", "115101.567500", "115102.355000", "115103.142500", "115103.932500", "115104.720000", "115105.507500", "115106.297500", "115107.085000", "115107.872500", "115108.660000", "115109.450000", "115110.237500", "115111.025000", "115111.812500", "115112.602500", "115113.390000", "115114.177500", "115114.965000", "115115.755000", "115116.542500", "115117.330000", "115118.117500", "115118.907500", "115119.695000", "115120.482500", "115121.270000", "115122.060000", "115122.847500", "115123.635000", "115124.425000", "115125.212500", "115126.000000", "115126.787500", "115127.577500", "115128.365000", "115129.152500", "115129.940000", "115130.730000", "115131.517500", "115132.305000", "115133.092500", "115133.882500", "115134.670000", "115135.457500", "115136.245000", "115137.035000", "115137.822500", "115138.610000", "115139.397500", "115140.187500", "115140.975000", "115141.762500", "115142.552500", "115143.340000", "115144.127500", "115144.915000", "115145.705000", "115146.492500", "115147.280000", "115148.067500", "115148.857500", "115149.645000", "115150.432500", "115151.220000", "115152.010000", "115152.797500", "115153.585000", "115154.372500", "115155.162500", "115155.950000", "115156.737500", "115157.525000", "115158.315000", "115159.102500", "115159.890000", "115200.680000", "115201.467500", "115202.255000", "115203.042500", "115203.832500", "115204.620000", "115205.407500", "115206.195000", "115206.985000", "115207.772500", "115208.560000", "115209.347500", "115210.137500", "115210.925000", "115211.712500", "115212.500000", "115213.290000", "115214.077500", "115214.865000", "115215.652500", "115216.442500", "115217.230000", "115218.017500", "115218.807500", "115219.595000", "115220.382500", "115221.170000", "115221.960000", "115222.747500", "115223.535000", "115224.322500", "115225.112500", "115225.900000", "115226.687500", "115227.475000", "115228.265000", "115229.052500", "115229.840000", "115230.627500", "115231.417500", "115232.205000", "115232.992500", "115233.780000", "115234.570000", "115235.357500", "115236.145000", "115236.935000", "115237.722500", "115238.510000", "115239.297500", "115240.087500", "115240.875000", "115241.662500", "115242.450000", "115243.240000", "115244.027500", "115244.815000", "115245.602500", "115246.392500", "115247.180000", "115247.967500", "115248.755000", "115249.545000", "115250.332500", "115251.120000", "115251.907500", "115252.697500", "115253.485000", "115254.272500", "115255.062500", "115255.850000", "115256.637500", "115257.425000", "115258.215000", "115259.002500", "115259.790000", "115300.577500", "115301.367500", "115302.155000", "115302.942500", "115303.730000", "115304.520000", "115305.307500", "115306.095000", "115306.882500", "115307.672500", "115308.460000", "115309.247500", "115310.035000", "115310.825000", "115311.612500", "115312.400000", "115313.190000", "115313.977500", "115314.765000", "115315.552500", "115316.342500", "115317.130000", "115317.917500", "115318.705000", "115319.495000", "115320.282500", "115321.070000", "115321.857500", "115322.647500", "115323.435000", "115324.222500", "115325.010000", "115325.800000", "115326.587500", "115327.375000", "115328.165000", "115328.952500", "115329.740000", "115330.527500", "115331.317500", "115332.105000", "115332.892500", "115333.680000", "115334.470000", "115335.257500", "115336.045000", "115336.832500", "115337.622500", "115338.410000", "115339.197500", "115339.985000", "115340.775000", "115341.562500", "115342.350000", "115343.137500", "115343.927500", "115344.715000", "115345.502500", "115346.292500", "115347.080000", "115347.867500", "115348.655000", "115349.445000", "115350.232500", "115351.020000", "115351.807500", "115352.597500", "115353.385000", "115354.172500", "115354.960000", "115355.750000", "115356.537500", "115357.325000", "115358.112500", "115358.902500", "115359.690000", "115400.477500", "115401.265000", "115402.055000", "115402.842500", "115403.630000", "115404.420000", "115405.207500", "115405.995000", "115406.782500", "115407.572500", "115408.360000", "115409.147500", "115409.935000", "115410.725000", "115411.512500", "115412.300000", "115413.087500", "115413.877500", "115414.665000", "115415.452500", "115416.240000", "115417.030000", "115417.817500", "115418.605000", "115419.392500", "115420.182500", "115420.970000", "115421.757500", "115422.547500", "115423.335000", "115424.122500", "115424.910000", "115425.700000", "115426.487500", "115427.275000", "115428.062500", "115428.852500", "115429.640000", "115430.427500", "115431.215000", "115432.005000", "115432.792500", "115433.580000", "115434.367500", "115435.157500", "115435.945000", "115436.732500", "115437.520000", "115438.310000", "115439.097500", "115439.885000", "115440.675000", "115441.462500", "115442.250000", "115443.037500", "115443.827500", "115444.615000", "115445.402500", "115446.190000", "115446.980000", "115447.767500", "115448.555000", "115449.342500", "115450.132500", "115450.920000", "115451.707500", "115452.495000", "115453.285000", "115454.072500", "115454.860000", "115455.647500", "115456.437500", "115457.225000", "115458.012500", "115458.802500", "115459.590000", "115500.377500", "115501.165000", "115501.955000", "115502.742500", "115503.530000", "115504.317500", "115505.107500", "115505.895000", "115506.682500", "115507.470000", "115508.260000", "115509.047500", "115509.835000", "115510.622500", "115511.412500", "115512.200000", "115512.987500", "115513.775000", "115514.565000", "115515.352500", "115516.140000", "115516.930000", "115517.717500", "115518.505000", "115519.292500", "115520.082500", "115520.870000", "115521.657500", "115522.445000", "115523.235000", "115524.022500", "115524.810000", "115525.597500", "115526.387500", "115527.175000", "115527.962500", "115528.750000", "115529.540000", "115530.327500", "115531.115000", "115531.902500", "115532.692500", "115533.480000", "115534.267500", "115535.057500", "115535.845000", "115536.632500", "115537.420000", "115538.210000", "115538.997500", "115539.785000", "115540.572500", "115541.362500", "115542.150000", "115542.937500", "115543.725000", "115544.515000", "115545.302500", "115546.090000", "115546.877500", "115547.667500", "115548.455000", "115549.242500", "115550.030000", "115550.820000", "115551.607500", "115552.395000", "115553.185000", "115553.972500", "115554.760000", "115555.547500", "115556.337500", "115557.125000", "115557.912500", "115558.700000", "115559.490000", "115600.277500", "115601.065000", "115601.852500", "115602.642500", "115603.430000", "115604.217500", "115605.005000", "115605.795000", "115606.582500", "115607.370000", "115608.157500", "115608.947500", "115609.735000", "115610.522500", "115611.312500", "115612.100000", "115612.887500", "115613.675000", "115614.465000", "115615.252500", "115616.040000", "115616.827500", "115617.617500", "115618.405000", "115619.192500", "115619.980000", "115620.770000", "115621.557500", "115622.345000", "115623.132500", "115623.922500", "115624.710000", "115625.497500", "115626.285000", "115627.075000", "115627.862500", "115628.650000", "115629.440000", "115630.227500", "115631.015000", "115631.802500", "115632.592500", "115633.380000", "115634.167500", "115634.955000", "115635.745000", "115636.532500", "115637.320000", "115638.107500", "115638.897500", "115639.685000", "115640.472500", "115641.260000", "115642.050000", "115642.837500", "115643.625000", "115644.415000", "115645.202500", "115645.990000", "115646.777500", "115647.567500", "115648.355000", "115649.142500", "115649.930000", "115650.720000", "115651.507500", "115652.295000", "115653.082500", "115653.872500", "115654.660000", "115655.447500", "115656.235000", "115657.025000", "115657.812500", "115658.600000", "115659.387500", "115700.177500", "115700.965000", "115701.752500", "115702.542500", "115703.330000", "115704.117500", "115704.905000", "115705.695000", "115706.482500", "115707.270000", "115708.057500", "115708.847500"],
      "ContentTime": ["114952.734000", "114952.734000", "114952.734000", "114952.734000", "114952.750000", "114952.750000", "114952.750000", "114952.750000", "114952.750000", "114952.750000", "114952.750000", "114952.750000", "114952.765000", "114952.765000", "114952.765000", "114952.765000", "114952.765000", "114952.765000", "114952.781000", "114952.781000", "114952.781000", "114952.781000", "114952.781000", "115012.703000", "115012.703000", "115012.703000", "115012.703000", "115012.718000", "115012.718000", "115012.718000", "115012.718000", "115012.718000", "115012.718000", "115012.718000", "115012.718000", "115012.734000", "115012.734000", "115012.734000", "115012.734000", "115012.734000", "115012.734000", "115012.734000", "115012.750000", "115012.750000", "115012.750000", "115012.750000", "115012.750000", "115012.750000", "115032.703000", "115032.703000", "115032.703000", "115032.703000", "115032.718000", "115032.718000", "115032.718000", "115032.718000", "115032.718000", "115032.718000", "115032.718000", "115032.718000", "115032.734000", "115032.734000", "115032.734000", "115032.734000", "115032.734000", "115032.734000", "115032.750000", "115032.750000", "115032.750000", "115032.750000", "115032.765000", "115032.765000", "115032.765000", "115032.765000", "115052.703000", "115052.703000", "115052.703000", "115052.703000", "115052.718000", "115052.718000", "115052.718000", "115052.718000", "115052.718000", "115052.718000", "115052.718000", "115052.718000", "115052.734000", "115052.734000", "115052.734000", "115052.734000", "115052.734000", "115052.734000", "115052.750000", "115052.750000", "115052.750000", "115052.750000", "115052.750000", "115052.750000", "115052.750000", "115112.703000", "115112.703000", "115112.703000", "115112.703000", "115112.718000", "115112.718000", "115112.718000", "115112.718000", "115112.718000", "115112.718000", "115112.718000", "115112.734000", "115112.734000", "115112.734000", "115112.734000", "115112.734000", "115112.734000", "115112.734000", "115112.734000", "115112.750000", "115112.750000", "115112.750000", "115112.750000", "115112.750000", "115112.750000", "115112.750000", "115132.703000", "115132.703000", "115132.703000", "115132.703000", "115132.718000", "115132.718000", "115132.718000", "115132.718000", "115132.718000", "115132.718000", "115132.718000", "115132.718000", "115132.734000", "115132.734000", "115132.734000", "115132.734000", "115132.734000", "115132.750000", "115132.750000", "115132.750000", "115132.750000", "115132.750000", "115132.750000", "115132.765000", "115132.765000", "115152.703000", "115152.703000", "115152.703000", "115152.703000", "115152.718000", "115152.718000", "115152.718000", "115152.718000", "115152.718000", "115152.718000", "115152.718000", "115152.718000", "115152.734000", "115152.734000", "115152.734000", "115152.734000", "115152.734000", "115152.734000", "115152.734000", "115152.750000", "115152.750000", "115152.750000", "115152.750000", "115152.750000", "115152.750000", "115152.750000", "115212.703000", "115212.703000", "115212.703000", "115212.703000", "115212.703000", "115212.718000", "115212.718000", "115212.718000", "115212.718000", "115212.718000", "115212.718000", "115212.718000", "115212.734000", "115212.734000", "115212.734000", "115212.734000", "115212.734000", "115212.734000", "115212.734000", "115212.750000", "115212.750000", "115212.750000", "115212.750000", "115212.750000", "115212.750000", "115232.703000", "115232.703000", "115232.703000", "115232.703000", "115232.718000", "115232.718000", "115232.718000", "115232.718000", "115232.718000", "115232.718000", "115232.718000", "115232.734000", "115232.734000", "115232.734000", "115232.734000", "115232.734000", "115232.750000", "115232.750000", "115232.750000", "115232.750000", "115232.750000", "115232.750000", "115232.750000", "115232.750000", "115232.765000", "115232.765000", "115252.703000", "115252.703000", "115252.703000", "115252.703000", "115252.718000", "115252.718000", "115252.718000", "115252.718000", "115252.718000", "115252.718000", "115252.718000", "115252.718000", "115252.734000", "115252.734000", "115252.734000", "115252.734000", "115252.734000", "115252.734000", "115252.734000", "115252.750000", "115252.750000", "115252.750000", "115252.750000", "115252.750000", "115252.750000", "115312.703000", "115312.703000", "115312.718000", "115312.718000", "115312.718000", "115312.718000", "115312.718000", "115312.734000", "115312.734000", "115312.734000", "115312.734000", "115312.734000", "115312.734000", "115312.734000", "115312.734000", "115312.750000", "115312.750000", "115312.750000", "115312.750000", "115312.750000", "115312.750000", "115312.750000", "115312.765000", "115312.765000", "115312.765000", "115332.703000", "115332.703000", "115332.703000", "115332.703000", "115332.718000", "115332.718000", "115332.718000", "115332.718000", "115332.718000", "115332.718000", "115332.718000", "115332.718000", "115332.734000", "115332.734000", "115332.734000", "115332.734000", "115332.750000", "115332.750000", "115332.750000", "115332.750000", "115332.750000", "115332.750000", "115332.750000", "115332.765000", "115332.765000", "115332.765000", "115352.703000", "115352.703000", "115352.718000", "115352.718000", "115352.718000", "115352.718000", "115352.718000", "115352.734000", "115352.734000", "115352.734000", "115352.734000", "115352.734000", "115352.734000", "115352.734000", "115352.750000", "115352.750000", "115352.750000", "115352.750000", "115352.750000", "115352.750000", "115352.750000", "115352.750000", "115352.765000", "115352.765000", "115352.765000", "115412.703000", "115412.703000", "115412.703000", "115412.703000", "115412.703000", "115412.718000", "115412.718000", "115412.718000", "115412.718000", "115412.718000", "115412.718000", "115412.718000", "115412.734000", "115412.734000", "115412.734000", "115412.734000", "115412.734000", "115412.734000", "115412.734000", "115412.750000", "115412.750000", "115412.750000", "115412.750000", "115412.750000", "115412.750000", "115412.750000", "115432.703000", "115432.703000", "115432.703000", "115432.703000", "115432.718000", "115432.718000", "115432.718000", "115432.718000", "115432.718000", "115432.718000", "115432.718000", "115432.734000", "115432.734000", "115432.734000", "115432.734000", "115432.734000", "115432.734000", "115432.734000", "115432.750000", "115432.750000", "115432.750000", "115432.750000", "115432.750000", "115432.750000", "115432.765000", "115452.703000", "115452.703000", "115452.703000", "115452.703000", "115452.718000", "115452.718000", "115452.718000", "115452.718000", "115452.718000", "115452.718000", "115452.718000", "115452.718000", "115452.734000", "115452.734000", "115452.734000", "115452.734000", "115452.734000", "115452.734000", "115452.734000", "115452.750000", "115452.750000", "115452.750000", "115452.750000", "115452.750000", "115452.750000", "115452.750000", "115512.703000", "115512.703000", "115512.703000", "115512.703000", "115512.718000", "115512.718000", "115512.718000", "115512.718000", "115512.718000", "115512.734000", "115512.734000", "115512.734000", "115512.734000", "115512.734000", "115512.734000", "115512.734000", "115512.750000", "115512.750000", "115512.750000", "115512.750000", "115512.750000", "115512.765000", "115512.765000", "115512.765000", "115512.765000", "115532.703000", "115532.703000", "115532.703000", "115532.703000", "115532.718000", "115532.718000", "115532.718000", "115532.718000", "115532.718000", "115532.718000", "115532.718000", "115532.734000", "115532.734000", "115532.734000", "115532.734000", "115532.734000", "115532.734000", "115532.734000", "115532.734000", "115532.750000", "115532.750000", "115532.750000", "115532.750000", "115532.750000", "115532.750000", "115532.750000", "115552.703000", "115552.703000", "115552.703000", "115552.703000", "115552.703000", "115552.718000", "115552.718000", "115552.718000", "115552.718000", "115552.718000", "115552.718000", "115552.734000", "115552.734000", "115552.734000", "115552.734000", "115552.750000", "115552.750000", "115552.750000", "115552.750000", "115552.750000", "115552.750000", "115552.750000", "115552.765000", "115552.765000", "115552.765000", "115612.703000", "115612.703000", "115612.703000", "115612.703000", "115612.718000", "115612.718000", "115612.718000", "115612.718000", "115612.718000", "115612.718000", "115612.718000", "115612.718000", "115612.734000", "115612.734000", "115612.734000", "115612.734000", "115612.734000", "115612.734000", "115612.734000", "115612.750000", "115612.750000", "115612.750000", "115612.750000", "115612.750000", "115612.750000", "115612.750000", "115632.703000", "115632.703000", "115632.703000", "115632.703000", "115632.718000", "115632.718000", "115632.718000", "115632.718000", "115632.718000", "115632.718000", "115632.718000", "115632.718000", "115632.734000", "115632.734000", "115632.734000", "115632.734000", "115632.734000", "115632.734000", "115632.734000", "115632.750000", "115632.750000", "115632.750000", "115632.750000", "115632.750000", "115632.750000", "115652.703000", "115652.703000", "115652.703000", "115652.703000", "115652.703000", "115652.718000", "115652.718000", "115652.718000", "115652.718000", "115652.718000", "115652.718000", "115652.718000", "115652.734000", "115652.734000", "115652.734000", "115652.734000", "115652.734000", "115652.734000", "115652.734000", "115652.750000", "115652.750000", "115652.750000", "115652.750000", "115652.750000", "115652.750000", "115652.750000", "115710.640000", "115710.640000", "115710.640000", "115710.640000", "115710.640000", "115710.656000", "115710.656000", "115710.656000", "115710.656000", "115710.656000", "115710.671000", "115710.671000", "115710.671000", "115710.671000", "115710.671000", "115710.671000", "115710.687000", "115710.687000", "115710.687000", "115710.687000", "115710.687000", "115710.687000", "115710.687000"],
