{
  "AcquisitionMatrixPE": 104,
  "AcquisitionNumber": 1,
  "AcquisitionTime": "11:09:32.735000",
  "BandwidthPerPixelPhaseEncode": 13.935,
  "BaseResolution": 104,
  "CoilString": "C:HEA;HEP",
  "ConversionSoftware": "dcm2niix",
  "ConversionSoftwareVersion": "v1.0.20210317",
  "DerivedVendorReportedEchoSpacing": 0.000690017,
  "DeviceSerialNumber": "35450",
  "DwellTime": 2.5e-06,
  "EchoTime": 0.0348,
  "EffectiveEchoSpacing": 0.000690017,
  "FlipAngle": 55,
  "ImageComments": "Unaliased MB8/PE3 (remote)",
  "ImageOrientationPatientDICOM": [1, 0, 0, 0, 0.995056, -0.0993197],
  "ImageType": [
    "ORIGINAL",
    "PRIMARY",
    "M",
    "MB",
    "ND",
    "MOSAIC"
],
  "ImagingFrequency": 123.235,
  "InPlanePhaseEncodingDirectionDICOM": "COL",
  "InstitutionAddress": "Univeristy Ave. 197,Newark,North East,US,07102-1814",
  "InstitutionName": "RUBIC",
  "InstitutionalDepartmentName": "Department",
  "MRAcquisitionType": "2D",
  "MagneticFieldStrength": 3,
  "Manufacturer": "Siemens",
  "ManufacturersModelName": "TrioTim",
  "Modality": "MR",
  "MultibandAccelerationFactor": 8,
  "PartialFourier": 0.875,
  "PatientPosition": "HFS",
  "PercentPhaseFOV": 100,
  "PercentSampling": 100,
  "PhaseEncodingDirection": "j-",
  "PhaseEncodingSteps": 91,
  "PhaseResolution": 1,
  "PixelBandwidth": 1923,
  "ProcedureStepDescription": "Cole^Michael",
  "ProtocolName": "cmrr_mbep2d_bold_2mm_MB8_Task_8x",
  "PulseSequenceDetails": "%CustomerSeq%\\cmrr_mbep2d_bold",
  "ReceiveCoilName": "32Ch_Head",
  "ReconMatrixPE": 104,
  "RepetitionTime": 0.785,
  "SAR": 0.139927,
  "ScanOptions": "PFP\\FS",
  "ScanningSequence": "EP",
  "SequenceName": "epfid2d1_104",
  "SequenceVariant": "SK\\SS",
  "SeriesDescription": "cmrr_mbep2d_bold_2mm_MB8_Task_8x",
  "SeriesNumber": 15,
  "ShimSetting": [2120, -387, -7269, 507, -26, -299, -56, 123],
  "SliceThickness": 2,
  "SliceTiming": [0, 0.4375, 0.0875, 0.525, 0.175, 0.6125, 0.2625, 0.7, 0.35, 0, 0.4375, 0.0875, 0.525, 0.175, 0.6125, 0.2625, 0.7, 0.35, 0, 0.4375, 0.0875, 0.525, 0.175, 0.6125, 0.2625, 0.7, 0.35, 0, 0.4375, 0.0875, 0.525, 0.175, 0.6125, 0.2625, 0.7, 0.35, 0, 0.4375, 0.0875, 0.525, 0.175, 0.6125, 0.2625, 0.7, 0.35, 0, 0.4375, 0.0875, 0.525, 0.175, 0.6125, 0.2625, 0.7, 0.35, 0, 0.4375, 0.0875, 0.525, 0.175, 0.6125, 0.2625, 0.7, 0.35, 0, 0.4375, 0.0875, 0.525, 0.175, 0.6125, 0.2625, 0.7, 0.35],
  "SoftwareVersions": "syngo MR B19",
  "SpacingBetweenSlices": 2,
  "StationName": "MRC35450",
  "TaskName": "cpro",
  "TotalReadoutTime": 0.0710717,
  "TxRefAmp": 337.104,
  "dcmmeta_affine": [
    [-2.0, 0.0, 0.0, 104.0],
    [0.0, 1.9901111125946045, -0.19863949716091156, -77.97496795654297],
    [0.0, 0.19863949716091156, 1.990111231803894, -111.92528533935547],
    [0.0, 0.0, 0.0, 1.0]
],
  "dcmmeta_reorient_transform": [
    [0.0, -1.0, 0.0, 103.0],
    [1.0, 0.0, 0.0, 0.0],
    [0.0, 0.0, 1.0, 0.0],
    [0.0, 0.0, 0.0, 1.0]
],
  "dcmmeta_shape": [104, 104, 72, 581],
  "dcmmeta_slice_dim": 2,
  "dcmmeta_version": 0.6,
  "global": {
    "const": {
      "AcquisitionMatrix": [104, 0, 0, 104],
      "AngioFlag": "N",
      "BitsAllocated": 16,
      "BitsStored": 12,
      "Columns": 936,
      "EchoNumbers": 1,
      "EchoTime": 34.8,
      "EchoTrainLength": 1,
      "FlipAngle": 55.0,
      "HighBit": 11,
      "ImageOrientationPatient": [1.0, 0.0, 0.0, 0.0, 0.9950555699221, -0.0993197501357],
      "ImagePositionPatient": [-936.0, -954.8927139018, -8.8313839780102],
      "ImageType": [
        "ORIGINAL",
        "PRIMARY",
        "M",
        "MB",
        "ND",
        "MOSAIC"
],
      "ImagedNucleus": "1H",
      "ImagingFrequency": 123.234545,
      "InPlanePhaseEncodingDirection": "COL",
      "MRAcquisitionType": "2D",
      "MagneticFieldStrength": 3.0,
      "Manufacturer": "SIEMENS",
      "ManufacturerModelName": "TrioTim",
      "Modality": "MR",
      "NumberOfAverages": 1.0,
      "NumberOfPhaseEncodingSteps": 91,
      "PercentPhaseFieldOfView": 100.0,
      "PercentSampling": 100.0,
      "PerformedProcedureStepStartTime": "101209.765000",
      "PhotometricInterpretation": "MONOCHROME2",
      "PixelBandwidth": 1923.0,
      "PixelRepresentation": 0,
      "PixelSpacing": [2.0, 2.0],
      "ProtocolName": "cmrr_mbep2d_bold_2mm_MB8_Task_8x",
      "RepetitionTime": 785.0,
      "Rows": 936,
      "SAR": 0.13992675359712,
      "SamplesPerPixel": 1,
      "ScanOptions": [
        "PFP",
        "FS"
],
      "ScanningSequence": "EP",
      "SequenceName": "epfid2d1_104",
      "SequenceVariant": [
        "SK",
        "SS"
],
      "SeriesDescription": "cmrr_mbep2d_bold_2mm_MB8_Task_8x",
      "SeriesNumber": 15,
      "SeriesTime": "111009.109000",
      "SliceLocation": -103.62742356852,
      "SliceThickness": 2.0,
      "SmallestImagePixelValue": 0,
      "SoftwareVersions": "syngo MR B19",
      "SpacingBetweenSlices": 2.0000000357085,
      "SpecificCharacterSet": "ISO_IR 100",
      "StudyID": "1",
      "StudyTime": "101209.687000",
      "TransmitCoilName": "Body",
      "VariableFlipAngleFlag": "N",
      "WindowCenterWidthExplanation": "Algo1",
      "dBdt": 0.0},
    "slices": {}
  },
  "time": {
    "samples": {
      "AcquisitionNumber": [1, 2, 3, 4, 5, 6, 7, 8, 9, 10, 11, 12, 13, 14, 15, 16, 17, 18, 19, 20, 21, 22, 23, 24, 25, 26, 27, 28, 29, 30, 31, 32, 33, 34, 35, 36, 37, 38, 39, 40, 41, 42, 43, 44, 45, 46, 47, 48, 49, 50, 51, 52, 53, 54, 55, 56, 57, 58, 59, 60, 61, 62, 63, 64, 65, 66, 67, 68, 69, 70, 71, 72, 73, 74, 75, 76, 77, 78, 79, 80, 81, 82, 83, 84, 85, 86, 87, 88, 89, 90, 91, 92, 93, 94, 95, 96, 97, 98, 99, 100, 101, 102, 103, 104, 105, 106, 107, 108, 109, 110, 111, 112, 113, 114, 115, 116, 117, 118, 119, 120, 121, 122, 123, 124, 125, 126, 127, 128, 129, 130, 131, 132, 133, 134, 135, 136, 137, 138, 139, 140, 141, 142, 143, 144, 145, 146, 147, 148, 149, 150, 151, 152, 153, 154, 155, 156, 157, 158, 159, 160, 161, 162, 163, 164, 165, 166, 167, 168, 169, 170, 171, 172, 173, 174, 175, 176, 177, 178, 179, 180, 181, 182, 183, 184, 185, 186, 187, 188, 189, 190, 191, 192, 193, 194, 195, 196, 197, 198, 199, 200, 201, 202, 203, 204, 205, 206, 207, 208, 209, 210, 211, 212, 213, 214, 215, 216, 217, 218, 219, 220, 221, 222, 223, 224, 225, 226, 227, 228, 229, 230, 231, 232, 233, 234, 235, 236, 237, 238, 239, 240, 241, 242, 243, 244, 245, 246, 247, 248, 249, 250, 251, 252, 253, 254, 255, 256, 257, 258, 259, 260, 261, 262, 263, 264, 265, 266, 267, 268, 269, 270, 271, 272, 273, 274, 275, 276, 277, 278, 279, 280, 281, 282, 283, 284, 285, 286, 287, 288, 289, 290, 291, 292, 293, 294, 295, 296, 297, 298, 299, 300, 301, 302, 303, 304, 305, 306, 307, 308, 309, 310, 311, 312, 313, 314, 315, 316, 317, 318, 319, 320, 321, 322, 323, 324, 325, 326, 327, 328, 329, 330, 331, 332, 333, 334, 335, 336, 337, 338, 339, 340, 341, 342, 343, 344, 345, 346, 347, 348, 349, 350, 351, 352, 353, 354, 355, 356, 357, 358, 359, 360, 361, 362, 363, 364, 365, 366, 367, 368, 369, 370, 371, 372, 373, 374, 375, 376, 377, 378, 379, 380, 381, 382, 383, 384, 385, 386, 387, 388, 389, 390, 391, 392, 393, 394, 395, 396, 397, 398, 399, 400, 401, 402, 403, 404, 405, 406, 407, 408, 409, 410, 411, 412, 413, 414, 415, 416, 417, 418, 419, 420, 421, 422, 423, 424, 425, 426, 427, 428, 429, 430, 431, 432, 433, 434, 435, 436, 437, 438, 439, 440, 441, 442, 443, 444, 445, 446, 447, 448, 449, 450, 451, 452, 453, 454, 455, 456, 457, 458, 459, 460, 461, 462, 463, 464, 465, 466, 467, 468, 469, 470, 471, 472, 473, 474, 475, 476, 477, 478, 479, 480, 481, 482, 483, 484, 485, 486, 487, 488, 489, 490, 491, 492, 493, 494, 495, 496, 497, 498, 499, 500, 501, 502, 503, 504, 505, 506, 507, 508, 509, 510, 511, 512, 513, 514, 515, 516, 517, 518, 519, 520, 521, 522, 523, 524, 525, 526, 527, 528, 529, 530, 531, 532, 533, 534, 535, 536, 537, 538, 539, 540, 541, 542, 543, 544, 545, 546, 547, 548, 549, 550, 551, 552, 553, 554, 555, 556, 557, 558, 559, 560, 561, 562, 563, 564, 565, 566, 567, 568, 569, 570, 571, 572, 573, 574, 575, 576, 577, 578, 579, 580, 581],
      "AcquisitionTime": ["110932.735000", "110933.522500", "110934.310000", "110935.100000", "110935.887500", "110936.675000", "110937.465000", "110938.252500", "110939.040000", "110939.827500", "110940.617500", "110941.405000", "110942.192500", "110942.980000", "110943.770000", "110944.557500", "110945.345000", "110946.132500", "110946.922500", "110947.710000", "110948.497500", "110949.285000", "110950.075000", "110950.862500", "110951.650000", "110952.437500", "110953.227500", "110954.015000", "110954.802500", "110955.592500", "110956.380000", "110957.167500", "110957.955000", "110958.745000", "110959.532500", "111000.320000", "111001.107500", "111001.897500", "111002.685000", "111003.472500", "111004.260000", "111005.050000", "111005.837500", "111006.625000", "111007.412500", "111008.202500", "111008.990000", "111009.777500", "111010.565000", "111011.355000", "111012.142500", "111012.930000", "111013.720000", "111014.507500", "111015.295000", "111016.082500", "111016.872500", "111017.660000", "111018.447500", "111019.235000", "111020.025000", "111020.812500", "111021.600000", "111022.387500", "111023.177500", "111023.965000", "111024.752500", "111025.540000", "111026.330000", "111027.117500", "111027.905000", "111028.692500", "111029.482500", "111030.270000", "111031.057500", "111031.847500", "111032.635000", "111033.422500", "111034.210000", "111035.000000", "111035.787500", "111036.575000", "111037.362500", "111038.152500", "111038.940000", "111039.727500", "111040.515000", "111041.305000", "111042.092500", "111042.880000", "111043.667500", "111044.457500", "111045.245000", "111046.032500", "111046.820000", "111047.610000", "111048.397500", "111049.185000", "111049.975000", "111050.762500", "111051.550000", "111052.337500", "111053.127500", "111053.915000", "111054.702500", "111055.490000", "111056.280000", "111057.067500", "111057.855000", "111058.642500", "111059.432500", "111100.220000", "111101.007500", "111101.795000", "111102.585000", "111103.372500", "111104.160000", "111104.947500", "111105.737500", "111106.525000", "111107.312500", "111108.102500", "111108.890000", "111109.677500", "111110.465000", "111111.255000", "111112.042500", "111112.830000", "111113.617500", "111114.407500", "111115.195000", "111115.982500", "111116.770000", "111117.560000", "111118.347500", "111119.135000", "111119.922500", "111120.712500", "111121.500000", "111122.287500", "111123.075000", "111123.865000", "111124.652500", "111125.440000", "111126.230000", "111127.017500", "111127.805000", "111128.592500", "111129.382500", "111130.170000", "111130.957500", "111131.745000", "111132.535000", "111133.322500", "111134.110000", "111134.897500", "111135.687500", "111136.475000", "111137.262500", "111138.050000", "111138.840000", "111139.627500", "111140.415000", "111141.202500", "111141.992500", "111142.780000", "111143.567500", "111144.357500", "111145.145000", "111145.932500", "111146.720000", "111147.510000", "111148.297500", "111149.085000", "111149.872500", "111150.662500", "111151.450000", "111152.237500", "111153.025000", "111153.815000", "111154.602500", "111155.390000", "111156.177500", "111156.967500", "111157.755000", "111158.542500", "111159.330000", "111200.120000", "111200.907500", "111201.695000", "111202.485000", "111203.272500", "111204.060000", "111204.847500", "111205.637500", "111206.425000", "111207.212500", "111208.000000", "111208.790000", "111209.577500", "111210.365000", "111211.152500", "111211.942500", "111212.730000", "111213.517500", "111214.305000", "111215.095000", "111215.882500", "111216.670000", "111217.457500", "111218.247500", "111219.035000", "111219.822500", "111220.612500", "111221.400000", "111222.187500", "111222.975000", "111223.765000", "111224.552500", "111225.340000", "111226.127500", "111226.917500", "111227.705000", "111228.492500", "111229.280000", "111230.070000", "111230.857500", "111231.645000", "111232.432500", "111233.222500", "111234.010000", "111234.797500", "111235.587500", "111236.375000", "111237.162500", "111237.950000", "111238.740000", "111239.527500", "111240.315000", "111241.102500", "111241.892500", "111242.680000", "111243.467500", "111244.255000", "111245.045000", "111245.832500", "111246.620000", "111247.407500", "111248.197500", "111248.985000", "111249.772500", "111250.560000", "111251.350000", "111252.137500", "111252.925000", "111253.715000", "111254.502500", "111255.290000", "111256.077500", "111256.867500", "111257.655000", "111258.442500", "111259.230000", "111300.020000", "111300.807500", "111301.595000", "111302.382500", "111303.172500", "111303.960000", "111304.747500", "111305.535000", "111306.325000", "111307.112500", "111307.900000", "111308.687500", "111309.477500", "111310.265000", "111311.052500", "111311.842500", "111312.630000", "111313.417500", "111314.205000", "111314.995000", "111315.782500", "111316.570000", "111317.357500", "111318.147500", "111318.935000", "111319.722500", "111320.510000", "111321.300000", "111322.087500", "111322.875000", "111323.662500", "111324.452500", "111325.240000", "111326.027500", "111326.815000", "111327.605000", "111328.392500", "111329.180000", "111329.970000", "111330.757500", "111331.545000", "111332.332500", "111333.122500", "111333.910000", "111334.697500", "111335.485000", "111336.275000", "111337.062500", "111337.850000", "111338.637500", "111339.427500", "111340.215000", "111341.002500", "111341.790000", "111342.580000", "111343.367500", "111344.155000", "111344.942500", "111345.732500", "111346.520000", "111347.307500", "111348.097500", "111348.885000", "111349.672500", "111350.460000", "111351.250000", "111352.037500", "111352.825000", "111353.612500", "111354.402500", "111355.190000", "111355.977500", "111356.765000", "111357.555000", "111358.342500", "111359.130000", "111359.917500", "111400.707500", "111401.495000", "111402.282500", "111403.070000", "111403.860000", "111404.647500", "111405.435000", "111406.225000", "111407.012500", "111407.800000", "111408.587500", "111409.377500", "111410.165000", "111410.952500", "111411.740000", "111412.530000", "111413.317500", "111414.105000", "111414.892500", "111415.682500", "111416.470000", "111417.257500", "111418.045000", "111418.835000", "111419.622500", "111420.410000", "111421.197500", "111421.987500", "111422.775000", "111423.562500", "111424.352500", "111425.140000", "111425.927500", "111426.715000", "111427.505000", "111428.292500", "111429.080000", "111429.867500", "111430.657500", "111431.445000", "111432.232500", "111433.020000", "111433.810000", "111434.597500", "111435.385000", "111436.172500", "111436.962500", "111437.750000", "111438.537500", "111439.325000", "111440.115000", "111440.902500", "111441.690000", "111442.480000", "111443.267500", "111444.055000", "111444.842500", "111445.632500", "111446.420000", "111447.207500", "111447.995000", "111448.785000", "111449.572500", "111450.360000", "111451.147500", "111451.937500", "111452.725000", "111453.512500", "111454.300000", "111455.090000", "111455.877500", "111456.665000", "111457.452500", "111458.242500", "111459.030000", "111459.817500", "111500.607500", "111501.395000", "111502.182500", "111502.970000", "111503.760000", "111504.547500", "111505.335000", "111506.122500", "111506.912500", "111507.700000", "111508.487500", "111509.275000", "111510.065000", "111510.852500", "111511.640000", "111512.427500", "111513.217500", "111514.005000", "111514.792500", "111515.580000", "111516.370000", "111517.157500", "111517.945000", "111518.735000", "111519.522500", "111520.310000", "111521.097500", "111521.887500", "111522.675000", "111523.462500", "111524.250000", "111525.040000", "111525.827500", "111526.615000", "111527.402500", "111528.192500", "111528.980000", "111529.767500", "111530.555000", "111531.345000", "111532.132500", "111532.920000", "111533.707500", "111534.497500", "111535.285000", "111536.072500", "111536.862500", "111537.650000", "111538.437500", "111539.225000", "111540.015000", "111540.802500", "111541.590000", "111542.377500", "111543.167500", "111543.955000", "111544.742500", "111545.530000", "111546.320000", "111547.107500", "111547.895000", "111548.682500", "111549.472500", "111550.260000", "111551.047500", "111551.837500", "111552.625000", "111553.412500", "111554.200000", "111554.990000", "111555.777500", "111556.565000", "111557.352500", "111558.142500", "111558.930000", "111559.717500", "111600.505000", "111601.295000", "111602.082500", "111602.870000", "111603.657500", "111604.447500", "111605.235000", "111606.022500", "111606.810000", "111607.600000", "111608.387500", "111609.175000", "111609.965000", "111610.752500", "111611.540000", "111612.327500", "111613.117500", "111613.905000", "111614.692500", "111615.480000", "111616.270000", "111617.057500", "111617.845000", "111618.632500", "111619.422500", "111620.210000", "111620.997500", "111621.785000", "111622.575000", "111623.362500", "111624.150000", "111624.937500", "111625.727500", "111626.515000", "111627.302500", "111628.092500", "111628.880000", "111629.667500", "111630.455000", "111631.245000", "111632.032500", "111632.820000", "111633.607500", "111634.397500", "111635.185000", "111635.972500", "111636.760000", "111637.550000", "111638.337500", "111639.125000", "111639.912500", "111640.702500", "111641.490000", "111642.277500", "111643.065000", "111643.855000", "111644.642500", "111645.430000", "111646.220000", "111647.007500", "111647.795000", "111648.582500", "111649.372500", "111650.160000", "111650.947500", "111651.735000", "111652.525000", "111653.312500", "111654.100000", "111654.887500", "111655.677500", "111656.465000", "111657.252500", "111658.040000", "111658.830000", "111659.617500", "111700.405000", "111701.192500", "111701.982500", "111702.770000", "111703.557500", "111704.347500", "111705.135000", "111705.922500", "111706.710000", "111707.500000", "111708.287500", "111709.075000", "111709.862500"],
      "ContentTime": ["111009.125000", "111009.125000", "111009.125000", "111009.125000", "111009.125000", "111009.125000", "111009.125000", "111009.125000", "111009.140000", "111009.140000", "111009.140000", "111009.140000", "111009.140000", "111009.140000", "111009.140000", "111009.156000", "111009.156000", "111009.156000", "111009.156000", "111009.156000", "111009.156000", "111009.171000", "111009.171000", "111009.171000", "111009.171000", "111009.171000", "111009.171000", "111009.171000", "111009.187000", "111009.187000", "111009.187000", "111009.187000", "111009.187000", "111009.187000", "111009.187000", "111009.203000", "111009.203000", "111009.203000", "111009.203000", "111009.203000", "111009.203000", "111009.218000", "111009.218000", "111029.093000", "111029.093000", "111029.093000", "111029.093000", "111029.109000", "111029.109000", "111029.109000", "111029.109000", "111029.109000", "111029.125000", "111029.125000", "111029.125000", "111029.140000", "111029.140000", "111029.140000", "111029.140000", "111029.140000", "111029.140000", "111029.140000", "111029.156000", "111029.156000", "111029.156000", "111029.156000", "111029.156000", "111029.156000", "111049.093000", "111049.109000", "111049.109000", "111049.109000", "111049.109000", "111049.109000", "111049.109000", "111049.109000", "111049.125000", "111049.125000", "111049.125000", "111049.125000", "111049.125000", "111049.125000", "111049.125000", "111049.125000", "111049.140000", "111049.140000", "111049.140000", "111049.140000", "111049.140000", "111049.140000", "111049.140000", "111049.140000", "111049.156000", "111049.156000", "111109.093000", "111109.093000", "111109.093000", "111109.093000", "111109.093000", "111109.109000", "111109.109000", "111109.109000", "111109.109000", "111109.109000", "111109.109000", "111109.109000", "111109.125000", "111109.125000", "111109.125000", "111109.125000", "111109.125000", "111109.125000", "111109.125000", "111109.140000", "111109.140000", "111109.140000", "111109.140000", "111109.140000", "111109.140000", "111129.093000", "111129.093000", "111129.093000", "111129.093000", "111129.093000", "111129.109000", "111129.109000", "111129.109000", "111129.109000", "111129.109000", "111129.109000", "111129.109000", "111129.125000", "111129.125000", "111129.125000", "111129.125000", "111129.125000", "111129.125000", "111129.140000", "111129.140000", "111129.140000", "111129.140000", "111129.140000", "111129.140000", "111129.156000", "111129.156000", "111149.093000", "111149.093000", "111149.093000", "111149.093000", "111149.093000", "111149.109000", "111149.109000", "111149.109000", "111149.109000", "111149.109000", "111149.109000", "111149.109000", "111149.125000", "111149.125000", "111149.125000", "111149.125000", "111149.125000", "111149.125000", "111149.125000", "111149.140000", "111149.140000", "111149.140000", "111149.140000", "111149.140000", "111149.140000", "111209.093000", "111209.093000", "111209.093000", "111209.093000", "111209.093000", "111209.109000", "111209.109000", "111209.109000", "111209.109000", "111209.109000", "111209.109000", "111209.109000", "111209.125000", "111209.125000", "111209.125000", "111209.125000", "111209.125000", "111209.125000", "111209.125000", "111209.140000", "111209.140000", "111209.140000", "111209.140000", "111209.140000", "111209.140000", "111209.140000", "111229.093000", "111229.093000", "111229.093000", "111229.093000", "111229.109000", "111229.109000", "111229.109000", "111229.109000", "111229.109000", "111229.109000", "111229.109000", "111229.125000", "111229.125000", "111229.125000", "111229.125000", "111229.125000", "111229.125000", "111229.125000", "111229.125000", "111229.140000", "111229.140000", "111229.140000", "111229.140000", "111229.140000", "111229.140000", "111249.093000", "111249.093000", "111249.093000", "111249.093000", "111249.109000", "111249.109000", "111249.109000", "111249.109000", "111249.109000", "111249.109000", "111249.109000", "111249.109000", "111249.125000", "111249.125000", "111249.125000", "111249.125000", "111249.125000", "111249.125000", "111249.125000", "111249.140000", "111249.140000", "111249.140000", "111249.140000", "111249.140000", "111249.156000", "111249.156000", "111309.093000", "111309.093000", "111309.093000", "111309.093000", "111309.093000", "111309.109000", "111309.109000", "111309.109000", "111309.109000", "111309.109000", "111309.109000", "111309.109000", "111309.125000", "111309.125000", "111309.125000", "111309.125000", "111309.125000", "111309.125000", "111309.125000", "111309.125000", "111309.140000", "111309.140000", "111309.140000", "111309.140000", "111309.140000", "111329.093000", "111329.093000", "111329.093000", "111329.093000", "111329.109000", "111329.109000", "111329.109000", "111329.109000", "111329.109000", "111329.109000", "111329.109000", "111329.109000", "111329.125000", "111329.125000", "111329.125000", "111329.125000", "111329.125000", "111329.125000", "111329.125000", "111329.140000", "111329.140000", "111329.140000", "111329.140000", "111329.140000", "111329.140000", "111329.140000", "111349.093000", "111349.093000", "111349.093000", "111349.093000", "111349.109000", "111349.109000", "111349.109000", "111349.109000", "111349.109000", "111349.109000", "111349.109000", "111349.109000", "111349.125000", "111349.125000", "111349.125000", "111349.125000", "111349.125000", "111349.125000", "111349.125000", "111349.140000", "111349.140000", "111349.140000", "111349.140000", "111349.140000", "111349.140000", "111409.093000", "111409.093000", "111409.093000", "111409.093000", "111409.093000", "111409.109000", "111409.109000", "111409.109000", "111409.109000", "111409.109000", "111409.109000", "111409.109000", "111409.125000", "111409.125000", "111409.125000", "111409.125000", "111409.125000", "111409.125000", "111409.125000", "111409.125000", "111409.140000", "111409.140000", "111409.140000", "111409.140000", "111409.140000", "111409.140000", "111429.093000", "111429.093000", "111429.093000", "111429.093000", "111429.109000", "111429.109000", "111429.109000", "111429.109000", "111429.109000", "111429.109000", "111429.109000", "111429.109000", "111429.125000", "111429.125000", "111429.125000", "111429.125000", "111429.125000", "111429.125000", "111429.125000", "111429.140000", "111429.140000", "111429.140000", "111429.140000", "111429.140000", "111429.140000", "111449.093000", "111449.093000", "111449.093000", "111449.093000", "111449.109000", "111449.109000", "111449.109000", "111449.109000", "111449.109000", "111449.109000", "111449.109000", "111449.125000", "111449.125000", "111449.125000", "111449.125000", "111449.125000", "111449.125000", "111449.125000", "111449.125000", "111449.140000", "111449.140000", "111449.140000", "111449.140000", "111449.140000", "111449.140000", "111449.140000", "111509.093000", "111509.093000", "111509.093000", "111509.109000", "111509.109000", "111509.109000", "111509.109000", "111509.109000", "111509.109000", "111509.125000", "111509.125000", "111509.125000", "111509.125000", "111509.125000", "111509.125000", "111509.125000", "111509.125000", "111509.140000", "111509.140000", "111509.140000", "111509.140000", "111509.140000", "111509.140000", "111509.140000", "111509.140000", "111529.093000", "111529.093000", "111529.093000", "111529.093000", "111529.093000", "111529.109000", "111529.109000", "111529.109000", "111529.109000", "111529.109000", "111529.109000", "111529.109000", "111529.125000", "111529.125000", "111529.125000", "111529.125000", "111529.125000", "111529.125000", "111529.125000", "111529.125000", "111529.140000", "111529.140000", "111529.140000", "111529.140000", "111529.140000", "111529.140000", "111549.093000", "111549.093000", "111549.093000", "111549.093000", "111549.093000", "111549.109000", "111549.109000", "111549.109000", "111549.109000", "111549.109000", "111549.109000", "111549.109000", "111549.125000", "111549.125000", "111549.125000", "111549.125000", "111549.125000", "111549.125000", "111549.125000", "111549.140000", "111549.140000", "111549.140000", "111549.140000", "111549.140000", "111549.140000", "111609.093000", "111609.093000", "111609.093000", "111609.093000", "111609.109000", "111609.109000", "111609.109000", "111609.109000", "111609.109000", "111609.125000", "111609.125000", "111609.125000", "111609.125000", "111609.125000", "111609.125000", "111609.125000", "111609.140000", "111609.140000", "111609.140000", "111609.140000", "111609.140000", "111609.140000", "111609.140000", "111609.156000", "111609.156000", "111609.156000", "111629.093000", "111629.093000", "111629.093000", "111629.093000", "111629.109000", "111629.109000", "111629.109000", "111629.109000", "111629.109000", "111629.109000", "111629.109000", "111629.109000", "111629.125000", "111629.125000", "111629.125000", "111629.125000", "111629.125000", "111629.125000", "111629.125000", "111629.140000", "111629.140000", "111629.140000", "111629.140000", "111629.140000", "111629.140000", "111649.093000", "111649.093000", "111649.093000", "111649.093000", "111649.109000", "111649.109000", "111649.109000", "111649.109000", "111649.109000", "111649.109000", "111649.109000", "111649.109000", "111649.125000", "111649.125000", "111649.125000", "111649.125000", "111649.125000", "111649.125000", "111649.125000", "111649.125000", "111649.140000", "111649.140000", "111649.140000", "111649.140000", "111649.140000", "111649.140000", "111709.093000", "111709.093000", "111709.093000", "111709.093000", "111709.109000", "111709.109000", "111709.109000", "111709.109000", "111709.109000", "111709.109000", "111709.109000", "111709.109000", "111709.125000", "111709.125000", "111709.125000", "111709.125000", "111709.125000", "111709.125000", "111709.125000", "111709.125000", "111709.140000", "111709.140000", "111709.140000", "111709.140000", "111709.140000", "111710.953000", "111710.953000", "111710.968000"],
