{
  "AcquisitionMatrixPE": 104,
  "AcquisitionNumber": 1,
  "AcquisitionTime": "10:37:49.010000",
  "BandwidthPerPixelPhaseEncode": 13.935,
  "BaseResolution": 104,
  "CoilString": "C:HEA;HEP",
  "ConversionSoftware": "dcm2niix",
  "ConversionSoftwareVersion": "v1.0.20210317",
  "DerivedVendorReportedEchoSpacing": 0.000690017,
  "DeviceSerialNumber": "35450",
  "DwellTime": 2.5e-06,
  "EchoTime": 0.0348,
  "EffectiveEchoSpacing": 0.000690017,
  "FlipAngle": 55,
  "ImageComments": "Unaliased MB8/PE3 (remote)",
  "ImageOrientationPatientDICOM": [1, 0, 0, 0, 0.995056, -0.0993197],
  "ImageType": [
    "ORIGINAL",
    "PRIMARY",
    "M",
    "MB",
    "ND",
    "MOSAIC"
],
  "ImagingFrequency": 123.234,
  "InPlanePhaseEncodingDirectionDICOM": "COL",
  "InstitutionAddress": "Univeristy Ave. 197,Newark,North East,US,07102-1814",
  "InstitutionName": "RUBIC",
  "InstitutionalDepartmentName": "Department",
  "MRAcquisitionType": "2D",
  "MagneticFieldStrength": 3,
  "Manufacturer": "Siemens",
  "ManufacturersModelName": "TrioTim",
  "Modality": "MR",
  "MultibandAccelerationFactor": 8,
  "PartialFourier": 0.875,
  "PatientPosition": "HFS",
  "PercentPhaseFOV": 100,
  "PercentSampling": 100,
  "PhaseEncodingDirection": "j-",
  "PhaseEncodingSteps": 91,
  "PhaseResolution": 1,
  "PixelBandwidth": 1923,
  "ProcedureStepDescription": "Cole^Michael",
  "ProtocolName": "cmrr_mbep2d_bold_2mm_MB8_Rest",
  "PulseSequenceDetails": "%CustomerSeq%\\cmrr_mbep2d_bold",
  "ReceiveCoilName": "32Ch_Head",
  "ReconMatrixPE": 104,
  "RepetitionTime": 0.785,
  "SAR": 0.147792,
  "ScanOptions": "PFP\\FS",
  "ScanningSequence": "EP",
  "SequenceName": "epfid2d1_104",
  "SequenceVariant": "SK\\SS",
  "SeriesDescription": "cmrr_mbep2d_bold_2mm_MB8_Rest",
  "SeriesNumber": 9,
  "ShimSetting": [2120, -387, -7269, 507, -26, -299, -56, 123],
  "SliceThickness": 2,
  "SliceTiming": [0, 0.4375, 0.0875, 0.525, 0.175, 0.6125, 0.2625, 0.7, 0.35, 0, 0.4375, 0.0875, 0.525, 0.175, 0.6125, 0.2625, 0.7, 0.35, 0, 0.4375, 0.0875, 0.525, 0.175, 0.6125, 0.2625, 0.7, 0.35, 0, 0.4375, 0.0875, 0.525, 0.175, 0.6125, 0.2625, 0.7, 0.35, 0, 0.4375, 0.0875, 0.525, 0.175, 0.6125, 0.2625, 0.7, 0.35, 0, 0.4375, 0.0875, 0.525, 0.175, 0.6125, 0.2625, 0.7, 0.35, 0, 0.4375, 0.0875, 0.525, 0.175, 0.6125, 0.2625, 0.7, 0.35, 0, 0.4375, 0.0875, 0.525, 0.175, 0.6125, 0.2625, 0.7, 0.35],
  "SoftwareVersions": "syngo MR B19",
  "SpacingBetweenSlices": 2,
  "StationName": "MRC35450",
  "TaskName": "rest",
  "TotalReadoutTime": 0.0710717,
  "TxRefAmp": 337.104,
  "dcmmeta_affine": [
    [-2.0, 0.0, 0.0, 104.0],
    [0.0, 1.9901111125946045, -0.19863949716091156, -77.97496795654297],
    [0.0, 0.19863949716091156, 1.990111231803894, -111.92528533935547],
    [0.0, 0.0, 0.0, 1.0]
],
  "dcmmeta_reorient_transform": [
    [0.0, -1.0, 0.0, 103.0],
    [1.0, 0.0, 0.0, 0.0],
    [0.0, 0.0, 1.0, 0.0],
    [0.0, 0.0, 0.0, 1.0]
],
  "dcmmeta_shape": [104, 104, 72, 1070],
  "dcmmeta_slice_dim": 2,
  "dcmmeta_version": 0.6,
  "global": {
    "const": {
      "AcquisitionMatrix": [104, 0, 0, 104],
      "AngioFlag": "N",
      "BitsAllocated": 16,
      "BitsStored": 12,
      "Columns": 936,
      "EchoNumbers": 1,
      "EchoTime": 34.8,
      "EchoTrainLength": 1,
      "FlipAngle": 55.0,
      "HighBit": 11,
      "ImageOrientationPatient": [1.0, 0.0, 0.0, 0.0, 0.9950555699221, -0.0993197501357],
      "ImagePositionPatient": [-936.0, -954.8927139018, -8.8313839780102],
      "ImageType": [
        "ORIGINAL",
        "PRIMARY",
        "M",
        "MB",
        "ND",
        "MOSAIC"
],
      "ImagedNucleus": "1H",
      "ImagingFrequency": 123.234496,
      "InPlanePhaseEncodingDirection": "COL",
      "MRAcquisitionType": "2D",
      "MagneticFieldStrength": 3.0,
      "Manufacturer": "SIEMENS",
      "ManufacturerModelName": "TrioTim",
      "Modality": "MR",
      "NumberOfAverages": 1.0,
      "NumberOfPhaseEncodingSteps": 91,
      "PercentPhaseFieldOfView": 100.0,
      "PercentSampling": 100.0,
      "PerformedProcedureStepStartTime": "101209.765000",
      "PhotometricInterpretation": "MONOCHROME2",
      "PixelBandwidth": 1923.0,
      "PixelRepresentation": 0,
      "PixelSpacing": [2.0, 2.0],
      "ProtocolName": "cmrr_mbep2d_bold_2mm_MB8_Rest",
      "RepetitionTime": 785.0,
      "Rows": 936,
      "SAR": 0.14779228623959,
      "SamplesPerPixel": 1,
      "ScanOptions": [
        "PFP",
        "FS"
],
      "ScanningSequence": "EP",
      "SequenceName": "epfid2d1_104",
      "SequenceVariant": [
        "SK",
        "SS"
],
      "SeriesDescription": "cmrr_mbep2d_bold_2mm_MB8_Rest",
      "SeriesNumber": 9,
      "SeriesTime": "103809.125000",
      "SliceLocation": -103.62742356852,
      "SliceThickness": 2.0,
      "SmallestImagePixelValue": 0,
      "SoftwareVersions": "syngo MR B19",
      "SpacingBetweenSlices": 2.0000000357085,
      "SpecificCharacterSet": "ISO_IR 100",
      "StudyID": "1",
      "StudyTime": "101209.687000",
      "TransmitCoilName": "Body",
      "VariableFlipAngleFlag": "N",
      "WindowCenterWidthExplanation": "Algo1",
      "dBdt": 0.0},
    "slices": {}
  },
  "time": {
    "samples": {
      "AcquisitionNumber": [1, 2, 3, 4, 5, 6, 7, 8, 9, 10, 11, 12, 13, 14, 15, 16, 17, 18, 19, 20, 21, 22, 23, 24, 25, 26, 27, 28, 29, 30, 31, 32, 33, 34, 35, 36, 37, 38, 39, 40, 41, 42, 43, 44, 45, 46, 47, 48, 49, 50, 51, 52, 53, 54, 55, 56, 57, 58, 59, 60, 61, 62, 63, 64, 65, 66, 67, 68, 69, 70, 71, 72, 73, 74, 75, 76, 77, 78, 79, 80, 81, 82, 83, 84, 85, 86, 87, 88, 89, 90, 91, 92, 93, 94, 95, 96, 97, 98, 99, 100, 101, 102, 103, 104, 105, 106, 107, 108, 109, 110, 111, 112, 113, 114, 115, 116, 117, 118, 119, 120, 121, 122, 123, 124, 125, 126, 127, 128, 129, 130, 131, 132, 133, 134, 135, 136, 137, 138, 139, 140, 141, 142, 143, 144, 145, 146, 147, 148, 149, 150, 151, 152, 153, 154, 155, 156, 157, 158, 159, 160, 161, 162, 163, 164, 165, 166, 167, 168, 169, 170, 171, 172, 173, 174, 175, 176, 177, 178, 179, 180, 181, 182, 183, 184, 185, 186, 187, 188, 189, 190, 191, 192, 193, 194, 195, 196, 197, 198, 199, 200, 201, 202, 203, 204, 205, 206, 207, 208, 209, 210, 211, 212, 213, 214, 215, 216, 217, 218, 219, 220, 221, 222, 223, 224, 225, 226, 227, 228, 229, 230, 231, 232, 233, 234, 235, 236, 237, 238, 239, 240, 241, 242, 243, 244, 245, 246, 247, 248, 249, 250, 251, 252, 253, 254, 255, 256, 257, 258, 259, 260, 261, 262, 263, 264, 265, 266, 267, 268, 269, 270, 271, 272, 273, 274, 275, 276, 277, 278, 279, 280, 281, 282, 283, 284, 285, 286, 287, 288, 289, 290, 291, 292, 293, 294, 295, 296, 297, 298, 299, 300, 301, 302, 303, 304, 305, 306, 307, 308, 309, 310, 311, 312, 313, 314, 315, 316, 317, 318, 319, 320, 321, 322, 323, 324, 325, 326, 327, 328, 329, 330, 331, 332, 333, 334, 335, 336, 337, 338, 339, 340, 341, 342, 343, 344, 345, 346, 347, 348, 349, 350, 351, 352, 353, 354, 355, 356, 357, 358, 359, 360, 361, 362, 363, 364, 365, 366, 367, 368, 369, 370, 371, 372, 373, 374, 375, 376, 377, 378, 379, 380, 381, 382, 383, 384, 385, 386, 387, 388, 389, 390, 391, 392, 393, 394, 395, 396, 397, 398, 399, 400, 401, 402, 403, 404, 405, 406, 407, 408, 409, 410, 411, 412, 413, 414, 415, 416, 417, 418, 419, 420, 421, 422, 423, 424, 425, 426, 427, 428, 429, 430, 431, 432, 433, 434, 435, 436, 437, 438, 439, 440, 441, 442, 443, 444, 445, 446, 447, 448, 449, 450, 451, 452, 453, 454, 455, 456, 457, 458, 459, 460, 461, 462, 463, 464, 465, 466, 467, 468, 469, 470, 471, 472, 473, 474, 475, 476, 477, 478, 479, 480, 481, 482, 483, 484, 485, 486, 487, 488, 489, 490, 491, 492, 493, 494, 495, 496, 497, 498, 499, 500, 501, 502, 503, 504, 505, 506, 507, 508, 509, 510, 511, 512, 513, 514, 515, 516, 517, 518, 519, 520, 521, 522, 523, 524, 525, 526, 527, 528, 529, 530, 531, 532, 533, 534, 535, 536, 537, 538, 539, 540, 541, 542, 543, 544, 545, 546, 547, 548, 549, 550, 551, 552, 553, 554, 555, 556, 557, 558, 559, 560, 561, 562, 563, 564, 565, 566, 567, 568, 569, 570, 571, 572, 573, 574, 575, 576, 577, 578, 579, 580, 581, 582, 583, 584, 585, 586, 587, 588, 589, 590, 591, 592, 593, 594, 595, 596, 597, 598, 599, 600, 601, 602, 603, 604, 605, 606, 607, 608, 609, 610, 611, 612, 613, 614, 615, 616, 617, 618, 619, 620, 621, 622, 623, 624, 625, 626, 627, 628, 629, 630, 631, 632, 633, 634, 635, 636, 637, 638, 639, 640, 641, 642, 643, 644, 645, 646, 647, 648, 649, 650, 651, 652, 653, 654, 655, 656, 657, 658, 659, 660, 661, 662, 663, 664, 665, 666, 667, 668, 669, 670, 671, 672, 673, 674, 675, 676, 677, 678, 679, 680, 681, 682, 683, 684, 685, 686, 687, 688, 689, 690, 691, 692, 693, 694, 695, 696, 697, 698, 699, 700, 701, 702, 703, 704, 705, 706, 707, 708, 709, 710, 711, 712, 713, 714, 715, 716, 717, 718, 719, 720, 721, 722, 723, 724, 725, 726, 727, 728, 729, 730, 731, 732, 733, 734, 735, 736, 737, 738, 739, 740, 741, 742, 743, 744, 745, 746, 747, 748, 749, 750, 751, 752, 753, 754, 755, 756, 757, 758, 759, 760, 761, 762, 763, 764, 765, 766, 767, 768, 769, 770, 771, 772, 773, 774, 775, 776, 777, 778, 779, 780, 781, 782, 783, 784, 785, 786, 787, 788, 789, 790, 791, 792, 793, 794, 795, 796, 797, 798, 799, 800, 801, 802, 803, 804, 805, 806, 807, 808, 809, 810, 811, 812, 813, 814, 815, 816, 817, 818, 819, 820, 821, 822, 823, 824, 825, 826, 827, 828, 829, 830, 831, 832, 833, 834, 835, 836, 837, 838, 839, 840, 841, 842, 843, 844, 845, 846, 847, 848, 849, 850, 851, 852, 853, 854, 855, 856, 857, 858, 859, 860, 861, 862, 863, 864, 865, 866, 867, 868, 869, 870, 871, 872, 873, 874, 875, 876, 877, 878, 879, 880, 881, 882, 883, 884, 885, 886, 887, 888, 889, 890, 891, 892, 893, 894, 895, 896, 897, 898, 899, 900, 901, 902, 903, 904, 905, 906, 907, 908, 909, 910, 911, 912, 913, 914, 915, 916, 917, 918, 919, 920, 921, 922, 923, 924, 925, 926, 927, 928, 929, 930, 931, 932, 933, 934, 935, 936, 937, 938, 939, 940, 941, 942, 943, 944, 945, 946, 947, 948, 949, 950, 951, 952, 953, 954, 955, 956, 957, 958, 959, 960, 961, 962, 963, 964, 965, 966, 967, 968, 969, 970, 971, 972, 973, 974, 975, 976, 977, 978, 979, 980, 981, 982, 983, 984, 985, 986, 987, 988, 989, 990, 991, 992, 993, 994, 995, 996, 997, 998, 999, 1000, 1001, 1002, 1003, 1004, 1005, 1006, 1007, 1008, 1009, 1010, 1011, 1012, 1013, 1014, 1015, 1016, 1017, 1018, 1019, 1020, 1021, 1022, 1023, 1024, 1025, 1026, 1027, 1028, 1029, 1030, 1031, 1032, 1033, 1034, 1035, 1036, 1037, 1038, 1039, 1040, 1041, 1042, 1043, 1044, 1045, 1046, 1047, 1048, 1049, 1050, 1051, 1052, 1053, 1054, 1055, 1056, 1057, 1058, 1059, 1060, 1061, 1062, 1063, 1064, 1065, 1066, 1067, 1068, 1069, 1070],
      "AcquisitionTime": ["103749.010000", "103749.797500", "103750.585000", "103751.375000", "103752.162500", "103752.950000", "103753.737500", "103754.527500", "103755.315000", "103756.102500", "103756.890000", "103757.680000", "103758.467500", "103759.255000", "103800.045000", "103800.832500", "103801.620000", "103802.407500", "103803.197500", "103803.985000", "103804.772500", "103805.560000", "103806.350000", "103807.137500", "103807.925000", "103808.712500", "103809.502500", "103810.290000", "103811.077500", "103811.865000", "103812.655000", "103813.442500", "103814.230000", "103815.020000", "103815.807500", "103816.595000", "103817.382500", "103818.172500", "103818.960000", "103819.747500", "103820.535000", "103821.325000", "103822.112500", "103822.900000", "103823.687500", "103824.477500", "103825.265000", "103826.052500", "103826.840000", "103827.630000", "103828.417500", "103829.205000", "103829.992500", "103830.782500", "103831.570000", "103832.357500", "103833.147500", "103833.935000", "103834.722500", "103835.510000", "103836.300000", "103837.087500", "103837.875000", "103838.662500", "103839.452500", "103840.240000", "103841.027500", "103841.815000", "103842.605000", "103843.392500", "103844.180000", "103844.967500", "103845.757500", "103846.545000", "103847.332500", "103848.120000", "103848.910000", "103849.697500", "103850.485000", "103851.275000", "103852.062500", "103852.850000", "103853.637500", "103854.427500", "103855.215000", "103856.002500", "103856.790000", "103857.580000", "103858.367500", "103859.155000", "103859.942500", "103900.732500", "103901.520000", "103902.307500", "103903.095000", "103903.885000", "103904.672500", "103905.460000", "103906.247500", "103907.037500", "103907.825000", "103908.612500", "103909.402500", "103910.190000", "103910.977500", "103911.765000", "103912.555000", "103913.342500", "103914.130000", "103914.917500", "103915.707500", "103916.495000", "103917.282500", "103918.070000", "103918.860000", "103919.647500", "103920.435000", "103921.222500", "103922.012500", "103922.800000", "103923.587500", "103924.375000", "103925.165000", "103925.952500", "103926.740000", "103927.530000", "103928.317500", "103929.105000", "103929.892500", "103930.682500", "103931.470000", "103932.257500", "103933.045000", "103933.835000", "103934.622500", "103935.410000", "103936.197500", "103936.987500", "103937.775000", "103938.562500", "103939.350000", "103940.140000", "103940.927500", "103941.715000", "103942.502500", "103943.292500", "103944.080000", "103944.867500", "103945.657500", "103946.445000", "103947.232500", "103948.020000", "103948.810000", "103949.597500", "103950.385000", "103951.172500", "103951.962500", "103952.750000", "103953.537500", "103954.325000", "103955.115000", "103955.902500", "103956.690000", "103957.477500", "103958.267500", "103959.055000", "103959.842500", "104000.630000", "104001.420000", "104002.207500", "104002.995000", "104003.785000", "104004.572500", "104005.360000", "104006.147500", "104006.937500", "104007.725000", "104008.512500", "104009.300000", "104010.090000", "104010.877500", "104011.665000", "104012.452500", "104013.242500", "104014.030000", "104014.817500", "104015.605000", "104016.395000", "104017.182500", "104017.970000", "104018.757500", "104019.547500", "104020.335000", "104021.122500", "104021.912500", "104022.700000", "104023.487500", "104024.275000", "104025.065000", "104025.852500", "104026.640000", "104027.427500", "104028.217500", "104029.005000", "104029.792500", "104030.580000", "104031.370000", "104032.157500", "104032.945000", "104033.732500", "104034.522500", "104035.310000", "104036.097500", "104036.885000", "104037.675000", "104038.462500", "104039.250000", "104040.040000", "104040.827500", "104041.615000", "104042.402500", "104043.192500", "104043.980000", "104044.767500", "104045.555000", "104046.345000", "104047.132500", "104047.920000", "104048.707500", "104049.497500", "104050.285000", "104051.072500", "104051.860000", "104052.650000", "104053.437500", "104054.225000", "104055.012500", "104055.802500", "104056.590000", "104057.377500", "104058.167500", "104058.955000", "104059.742500", "104100.530000", "104101.320000", "104102.107500", "104102.895000", "104103.682500", "104104.472500", "104105.260000", "104106.047500", "104106.835000", "104107.625000", "104108.412500", "104109.200000", "104109.987500", "104110.777500", "104111.565000", "104112.352500", "104113.140000", "104113.930000", "104114.717500", "104115.505000", "104116.295000", "104117.082500", "104117.870000", "104118.657500", "104119.447500", "104120.235000", "104121.022500", "104121.810000", "104122.600000", "104123.387500", "104124.175000", "104124.962500", "104125.752500", "104126.540000", "104127.327500", "104128.115000", "104128.905000", "104129.692500", "104130.480000", "104131.270000", "104132.057500", "104132.845000", "104133.632500", "104134.422500", "104135.210000", "104135.997500", "104136.785000", "104137.575000", "104138.362500", "104139.150000", "104139.937500", "104140.727500", "104141.515000", "104142.302500", "104143.090000", "104143.880000", "104144.667500", "104145.455000", "104146.242500", "104147.032500", "104147.820000", "104148.607500", "104149.397500", "104150.185000", "104150.972500", "104151.760000", "104152.550000", "104153.337500", "104154.125000", "104154.912500", "104155.702500", "104156.490000", "104157.277500", "104158.065000", "104158.855000", "104159.642500", "104200.430000", "104201.217500", "104202.007500", "104202.795000", "104203.582500", "104204.370000", "104205.160000", "104205.947500", "104206.735000", "104207.525000", "104208.312500", "104209.100000", "104209.887500", "104210.677500", "104211.465000", "104212.252500", "104213.040000", "104213.830000", "104214.617500", "104215.405000", "104216.192500", "104216.982500", "104217.770000", "104218.557500", "104219.345000", "104220.135000", "104220.922500", "104221.710000", "104222.497500", "104223.287500", "104224.075000", "104224.862500", "104225.652500", "104226.440000", "104227.227500", "104228.015000", "104228.805000", "104229.592500", "104230.380000", "104231.167500", "104231.957500", "104232.745000", "104233.532500", "104234.320000", "104235.110000", "104235.897500", "104236.685000", "104237.472500", "104238.262500", "104239.050000", "104239.837500", "104240.625000", "104241.415000", "104242.202500", "104242.990000", "104243.780000", "104244.567500", "104245.355000", "104246.142500", "104246.932500", "104247.720000", "104248.507500", "104249.295000", "104250.085000", "104250.872500", "104251.660000", "104252.447500", "104253.237500", "104254.025000", "104254.812500", "104255.600000", "104256.390000", "104257.177500", "104257.965000", "104258.752500", "104259.542500", "104300.330000", "104301.117500", "104301.907500", "104302.695000", "104303.482500", "104304.270000", "104305.060000", "104305.847500", "104306.635000", "104307.422500", "104308.212500", "104309.000000", "104309.787500", "104310.575000", "104311.365000", "104312.152500", "104312.940000", "104313.727500", "104314.517500", "104315.305000", "104316.092500", "104316.880000", "104317.670000", "104318.457500", "104319.245000", "104320.035000", "104320.822500", "104321.610000", "104322.397500", "104323.187500", "104323.975000", "104324.762500", "104325.550000", "104326.340000", "104327.127500", "104327.915000", "104328.702500", "104329.492500", "104330.280000", "104331.067500", "104331.855000", "104332.645000", "104333.432500", "104334.220000", "104335.007500", "104335.797500", "104336.585000", "104337.372500", "104338.162500", "104338.950000", "104339.737500", "104340.525000", "104341.315000", "104342.102500", "104342.890000", "104343.677500", "104344.467500", "104345.255000", "104346.042500", "104346.830000", "104347.620000", "104348.407500", "104349.195000", "104349.982500", "104350.772500", "104351.560000", "104352.347500", "104353.135000", "104353.925000", "104354.712500", "104355.500000", "104356.290000", "104357.077500", "104357.865000", "104358.652500", "104359.442500", "104400.230000", "104401.017500", "104401.805000", "104402.595000", "104403.382500", "104404.170000", "104404.957500", "104405.747500", "104406.535000", "104407.322500", "104408.110000", "104408.900000", "104409.687500", "104410.475000", "104411.262500", "104412.052500", "104412.840000", "104413.627500", "104414.417500", "104415.205000", "104415.992500", "104416.780000", "104417.570000", "104418.357500", "104419.145000", "104419.932500", "104420.722500", "104421.510000", "104422.297500", "104423.085000", "104423.875000", "104424.662500", "104425.450000", "104426.237500", "104427.027500", "104427.815000", "104428.602500", "104429.390000", "104430.180000", "104430.967500", "104431.755000", "104432.545000", "104433.332500", "104434.120000", "104434.907500", "104435.697500", "104436.485000", "104437.272500", "104438.060000", "104438.850000", "104439.637500", "104440.425000", "104441.212500", "104442.002500", "104442.790000", "104443.577500", "104444.365000", "104445.155000", "104445.942500", "104446.730000", "104447.520000", "104448.307500", "104449.095000", "104449.882500", "104450.672500", "104451.460000", "104452.247500", "104453.035000", "104453.825000", "104454.612500", "104455.400000", "104456.187500", "104456.977500", "104457.765000", "104458.552500", "104459.340000", "104500.130000", "104500.917500", "104501.705000", "104502.492500", "104503.282500", "104504.070000", "104504.857500", "104505.647500", "104506.435000", "104507.222500", "104508.010000", "104508.800000", "104509.587500", "104510.375000", "104511.162500", "104511.952500", "104512.740000", "104513.527500", "104514.315000", "104515.105000", "104515.892500", "104516.680000", "104517.467500", "104518.257500", "104519.045000", "104519.832500", "104520.620000", "104521.410000", "104522.197500", "104522.985000", "104523.775000", "104524.562500", "104525.350000", "104526.137500", "104526.927500", "104527.715000", "104528.502500", "104529.290000", "104530.080000", "104530.867500", "104531.655000", "104532.442500", "104533.232500", "104534.020000", "104534.807500", "104535.595000", "104536.385000", "104537.172500", "104537.960000", "104538.747500", "104539.537500", "104540.325000", "104541.112500", "104541.902500", "104542.690000", "104543.477500", "104544.265000", "104545.055000", "104545.842500", "104546.630000", "104547.417500", "104548.207500", "104548.995000", "104549.782500", "104550.570000", "104551.360000", "104552.147500", "104552.935000", "104553.722500", "104554.512500", "104555.300000", "104556.087500", "104556.875000", "104557.665000", "104558.452500", "104559.240000", "104600.030000", "104600.817500", "104601.605000", "104602.392500", "104603.182500", "104603.970000", "104604.757500", "104605.545000", "104606.335000", "104607.122500", "104607.910000", "104608.697500", "104609.487500", "104610.275000", "104611.062500", "104611.850000", "104612.640000", "104613.427500", "104614.215000", "104615.002500", "104615.792500", "104616.580000", "104617.367500", "104618.157500", "104618.945000", "104619.732500", "104620.520000", "104621.310000", "104622.097500", "104622.885000", "104623.672500", "104624.462500", "104625.250000", "104626.037500", "104626.825000", "104627.615000", "104628.402500", "104629.190000", "104629.977500", "104630.767500", "104631.555000", "104632.342500", "104633.130000", "104633.920000", "104634.707500", "104635.495000", "104636.285000", "104637.072500", "104637.860000", "104638.647500", "104639.437500", "104640.225000", "104641.012500", "104641.800000", "104642.590000", "104643.377500", "104644.165000", "104644.952500", "104645.742500", "104646.530000", "104647.317500", "104648.105000", "104648.895000", "104649.682500", "104650.470000", "104651.257500", "104652.047500", "104652.835000", "104653.622500", "104654.412500", "104655.200000", "104655.987500", "104656.775000", "104657.565000", "104658.352500", "104659.140000", "104659.927500", "104700.717500", "104701.505000", "104702.292500", "104703.080000", "104703.870000", "104704.657500", "104705.445000", "104706.232500", "104707.022500", "104707.810000", "104708.597500", "104709.385000", "104710.175000", "104710.962500", "104711.750000", "104712.540000", "104713.327500", "104714.115000", "104714.902500", "104715.692500", "104716.480000", "104717.267500", "104718.055000", "104718.845000", "104719.632500", "104720.420000", "104721.207500", "104721.997500", "104722.785000", "104723.572500", "104724.360000", "104725.150000", "104725.937500", "104726.725000", "104727.512500", "104728.302500", "104729.090000", "104729.877500", "104730.667500", "104731.455000", "104732.242500", "104733.030000", "104733.820000", "104734.607500", "104735.395000", "104736.182500", "104736.972500", "104737.760000", "104738.547500", "104739.335000", "104740.125000", "104740.912500", "104741.700000", "104742.487500", "104743.277500", "104744.065000", "104744.852500", "104745.640000", "104746.430000", "104747.217500", "104748.005000", "104748.795000", "104749.582500", "104750.370000", "104751.157500", "104751.947500", "104752.735000", "104753.522500", "104754.310000", "104755.100000", "104755.887500", "104756.675000", "104757.462500", "104758.252500", "104759.040000", "104759.827500", "104800.615000", "104801.405000", "104802.192500", "104802.980000", "104803.770000", "104804.557500", "104805.345000", "104806.132500", "104806.922500", "104807.710000", "104808.497500", "104809.285000", "104810.075000", "104810.862500", "104811.650000", "104812.437500", "104813.227500", "104814.015000", "104814.802500", "104815.590000", "104816.380000", "104817.167500", "104817.955000", "104818.742500", "104819.532500", "104820.320000", "104821.107500", "104821.897500", "104822.685000", "104823.472500", "104824.260000", "104825.050000", "104825.837500", "104826.625000", "104827.412500", "104828.202500", "104828.990000", "104829.777500", "104830.565000", "104831.355000", "104832.142500", "104832.930000", "104833.717500", "104834.507500", "104835.295000", "104836.082500", "104836.870000", "104837.660000", "104838.447500", "104839.235000", "104840.025000", "104840.812500", "104841.600000", "104842.387500", "104843.177500", "104843.965000", "104844.752500", "104845.540000", "104846.330000", "104847.117500", "104847.905000", "104848.692500", "104849.482500", "104850.270000", "104851.057500", "104851.845000", "104852.635000", "104853.422500", "104854.210000", "104854.997500", "104855.787500", "104856.575000", "104857.362500", "104858.152500", "104858.940000", "104859.727500", "104900.515000", "104901.305000", "104902.092500", "104902.880000", "104903.667500", "104904.457500", "104905.245000", "104906.032500", "104906.820000", "104907.610000", "104908.397500", "104909.185000", "104909.972500", "104910.762500", "104911.550000", "104912.337500", "104913.125000", "104913.915000", "104914.702500", "104915.490000", "104916.280000", "104917.067500", "104917.855000", "104918.642500", "104919.432500", "104920.220000", "104921.007500", "104921.795000", "104922.585000", "104923.372500", "104924.160000", "104924.947500", "104925.737500", "104926.525000", "104927.312500", "104928.100000", "104928.890000", "104929.677500", "104930.465000", "104931.252500", "104932.042500", "104932.830000", "104933.617500", "104934.407500", "104935.195000", "104935.982500", "104936.770000", "104937.560000", "104938.347500", "104939.135000", "104939.922500", "104940.712500", "104941.500000", "104942.287500", "104943.075000", "104943.865000", "104944.652500", "104945.440000", "104946.227500", "104947.017500", "104947.805000", "104948.592500", "104949.380000", "104950.170000", "104950.957500", "104951.745000", "104952.535000", "104953.322500", "104954.110000", "104954.897500", "104955.687500", "104956.475000", "104957.262500", "104958.050000", "104958.840000", "104959.627500", "105000.415000", "105001.202500", "105001.992500", "105002.780000", "105003.567500", "105004.355000", "105005.145000", "105005.932500", "105006.720000", "105007.507500", "105008.297500", "105009.085000", "105009.872500", "105010.662500", "105011.450000", "105012.237500", "105013.025000", "105013.815000", "105014.602500", "105015.390000", "105016.177500", "105016.967500", "105017.755000", "105018.542500", "105019.330000", "105020.120000", "105020.907500", "105021.695000", "105022.482500", "105023.272500", "105024.060000", "105024.847500", "105025.635000", "105026.425000", "105027.212500", "105028.000000", "105028.790000", "105029.577500", "105030.365000", "105031.152500", "105031.942500", "105032.730000", "105033.517500", "105034.305000", "105035.095000", "105035.882500", "105036.670000", "105037.457500", "105038.247500", "105039.035000", "105039.822500", "105040.610000", "105041.400000", "105042.187500", "105042.975000", "105043.762500", "105044.552500", "105045.340000", "105046.127500", "105046.917500", "105047.705000", "105048.492500", "105049.280000", "105050.070000", "105050.857500", "105051.645000", "105052.432500", "105053.222500", "105054.010000", "105054.797500", "105055.585000", "105056.375000", "105057.162500", "105057.950000", "105058.737500", "105059.527500", "105100.315000", "105101.102500", "105101.890000", "105102.680000", "105103.467500", "105104.255000", "105105.045000", "105105.832500", "105106.620000", "105107.407500", "105108.197500", "105108.985000", "105109.772500", "105110.560000", "105111.350000", "105112.137500", "105112.925000", "105113.712500", "105114.502500", "105115.290000", "105116.077500", "105116.865000", "105117.655000", "105118.442500", "105119.230000", "105120.020000", "105120.807500", "105121.595000", "105122.382500", "105123.172500", "105123.960000", "105124.747500", "105125.535000", "105126.325000", "105127.112500", "105127.900000", "105128.687500", "105129.477500", "105130.265000", "105131.052500", "105131.840000", "105132.630000", "105133.417500", "105134.205000", "105134.992500", "105135.782500", "105136.570000", "105137.357500", "105138.147500", "105138.935000", "105139.722500", "105140.510000", "105141.300000", "105142.087500", "105142.875000", "105143.662500", "105144.452500", "105145.240000", "105146.027500", "105146.815000", "105147.605000", "105148.392500", "105149.180000", "105149.967500", "105150.757500", "105151.545000"],
