{
  "AcquisitionMatrixPE": 104,
  "AcquisitionNumber": 1,
  "AcquisitionTime": "11:33:28.687500",
  "BandwidthPerPixelPhaseEncode": 13.935,
  "BaseResolution": 104,
  "CoilString": "C:HEA;HEP",
  "ConversionSoftware": "dcm2niix",
  "ConversionSoftwareVersion": "v1.0.20210317",
  "DerivedVendorReportedEchoSpacing": 0.000690017,
  "DeviceSerialNumber": "35450",
  "DwellTime": 2.5e-06,
  "EchoTime": 0.0348,
  "EffectiveEchoSpacing": 0.000690017,
  "FlipAngle": 55,
  "ImageComments": "Unaliased MB8/PE3 (remote)",
  "ImageOrientationPatientDICOM": [1, 0, 0, 0, 0.995056, -0.0993197],
  "ImageType": [
    "ORIGINAL",
    "PRIMARY",
    "M",
    "MB",
    "ND",
    "MOSAIC"
],
  "ImagingFrequency": 123.235,
  "InPlanePhaseEncodingDirectionDICOM": "COL",
  "InstitutionAddress": "Univeristy Ave. 197,Newark,North East,US,07102-1814",
  "InstitutionName": "RUBIC",
  "InstitutionalDepartmentName": "Department",
  "MRAcquisitionType": "2D",
  "MagneticFieldStrength": 3,
  "Manufacturer": "Siemens",
  "ManufacturersModelName": "TrioTim",
  "Modality": "MR",
  "MultibandAccelerationFactor": 8,
  "PartialFourier": 0.875,
  "PatientPosition": "HFS",
  "PercentPhaseFOV": 100,
  "PercentSampling": 100,
  "PhaseEncodingDirection": "j-",
  "PhaseEncodingSteps": 91,
  "PhaseResolution": 1,
  "PixelBandwidth": 1923,
  "ProcedureStepDescription": "Cole^Michael",
  "ProtocolName": "cmrr_mbep2d_bold_2mm_MB8_Task_8x",
  "PulseSequenceDetails": "%CustomerSeq%\\cmrr_mbep2d_bold",
  "ReceiveCoilName": "32Ch_Head",
  "ReconMatrixPE": 104,
  "RepetitionTime": 0.785,
  "SAR": 0.139927,
  "ScanOptions": "PFP\\FS",
  "ScanningSequence": "EP",
  "SequenceName": "epfid2d1_104",
  "SequenceVariant": "SK\\SS",
  "SeriesDescription": "cmrr_mbep2d_bold_2mm_MB8_Task_8x",
  "SeriesNumber": 21,
  "ShimSetting": [2120, -387, -7269, 507, -26, -299, -56, 123],
  "SliceThickness": 2,
  "SliceTiming": [0, 0.4375, 0.0875, 0.525, 0.175, 0.6125, 0.2625, 0.7025, 0.35, 0, 0.4375, 0.0875, 0.525, 0.175, 0.6125, 0.2625, 0.7025, 0.35, 0, 0.4375, 0.0875, 0.525, 0.175, 0.6125, 0.2625, 0.7025, 0.35, 0, 0.4375, 0.0875, 0.525, 0.175, 0.6125, 0.2625, 0.7025, 0.35, 0, 0.4375, 0.0875, 0.525, 0.175, 0.6125, 0.2625, 0.7025, 0.35, 0, 0.4375, 0.0875, 0.525, 0.175, 0.6125, 0.2625, 0.7025, 0.35, 0, 0.4375, 0.0875, 0.525, 0.175, 0.6125, 0.2625, 0.7025, 0.35, 0, 0.4375, 0.0875, 0.525, 0.175, 0.6125, 0.2625, 0.7025, 0.35],
  "SoftwareVersions": "syngo MR B19",
  "SpacingBetweenSlices": 2,
  "StationName": "MRC35450",
  "TaskName": "cpro",
  "TotalReadoutTime": 0.0710717,
  "TxRefAmp": 337.104,
  "dcmmeta_affine": [
    [-2.0, 0.0, 0.0, 104.0],
    [0.0, 1.9901111125946045, -0.19863949716091156, -77.97496795654297],
    [0.0, 0.19863949716091156, 1.990111231803894, -111.92528533935547],
    [0.0, 0.0, 0.0, 1.0]
],
  "dcmmeta_reorient_transform": [
    [0.0, -1.0, 0.0, 103.0],
    [1.0, 0.0, 0.0, 0.0],
    [0.0, 0.0, 1.0, 0.0],
    [0.0, 0.0, 0.0, 1.0]
],
  "dcmmeta_shape": [104, 104, 72, 581],
  "dcmmeta_slice_dim": 2,
  "dcmmeta_version": 0.6,
  "global": {
    "const": {
      "AcquisitionMatrix": [104, 0, 0, 104],
      "AngioFlag": "N",
      "BitsAllocated": 16,
      "BitsStored": 12,
      "Columns": 936,
      "EchoNumbers": 1,
      "EchoTime": 34.8,
      "EchoTrainLength": 1,
      "FlipAngle": 55.0,
      "HighBit": 11,
      "ImageOrientationPatient": [1.0, 0.0, 0.0, 0.0, 0.9950555699221, -0.0993197501357],
      "ImagePositionPatient": [-936.0, -954.8927139018, -8.8313839780102],
      "ImageType": [
        "ORIGINAL",
        "PRIMARY",
        "M",
        "MB",
        "ND",
        "MOSAIC"
],
      "ImagedNucleus": "1H",
      "ImagingFrequency": 123.234545,
      "InPlanePhaseEncodingDirection": "COL",
      "MRAcquisitionType": "2D",
      "MagneticFieldStrength": 3.0,
      "Manufacturer": "SIEMENS",
      "ManufacturerModelName": "TrioTim",
      "Modality": "MR",
      "NumberOfAverages": 1.0,
      "NumberOfPhaseEncodingSteps": 91,
      "PercentPhaseFieldOfView": 100.0,
      "PercentSampling": 100.0,
      "PerformedProcedureStepStartTime": "101209.765000",
      "PhotometricInterpretation": "MONOCHROME2",
      "PixelBandwidth": 1923.0,
      "PixelRepresentation": 0,
      "PixelSpacing": [2.0, 2.0],
      "ProtocolName": "cmrr_mbep2d_bold_2mm_MB8_Task_8x",
      "RepetitionTime": 785.0,
      "Rows": 936,
      "SAR": 0.13992675359712,
      "SamplesPerPixel": 1,
      "ScanOptions": [
        "PFP",
        "FS"
],
      "ScanningSequence": "EP",
      "SequenceName": "epfid2d1_104",
      "SequenceVariant": [
        "SK",
        "SS"
],
      "SeriesDescription": "cmrr_mbep2d_bold_2mm_MB8_Task_8x",
      "SeriesNumber": 21,
      "SeriesTime": "113349.203000",
      "SliceLocation": -103.62742356852,
      "SliceThickness": 2.0,
      "SmallestImagePixelValue": 0,
      "SoftwareVersions": "syngo MR B19",
      "SpacingBetweenSlices": 2.0000000357085,
      "SpecificCharacterSet": "ISO_IR 100",
      "StudyID": "1",
      "StudyTime": "101209.687000",
      "TransmitCoilName": "Body",
      "VariableFlipAngleFlag": "N",
      "WindowCenterWidthExplanation": "Algo1",
      "dBdt": 0.0},
    "slices": {}
  },
  "time": {
    "samples": {
      "AcquisitionNumber": [1, 2, 3, 4, 5, 6, 7, 8, 9, 10, 11, 12, 13, 14, 15, 16, 17, 18, 19, 20, 21, 22, 23, 24, 25, 26, 27, 28, 29, 30, 31, 32, 33, 34, 35, 36, 37, 38, 39, 40, 41, 42, 43, 44, 45, 46, 47, 48, 49, 50, 51, 52, 53, 54, 55, 56, 57, 58, 59, 60, 61, 62, 63, 64, 65, 66, 67, 68, 69, 70, 71, 72, 73, 74, 75, 76, 77, 78, 79, 80, 81, 82, 83, 84, 85, 86, 87, 88, 89, 90, 91, 92, 93, 94, 95, 96, 97, 98, 99, 100, 101, 102, 103, 104, 105, 106, 107, 108, 109, 110, 111, 112, 113, 114, 115, 116, 117, 118, 119, 120, 121, 122, 123, 124, 125, 126, 127, 128, 129, 130, 131, 132, 133, 134, 135, 136, 137, 138, 139, 140, 141, 142, 143, 144, 145, 146, 147, 148, 149, 150, 151, 152, 153, 154, 155, 156, 157, 158, 159, 160, 161, 162, 163, 164, 165, 166, 167, 168, 169, 170, 171, 172, 173, 174, 175, 176, 177, 178, 179, 180, 181, 182, 183, 184, 185, 186, 187, 188, 189, 190, 191, 192, 193, 194, 195, 196, 197, 198, 199, 200, 201, 202, 203, 204, 205, 206, 207, 208, 209, 210, 211, 212, 213, 214, 215, 216, 217, 218, 219, 220, 221, 222, 223, 224, 225, 226, 227, 228, 229, 230, 231, 232, 233, 234, 235, 236, 237, 238, 239, 240, 241, 242, 243, 244, 245, 246, 247, 248, 249, 250, 251, 252, 253, 254, 255, 256, 257, 258, 259, 260, 261, 262, 263, 264, 265, 266, 267, 268, 269, 270, 271, 272, 273, 274, 275, 276, 277, 278, 279, 280, 281, 282, 283, 284, 285, 286, 287, 288, 289, 290, 291, 292, 293, 294, 295, 296, 297, 298, 299, 300, 301, 302, 303, 304, 305, 306, 307, 308, 309, 310, 311, 312, 313, 314, 315, 316, 317, 318, 319, 320, 321, 322, 323, 324, 325, 326, 327, 328, 329, 330, 331, 332, 333, 334, 335, 336, 337, 338, 339, 340, 341, 342, 343, 344, 345, 346, 347, 348, 349, 350, 351, 352, 353, 354, 355, 356, 357, 358, 359, 360, 361, 362, 363, 364, 365, 366, 367, 368, 369, 370, 371, 372, 373, 374, 375, 376, 377, 378, 379, 380, 381, 382, 383, 384, 385, 386, 387, 388, 389, 390, 391, 392, 393, 394, 395, 396, 397, 398, 399, 400, 401, 402, 403, 404, 405, 406, 407, 408, 409, 410, 411, 412, 413, 414, 415, 416, 417, 418, 419, 420, 421, 422, 423, 424, 425, 426, 427, 428, 429, 430, 431, 432, 433, 434, 435, 436, 437, 438, 439, 440, 441, 442, 443, 444, 445, 446, 447, 448, 449, 450, 451, 452, 453, 454, 455, 456, 457, 458, 459, 460, 461, 462, 463, 464, 465, 466, 467, 468, 469, 470, 471, 472, 473, 474, 475, 476, 477, 478, 479, 480, 481, 482, 483, 484, 485, 486, 487, 488, 489, 490, 491, 492, 493, 494, 495, 496, 497, 498, 499, 500, 501, 502, 503, 504, 505, 506, 507, 508, 509, 510, 511, 512, 513, 514, 515, 516, 517, 518, 519, 520, 521, 522, 523, 524, 525, 526, 527, 528, 529, 530, 531, 532, 533, 534, 535, 536, 537, 538, 539, 540, 541, 542, 543, 544, 545, 546, 547, 548, 549, 550, 551, 552, 553, 554, 555, 556, 557, 558, 559, 560, 561, 562, 563, 564, 565, 566, 567, 568, 569, 570, 571, 572, 573, 574, 575, 576, 577, 578, 579, 580, 581],
      "AcquisitionTime": ["113328.687500", "113329.477500", "113330.265000", "113331.052500", "113331.840000", "113332.630000", "113333.417500", "113334.205000", "113334.992500", "113335.782500", "113336.570000", "113337.357500", "113338.147500", "113338.935000", "113339.722500", "113340.510000", "113341.300000", "113342.087500", "113342.875000", "113343.662500", "113344.452500", "113345.240000", "113346.027500", "113346.815000", "113347.605000", "113348.392500", "113349.180000", "113349.967500", "113350.757500", "113351.545000", "113352.332500", "113353.122500", "113353.910000", "113354.697500", "113355.485000", "113356.275000", "113357.062500", "113357.850000", "113358.637500", "113359.427500", "113400.215000", "113401.002500", "113401.790000", "113402.580000", "113403.367500", "113404.155000", "113404.942500", "113405.732500", "113406.520000", "113407.307500", "113408.095000", "113408.885000", "113409.672500", "113410.460000", "113411.250000", "113412.037500", "113412.825000", "113413.612500", "113414.402500", "113415.190000", "113415.977500", "113416.765000", "113417.555000", "113418.342500", "113419.130000", "113419.917500", "113420.707500", "113421.495000", "113422.282500", "113423.070000", "113423.860000", "113424.647500", "113425.435000", "113426.222500", "113427.012500", "113427.800000", "113428.587500", "113429.377500", "113430.165000", "113430.952500", "113431.740000", "113432.530000", "113433.317500", "113434.105000", "113434.892500", "113435.682500", "113436.470000", "113437.257500", "113438.045000", "113438.835000", "113439.622500", "113440.410000", "113441.197500", "113441.987500", "113442.775000", "113443.562500", "113444.350000", "113445.140000", "113445.927500", "113446.715000", "113447.505000", "113448.292500", "113449.080000", "113449.867500", "113450.657500", "113451.445000", "113452.232500", "113453.020000", "113453.810000", "113454.597500", "113455.385000", "113456.172500", "113456.962500", "113457.750000", "113458.537500", "113459.325000", "113500.115000", "113500.902500", "113501.690000", "113502.477500", "113503.267500", "113504.055000", "113504.842500", "113505.632500", "113506.420000", "113507.207500", "113507.995000", "113508.785000", "113509.572500", "113510.360000", "113511.147500", "113511.937500", "113512.725000", "113513.512500", "113514.300000", "113515.090000", "113515.877500", "113516.665000", "113517.452500", "113518.242500", "113519.030000", "113519.817500", "113520.605000", "113521.395000", "113522.182500", "113522.970000", "113523.760000", "113524.547500", "113525.335000", "113526.122500", "113526.912500", "113527.700000", "113528.487500", "113529.275000", "113530.065000", "113530.852500", "113531.640000", "113532.427500", "113533.217500", "113534.005000", "113534.792500", "113535.580000", "113536.370000", "113537.157500", "113537.945000", "113538.732500", "113539.522500", "113540.310000", "113541.097500", "113541.887500", "113542.675000", "113543.462500", "113544.250000", "113545.040000", "113545.827500", "113546.615000", "113547.402500", "113548.192500", "113548.980000", "113549.767500", "113550.555000", "113551.345000", "113552.132500", "113552.920000", "113553.707500", "113554.497500", "113555.285000", "113556.072500", "113556.860000", "113557.650000", "113558.437500", "113559.225000", "113600.015000", "113600.802500", "113601.590000", "113602.377500", "113603.167500", "113603.955000", "113604.742500", "113605.530000", "113606.320000", "113607.107500", "113607.895000", "113608.682500", "113609.472500", "113610.260000", "113611.047500", "113611.835000", "113612.625000", "113613.412500", "113614.200000", "113614.987500", "113615.777500", "113616.565000", "113617.352500", "113618.142500", "113618.930000", "113619.717500", "113620.505000", "113621.295000", "113622.082500", "113622.870000", "113623.657500", "113624.447500", "113625.235000", "113626.022500", "113626.810000", "113627.600000", "113628.387500", "113629.175000", "113629.962500", "113630.752500", "113631.540000", "113632.327500", "113633.115000", "113633.905000", "113634.692500", "113635.480000", "113636.270000", "113637.057500", "113637.845000", "113638.632500", "113639.422500", "113640.210000", "113640.997500", "113641.785000", "113642.575000", "113643.362500", "113644.150000", "113644.937500", "113645.727500", "113646.515000", "113647.302500", "113648.090000", "113648.880000", "113649.667500", "113650.455000", "113651.242500", "113652.032500", "113652.820000", "113653.607500", "113654.397500", "113655.185000", "113655.972500", "113656.760000", "113657.550000", "113658.337500", "113659.125000", "113659.912500", "113700.702500", "113701.490000", "113702.277500", "113703.065000", "113703.855000", "113704.642500", "113705.430000", "113706.217500", "113707.007500", "113707.795000", "113708.582500", "113709.372500", "113710.160000", "113710.947500", "113711.735000", "113712.525000", "113713.312500", "113714.100000", "113714.887500", "113715.677500", "113716.465000", "113717.252500", "113718.040000", "113718.830000", "113719.617500", "113720.405000", "113721.192500", "113721.982500", "113722.770000", "113723.557500", "113724.345000", "113725.135000", "113725.922500", "113726.710000", "113727.500000", "113728.287500", "113729.075000", "113729.862500", "113730.652500", "113731.440000", "113732.227500", "113733.015000", "113733.805000", "113734.592500", "113735.380000", "113736.167500", "113736.957500", "113737.745000", "113738.532500", "113739.320000", "113740.110000", "113740.897500", "113741.685000", "113742.472500", "113743.262500", "113744.050000", "113744.837500", "113745.627500", "113746.415000", "113747.202500", "113747.990000", "113748.780000", "113749.567500", "113750.355000", "113751.142500", "113751.932500", "113752.720000", "113753.507500", "113754.295000", "113755.085000", "113755.872500", "113756.660000", "113757.447500", "113758.237500", "113759.025000", "113759.812500", "113800.600000", "113801.390000", "113802.177500", "113802.965000", "113803.755000", "113804.542500", "113805.330000", "113806.117500", "113806.907500", "113807.695000", "113808.482500", "113809.270000", "113810.060000", "113810.847500", "113811.635000", "113812.422500", "113813.212500", "113814.000000", "113814.787500", "113815.575000", "113816.365000", "113817.152500", "113817.940000", "113818.727500", "113819.517500", "113820.305000", "113821.092500", "113821.882500", "113822.670000", "113823.457500", "113824.245000", "113825.035000", "113825.822500", "113826.610000", "113827.397500", "113828.187500", "113828.975000", "113829.762500", "113830.550000", "113831.340000", "113832.127500", "113832.915000", "113833.702500", "113834.492500", "113835.280000", "113836.067500", "113836.855000", "113837.645000", "113838.432500", "113839.220000", "113840.010000", "113840.797500", "113841.585000", "113842.372500", "113843.162500", "113843.950000", "113844.737500", "113845.525000", "113846.315000", "113847.102500", "113847.890000", "113848.677500", "113849.467500", "113850.255000", "113851.042500", "113851.830000", "113852.620000", "113853.407500", "113854.195000", "113854.982500", "113855.772500", "113856.560000", "113857.347500", "113858.137500", "113858.925000", "113859.712500", "113900.500000", "113901.290000", "113902.077500", "113902.865000", "113903.652500", "113904.442500", "113905.230000", "113906.017500", "113906.805000", "113907.595000", "113908.382500", "113909.170000", "113909.957500", "113910.747500", "113911.535000", "113912.322500", "113913.110000", "113913.900000", "113914.687500", "113915.475000", "113916.265000", "113917.052500", "113917.840000", "113918.627500", "113919.417500", "113920.205000", "113920.992500", "113921.780000", "113922.570000", "113923.357500", "113924.145000", "113924.932500", "113925.722500", "113926.510000", "113927.297500", "113928.085000", "113928.875000", "113929.662500", "113930.450000", "113931.237500", "113932.027500", "113932.815000", "113933.602500", "113934.392500", "113935.180000", "113935.967500", "113936.755000", "113937.545000", "113938.332500", "113939.120000", "113939.907500", "113940.697500", "113941.485000", "113942.272500", "113943.060000", "113943.850000", "113944.637500", "113945.425000", "113946.212500", "113947.002500", "113947.790000", "113948.577500", "113949.365000", "113950.155000", "113950.942500", "113951.730000", "113952.520000", "113953.307500", "113954.095000", "113954.882500", "113955.672500", "113956.460000", "113957.247500", "113958.035000", "113958.825000", "113959.612500", "114000.400000", "114001.187500", "114001.977500", "114002.765000", "114003.552500", "114004.340000", "114005.130000", "114005.917500", "114006.705000", "114007.492500", "114008.282500", "114009.070000", "114009.857500", "114010.647500", "114011.435000", "114012.222500", "114013.010000", "114013.800000", "114014.587500", "114015.375000", "114016.162500", "114016.952500", "114017.740000", "114018.527500", "114019.315000", "114020.105000", "114020.892500", "114021.680000", "114022.467500", "114023.257500", "114024.045000", "114024.832500", "114025.622500", "114026.410000", "114027.197500", "114027.985000", "114028.775000", "114029.562500", "114030.350000", "114031.137500", "114031.927500", "114032.715000", "114033.502500", "114034.290000", "114035.080000", "114035.867500", "114036.655000", "114037.442500", "114038.232500", "114039.020000", "114039.807500", "114040.595000", "114041.385000", "114042.172500", "114042.960000", "114043.750000", "114044.537500", "114045.325000", "114046.112500", "114046.902500", "114047.690000", "114048.477500", "114049.265000", "114050.055000", "114050.842500", "114051.630000", "114052.417500", "114053.207500", "114053.995000", "114054.782500", "114055.570000", "114056.360000", "114057.147500", "114057.935000", "114058.722500", "114059.512500", "114100.300000", "114101.087500", "114101.877500", "114102.665000", "114103.452500", "114104.240000", "114105.030000", "114105.817500"],
      "ContentTime": ["113349.203000", "113349.203000", "113349.203000", "113349.203000", "113349.218000", "113349.218000", "113349.218000", "113349.218000", "113349.218000", "113349.218000", "113349.218000", "113349.234000", "113349.234000", "113349.234000", "113349.234000", "113349.234000", "113349.250000", "113349.250000", "113349.250000", "113349.250000", "113349.250000", "113349.250000", "113349.265000", "113409.093000", "113409.093000", "113409.093000", "113409.093000", "113409.109000", "113409.109000", "113409.109000", "113409.109000", "113409.109000", "113409.109000", "113409.109000", "113409.109000", "113409.125000", "113409.125000", "113409.125000", "113409.125000", "113409.125000", "113409.125000", "113409.125000", "113409.140000", "113409.140000", "113409.140000", "113409.140000", "113409.140000", "113409.140000", "113409.140000", "113429.093000", "113429.093000", "113429.093000", "113429.093000", "113429.093000", "113429.109000", "113429.109000", "113429.109000", "113429.109000", "113429.109000", "113429.109000", "113429.125000", "113429.125000", "113429.125000", "113429.125000", "113429.140000", "113429.140000", "113429.140000", "113429.140000", "113429.140000", "113429.140000", "113429.140000", "113429.140000", "113429.156000", "113429.156000", "113449.093000", "113449.093000", "113449.093000", "113449.093000", "113449.109000", "113449.109000", "113449.109000", "113449.109000", "113449.109000", "113449.109000", "113449.109000", "113449.109000", "113449.125000", "113449.125000", "113449.125000", "113449.125000", "113449.125000", "113449.125000", "113449.125000", "113449.140000", "113449.140000", "113449.140000", "113449.140000", "113449.140000", "113449.140000", "113449.140000", "113509.093000", "113509.093000", "113509.093000", "113509.093000", "113509.109000", "113509.109000", "113509.109000", "113509.109000", "113509.109000", "113509.109000", "113509.109000", "113509.109000", "113509.125000", "113509.125000", "113509.125000", "113509.125000", "113509.125000", "113509.125000", "113509.125000", "113509.140000", "113509.140000", "113509.140000", "113509.140000", "113509.140000", "113509.140000", "113529.093000", "113529.093000", "113529.093000", "113529.093000", "113529.093000", "113529.109000", "113529.109000", "113529.109000", "113529.109000", "113529.109000", "113529.109000", "113529.109000", "113529.125000", "113529.125000", "113529.125000", "113529.125000", "113529.125000", "113529.125000", "113529.125000", "113529.125000", "113529.140000", "113529.140000", "113529.140000", "113529.140000", "113529.140000", "113529.140000", "113549.093000", "113549.093000", "113549.093000", "113549.093000", "113549.093000", "113549.109000", "113549.109000", "113549.109000", "113549.109000", "113549.109000", "113549.109000", "113549.125000", "113549.125000", "113549.125000", "113549.125000", "113549.125000", "113549.125000", "113549.125000", "113549.125000", "113549.140000", "113549.140000", "113549.140000", "113549.140000", "113549.140000", "113549.140000", "113609.093000", "113609.093000", "113609.093000", "113609.093000", "113609.109000", "113609.109000", "113609.109000", "113609.109000", "113609.109000", "113609.109000", "113609.109000", "113609.109000", "113609.125000", "113609.125000", "113609.125000", "113609.125000", "113609.125000", "113609.125000", "113609.125000", "113609.140000", "113609.140000", "113609.140000", "113609.140000", "113609.140000", "113609.140000", "113609.140000", "113629.093000", "113629.093000", "113629.093000", "113629.093000", "113629.109000", "113629.109000", "113629.109000", "113629.109000", "113629.109000", "113629.109000", "113629.109000", "113629.109000", "113629.125000", "113629.125000", "113629.125000", "113629.125000", "113629.125000", "113629.125000", "113629.125000", "113629.125000", "113629.140000", "113629.140000", "113629.140000", "113629.140000", "113629.140000", "113649.093000", "113649.093000", "113649.093000", "113649.093000", "113649.093000", "113649.109000", "113649.109000", "113649.109000", "113649.109000", "113649.109000", "113649.109000", "113649.109000", "113649.125000", "113649.125000", "113649.125000", "113649.125000", "113649.125000", "113649.125000", "113649.125000", "113649.125000", "113649.140000", "113649.140000", "113649.140000", "113649.140000", "113649.140000", "113649.140000", "113709.093000", "113709.093000", "113709.093000", "113709.093000", "113709.093000", "113709.109000", "113709.109000", "113709.109000", "113709.109000", "113709.109000", "113709.109000", "113709.109000", "113709.125000", "113709.125000", "113709.125000", "113709.125000", "113709.125000", "113709.125000", "113709.125000", "113709.125000", "113709.140000", "113709.140000", "113709.140000", "113709.140000", "113709.140000", "113729.093000", "113729.093000", "113729.093000", "113729.093000", "113729.093000", "113729.109000", "113729.109000", "113729.109000", "113729.109000", "113729.109000", "113729.109000", "113729.109000", "113729.125000", "113729.125000", "113729.125000", "113729.125000", "113729.125000", "113729.125000", "113729.125000", "113729.125000", "113729.140000", "113729.140000", "113729.140000", "113729.140000", "113729.140000", "113729.156000", "113749.093000", "113749.093000", "113749.093000", "113749.093000", "113749.093000", "113749.109000", "113749.109000", "113749.109000", "113749.109000", "113749.109000", "113749.109000", "113749.109000", "113749.125000", "113749.125000", "113749.125000", "113749.125000", "113749.125000", "113749.125000", "113749.125000", "113749.125000", "113749.140000", "113749.140000", "113749.140000", "113749.140000", "113749.140000", "113809.093000", "113809.093000", "113809.093000", "113809.093000", "113809.093000", "113809.109000", "113809.109000", "113809.109000", "113809.109000", "113809.125000", "113809.125000", "113809.125000", "113809.125000", "113809.125000", "113809.125000", "113809.125000", "113809.140000", "113809.140000", "113809.140000", "113809.140000", "113809.140000", "113809.140000", "113809.140000", "113809.156000", "113809.156000", "113829.093000", "113829.093000", "113829.093000", "113829.093000", "113829.109000", "113829.109000", "113829.109000", "113829.109000", "113829.109000", "113829.109000", "113829.109000", "113829.109000", "113829.125000", "113829.125000", "113829.125000", "113829.125000", "113829.125000", "113829.125000", "113829.125000", "113829.140000", "113829.140000", "113829.140000", "113829.140000", "113829.140000", "113829.140000", "113829.140000", "113849.093000", "113849.093000", "113849.093000", "113849.093000", "113849.109000", "113849.109000", "113849.109000", "113849.109000", "113849.109000", "113849.109000", "113849.109000", "113849.109000", "113849.125000", "113849.125000", "113849.125000", "113849.125000", "113849.125000", "113849.125000", "113849.125000", "113849.140000", "113849.140000", "113849.140000", "113849.140000", "113849.140000", "113849.140000", "113909.093000", "113909.093000", "113909.093000", "113909.093000", "113909.109000", "113909.109000", "113909.109000", "113909.109000", "113909.109000", "113909.109000", "113909.125000", "113909.125000", "113909.125000", "113909.125000", "113909.125000", "113909.140000", "113909.140000", "113909.140000", "113909.140000", "113909.140000", "113909.140000", "113909.140000", "113909.140000", "113909.156000", "113909.156000", "113909.156000", "113929.093000", "113929.093000", "113929.093000", "113929.093000", "113929.109000", "113929.109000", "113929.109000", "113929.109000", "113929.109000", "113929.109000", "113929.109000", "113929.125000", "113929.125000", "113929.125000", "113929.125000", "113929.125000", "113929.125000", "113929.125000", "113929.140000", "113929.140000", "113929.140000", "113929.140000", "113929.140000", "113929.156000", "113929.156000", "113949.093000", "113949.093000", "113949.093000", "113949.093000", "113949.109000", "113949.109000", "113949.109000", "113949.109000", "113949.109000", "113949.109000", "113949.109000", "113949.109000", "113949.125000", "113949.125000", "113949.125000", "113949.125000", "113949.125000", "113949.125000", "113949.125000", "113949.140000", "113949.140000", "113949.140000", "113949.140000", "113949.140000", "113949.140000", "113949.140000", "114009.093000", "114009.093000", "114009.093000", "114009.093000", "114009.109000", "114009.109000", "114009.109000", "114009.109000", "114009.109000", "114009.109000", "114009.109000", "114009.109000", "114009.125000", "114009.125000", "114009.125000", "114009.125000", "114009.125000", "114009.125000", "114009.125000", "114009.140000", "114009.140000", "114009.140000", "114009.140000", "114009.140000", "114009.140000", "114029.093000", "114029.093000", "114029.093000", "114029.093000", "114029.093000", "114029.109000", "114029.109000", "114029.109000", "114029.109000", "114029.109000", "114029.109000", "114029.109000", "114029.125000", "114029.125000", "114029.125000", "114029.125000", "114029.125000", "114029.125000", "114029.125000", "114029.125000", "114029.140000", "114029.140000", "114029.140000", "114029.140000", "114029.140000", "114029.140000", "114049.093000", "114049.093000", "114049.093000", "114049.093000", "114049.109000", "114049.109000", "114049.109000", "114049.109000", "114049.109000", "114049.109000", "114049.109000", "114049.125000", "114049.125000", "114049.125000", "114049.125000", "114049.125000", "114049.125000", "114049.125000", "114049.125000", "114049.140000", "114049.140000", "114049.140000", "114049.140000", "114049.140000", "114049.140000", "114106.609000", "114106.609000", "114106.609000", "114106.625000", "114106.625000", "114106.625000", "114106.625000", "114106.625000", "114106.625000", "114106.625000", "114106.640000", "114106.640000", "114106.640000", "114106.640000", "114106.640000", "114106.640000", "114106.640000", "114106.640000", "114106.656000", "114106.656000", "114106.656000", "114106.656000", "114106.656000"],
