{
  "AcquisitionMatrixPE": 104,
  "AcquisitionNumber": 1,
  "AcquisitionTime": "11:17:28.755000",
  "BandwidthPerPixelPhaseEncode": 13.935,
  "BaseResolution": 104,
  "CoilString": "C:HEA;HEP",
  "ConversionSoftware": "dcm2niix",
  "ConversionSoftwareVersion": "v1.0.20210317",
  "DerivedVendorReportedEchoSpacing": 0.000690017,
  "DeviceSerialNumber": "35450",
  "DwellTime": 2.5e-06,
  "EchoTime": 0.0348,
  "EffectiveEchoSpacing": 0.000690017,
  "FlipAngle": 55,
  "ImageComments": "Unaliased MB8/PE3 (remote)",
  "ImageOrientationPatientDICOM": [1, 0, 0, 0, 0.995056, -0.0993197],
  "ImageType": [
    "ORIGINAL",
    "PRIMARY",
    "M",
    "MB",
    "ND",
    "MOSAIC"
],
  "ImagingFrequency": 123.235,
  "InPlanePhaseEncodingDirectionDICOM": "COL",
  "InstitutionAddress": "Univeristy Ave. 197,Newark,North East,US,07102-1814",
  "InstitutionName": "RUBIC",
  "InstitutionalDepartmentName": "Department",
  "MRAcquisitionType": "2D",
  "MagneticFieldStrength": 3,
  "Manufacturer": "Siemens",
  "ManufacturersModelName": "TrioTim",
  "Modality": "MR",
  "MultibandAccelerationFactor": 8,
  "PartialFourier": 0.875,
  "PatientPosition": "HFS",
  "PercentPhaseFOV": 100,
  "PercentSampling": 100,
  "PhaseEncodingDirection": "j-",
  "PhaseEncodingSteps": 91,
  "PhaseResolution": 1,
  "PixelBandwidth": 1923,
  "ProcedureStepDescription": "Cole^Michael",
  "ProtocolName": "cmrr_mbep2d_bold_2mm_MB8_Task_8x",
  "PulseSequenceDetails": "%CustomerSeq%\\cmrr_mbep2d_bold",
  "ReceiveCoilName": "32Ch_Head",
  "ReconMatrixPE": 104,
  "RepetitionTime": 0.785,
  "SAR": 0.139927,
  "ScanOptions": "PFP\\FS",
  "ScanningSequence": "EP",
  "SequenceName": "epfid2d1_104",
  "SequenceVariant": "SK\\SS",
  "SeriesDescription": "cmrr_mbep2d_bold_2mm_MB8_Task_8x",
  "SeriesNumber": 17,
  "ShimSetting": [2120, -387, -7269, 507, -26, -299, -56, 123],
  "SliceThickness": 2,
  "SliceTiming": [0, 0.4375, 0.0875, 0.525, 0.175, 0.6125, 0.2625, 0.7, 0.35, 0, 0.4375, 0.0875, 0.525, 0.175, 0.6125, 0.2625, 0.7, 0.35, 0, 0.4375, 0.0875, 0.525, 0.175, 0.6125, 0.2625, 0.7, 0.35, 0, 0.4375, 0.0875, 0.525, 0.175, 0.6125, 0.2625, 0.7, 0.35, 0, 0.4375, 0.0875, 0.525, 0.175, 0.6125, 0.2625, 0.7, 0.35, 0, 0.4375, 0.0875, 0.525, 0.175, 0.6125, 0.2625, 0.7, 0.35, 0, 0.4375, 0.0875, 0.525, 0.175, 0.6125, 0.2625, 0.7, 0.35, 0, 0.4375, 0.0875, 0.525, 0.175, 0.6125, 0.2625, 0.7, 0.35],
  "SoftwareVersions": "syngo MR B19",
  "SpacingBetweenSlices": 2,
  "StationName": "MRC35450",
  "TaskName": "cpro",
  "TotalReadoutTime": 0.0710717,
  "TxRefAmp": 337.104,
  "dcmmeta_affine": [
    [-2.0, 0.0, 0.0, 104.0],
    [0.0, 1.9901111125946045, -0.19863949716091156, -77.97496795654297],
    [0.0, 0.19863949716091156, 1.990111231803894, -111.92528533935547],
    [0.0, 0.0, 0.0, 1.0]
],
  "dcmmeta_reorient_transform": [
    [0.0, -1.0, 0.0, 103.0],
    [1.0, 0.0, 0.0, 0.0],
    [0.0, 0.0, 1.0, 0.0],
    [0.0, 0.0, 0.0, 1.0]
],
  "dcmmeta_shape": [104, 104, 72, 581],
  "dcmmeta_slice_dim": 2,
  "dcmmeta_version": 0.6,
  "global": {
    "const": {
      "AcquisitionMatrix": [104, 0, 0, 104],
      "AngioFlag": "N",
      "BitsAllocated": 16,
      "BitsStored": 12,
      "Columns": 936,
      "EchoNumbers": 1,
      "EchoTime": 34.8,
      "EchoTrainLength": 1,
      "FlipAngle": 55.0,
      "HighBit": 11,
      "ImageOrientationPatient": [1.0, 0.0, 0.0, 0.0, 0.9950555699221, -0.0993197501357],
      "ImagePositionPatient": [-936.0, -954.8927139018, -8.8313839780102],
      "ImageType": [
        "ORIGINAL",
        "PRIMARY",
        "M",
        "MB",
        "ND",
        "MOSAIC"
],
      "ImagedNucleus": "1H",
      "ImagingFrequency": 123.234545,
      "InPlanePhaseEncodingDirection": "COL",
      "MRAcquisitionType": "2D",
      "MagneticFieldStrength": 3.0,
      "Manufacturer": "SIEMENS",
      "ManufacturerModelName": "TrioTim",
      "Modality": "MR",
      "NumberOfAverages": 1.0,
      "NumberOfPhaseEncodingSteps": 91,
      "PercentPhaseFieldOfView": 100.0,
      "PercentSampling": 100.0,
      "PerformedProcedureStepStartTime": "101209.765000",
      "PhotometricInterpretation": "MONOCHROME2",
      "PixelBandwidth": 1923.0,
      "PixelRepresentation": 0,
      "PixelSpacing": [2.0, 2.0],
      "ProtocolName": "cmrr_mbep2d_bold_2mm_MB8_Task_8x",
      "RepetitionTime": 785.0,
      "Rows": 936,
      "SAR": 0.13992675359712,
      "SamplesPerPixel": 1,
      "ScanOptions": [
        "PFP",
        "FS"
],
      "ScanningSequence": "EP",
      "SequenceName": "epfid2d1_104",
      "SequenceVariant": [
        "SK",
        "SS"
],
      "SeriesDescription": "cmrr_mbep2d_bold_2mm_MB8_Task_8x",
      "SeriesNumber": 17,
      "SeriesTime": "111757.312000",
      "SliceLocation": -103.62742356852,
      "SliceThickness": 2.0,
      "SmallestImagePixelValue": 0,
      "SoftwareVersions": "syngo MR B19",
      "SpacingBetweenSlices": 2.0000000357085,
      "SpecificCharacterSet": "ISO_IR 100",
      "StudyID": "1",
      "StudyTime": "101209.687000",
      "TransmitCoilName": "Body",
      "VariableFlipAngleFlag": "N",
      "WindowCenterWidthExplanation": "Algo1",
      "dBdt": 0.0},
    "slices": {}
  },
  "time": {
    "samples": {
      "AcquisitionNumber": [1, 2, 3, 4, 5, 6, 7, 8, 9, 10, 11, 12, 13, 14, 15, 16, 17, 18, 19, 20, 21, 22, 23, 24, 25, 26, 27, 28, 29, 30, 31, 32, 33, 34, 35, 36, 37, 38, 39, 40, 41, 42, 43, 44, 45, 46, 47, 48, 49, 50, 51, 52, 53, 54, 55, 56, 57, 58, 59, 60, 61, 62, 63, 64, 65, 66, 67, 68, 69, 70, 71, 72, 73, 74, 75, 76, 77, 78, 79, 80, 81, 82, 83, 84, 85, 86, 87, 88, 89, 90, 91, 92, 93, 94, 95, 96, 97, 98, 99, 100, 101, 102, 103, 104, 105, 106, 107, 108, 109, 110, 111, 112, 113, 114, 115, 116, 117, 118, 119, 120, 121, 122, 123, 124, 125, 126, 127, 128, 129, 130, 131, 132, 133, 134, 135, 136, 137, 138, 139, 140, 141, 142, 143, 144, 145, 146, 147, 148, 149, 150, 151, 152, 153, 154, 155, 156, 157, 158, 159, 160, 161, 162, 163, 164, 165, 166, 167, 168, 169, 170, 171, 172, 173, 174, 175, 176, 177, 178, 179, 180, 181, 182, 183, 184, 185, 186, 187, 188, 189, 190, 191, 192, 193, 194, 195, 196, 197, 198, 199, 200, 201, 202, 203, 204, 205, 206, 207, 208, 209, 210, 211, 212, 213, 214, 215, 216, 217, 218, 219, 220, 221, 222, 223, 224, 225, 226, 227, 228, 229, 230, 231, 232, 233, 234, 235, 236, 237, 238, 239, 240, 241, 242, 243, 244, 245, 246, 247, 248, 249, 250, 251, 252, 253, 254, 255, 256, 257, 258, 259, 260, 261, 262, 263, 264, 265, 266, 267, 268, 269, 270, 271, 272, 273, 274, 275, 276, 277, 278, 279, 280, 281, 282, 283, 284, 285, 286, 287, 288, 289, 290, 291, 292, 293, 294, 295, 296, 297, 298, 299, 300, 301, 302, 303, 304, 305, 306, 307, 308, 309, 310, 311, 312, 313, 314, 315, 316, 317, 318, 319, 320, 321, 322, 323, 324, 325, 326, 327, 328, 329, 330, 331, 332, 333, 334, 335, 336, 337, 338, 339, 340, 341, 342, 343, 344, 345, 346, 347, 348, 349, 350, 351, 352, 353, 354, 355, 356, 357, 358, 359, 360, 361, 362, 363, 364, 365, 366, 367, 368, 369, 370, 371, 372, 373, 374, 375, 376, 377, 378, 379, 380, 381, 382, 383, 384, 385, 386, 387, 388, 389, 390, 391, 392, 393, 394, 395, 396, 397, 398, 399, 400, 401, 402, 403, 404, 405, 406, 407, 408, 409, 410, 411, 412, 413, 414, 415, 416, 417, 418, 419, 420, 421, 422, 423, 424, 425, 426, 427, 428, 429, 430, 431, 432, 433, 434, 435, 436, 437, 438, 439, 440, 441, 442, 443, 444, 445, 446, 447, 448, 449, 450, 451, 452, 453, 454, 455, 456, 457, 458, 459, 460, 461, 462, 463, 464, 465, 466, 467, 468, 469, 470, 471, 472, 473, 474, 475, 476, 477, 478, 479, 480, 481, 482, 483, 484, 485, 486, 487, 488, 489, 490, 491, 492, 493, 494, 495, 496, 497, 498, 499, 500, 501, 502, 503, 504, 505, 506, 507, 508, 509, 510, 511, 512, 513, 514, 515, 516, 517, 518, 519, 520, 521, 522, 523, 524, 525, 526, 527, 528, 529, 530, 531, 532, 533, 534, 535, 536, 537, 538, 539, 540, 541, 542, 543, 544, 545, 546, 547, 548, 549, 550, 551, 552, 553, 554, 555, 556, 557, 558, 559, 560, 561, 562, 563, 564, 565, 566, 567, 568, 569, 570, 571, 572, 573, 574, 575, 576, 577, 578, 579, 580, 581],
      "AcquisitionTime": ["111728.755000", "111729.542500", "111730.332500", "111731.120000", "111731.907500", "111732.695000", "111733.485000", "111734.272500", "111735.060000", "111735.847500", "111736.637500", "111737.425000", "111738.212500", "111739.000000", "111739.790000", "111740.577500", "111741.365000", "111742.155000", "111742.942500", "111743.730000", "111744.517500", "111745.307500", "111746.095000", "111746.882500", "111747.670000", "111748.460000", "111749.247500", "111750.035000", "111750.822500", "111751.612500", "111752.400000", "111753.187500", "111753.975000", "111754.765000", "111755.552500", "111756.340000", "111757.127500", "111757.917500", "111758.705000", "111759.492500", "111800.282500", "111801.070000", "111801.857500", "111802.645000", "111803.435000", "111804.222500", "111805.010000", "111805.797500", "111806.587500", "111807.375000", "111808.162500", "111808.950000", "111809.740000", "111810.527500", "111811.315000", "111812.102500", "111812.892500", "111813.680000", "111814.467500", "111815.255000", "111816.045000", "111816.832500", "111817.620000", "111818.410000", "111819.197500", "111819.985000", "111820.772500", "111821.562500", "111822.350000", "111823.137500", "111823.925000", "111824.715000", "111825.502500", "111826.290000", "111827.077500", "111827.867500", "111828.655000", "111829.442500", "111830.230000", "111831.020000", "111831.807500", "111832.595000", "111833.385000", "111834.172500", "111834.960000", "111835.747500", "111836.537500", "111837.325000", "111838.112500", "111838.900000", "111839.690000", "111840.477500", "111841.265000", "111842.052500", "111842.842500", "111843.630000", "111844.417500", "111845.205000", "111845.995000", "111846.782500", "111847.570000", "111848.357500", "111849.147500", "111849.935000", "111850.722500", "111851.512500", "111852.300000", "111853.087500", "111853.875000", "111854.665000", "111855.452500", "111856.240000", "111857.027500", "111857.817500", "111858.605000", "111859.392500", "111900.180000", "111900.970000", "111901.757500", "111902.545000", "111903.332500", "111904.122500", "111904.910000", "111905.697500", "111906.485000", "111907.275000", "111908.062500", "111908.850000", "111909.640000", "111910.427500", "111911.215000", "111912.002500", "111912.792500", "111913.580000", "111914.367500", "111915.155000", "111915.945000", "111916.732500", "111917.520000", "111918.307500", "111919.097500", "111919.885000", "111920.672500", "111921.460000", "111922.250000", "111923.037500", "111923.825000", "111924.612500", "111925.402500", "111926.190000", "111926.977500", "111927.767500", "111928.555000", "111929.342500", "111930.130000", "111930.920000", "111931.707500", "111932.495000", "111933.282500", "111934.072500", "111934.860000", "111935.647500", "111936.435000", "111937.225000", "111938.012500", "111938.800000", "111939.587500", "111940.377500", "111941.165000", "111941.952500", "111942.740000", "111943.530000", "111944.317500", "111945.105000", "111945.895000", "111946.682500", "111947.470000", "111948.257500", "111949.047500", "111949.835000", "111950.622500", "111951.410000", "111952.200000", "111952.987500", "111953.775000", "111954.562500", "111955.352500", "111956.140000", "111956.927500", "111957.715000", "111958.505000", "111959.292500", "112000.080000", "112000.867500", "112001.657500", "112002.445000", "112003.232500", "112004.022500", "112004.810000", "112005.597500", "112006.385000", "112007.175000", "112007.962500", "112008.750000", "112009.537500", "112010.327500", "112011.115000", "112011.902500", "112012.690000", "112013.480000", "112014.267500", "112015.055000", "112015.842500", "112016.632500", "112017.420000", "112018.207500", "112018.995000", "112019.785000", "112020.572500", "112021.360000", "112022.150000", "112022.937500", "112023.725000", "112024.512500", "112025.302500", "112026.090000", "112026.877500", "112027.665000", "112028.455000", "112029.242500", "112030.030000", "112030.817500", "112031.607500", "112032.395000", "112033.182500", "112033.970000", "112034.760000", "112035.547500", "112036.335000", "112037.122500", "112037.912500", "112038.700000", "112039.487500", "112040.277500", "112041.065000", "112041.852500", "112042.640000", "112043.430000", "112044.217500", "112045.005000", "112045.792500", "112046.582500", "112047.370000", "112048.157500", "112048.945000", "112049.735000", "112050.522500", "112051.310000", "112052.097500", "112052.887500", "112053.675000", "112054.462500", "112055.250000", "112056.040000", "112056.827500", "112057.615000", "112058.405000", "112059.192500", "112059.980000", "112100.767500", "112101.557500", "112102.345000", "112103.132500", "112103.920000", "112104.710000", "112105.497500", "112106.285000", "112107.072500", "112107.862500", "112108.650000", "112109.437500", "112110.225000", "112111.015000", "112111.802500", "112112.590000", "112113.377500", "112114.167500", "112114.955000", "112115.742500", "112116.532500", "112117.320000", "112118.107500", "112118.895000", "112119.685000", "112120.472500", "112121.260000", "112122.047500", "112122.837500", "112123.625000", "112124.412500", "112125.200000", "112125.990000", "112126.777500", "112127.565000", "112128.352500", "112129.142500", "112129.930000", "112130.717500", "112131.505000", "112132.295000", "112133.082500", "112133.870000", "112134.660000", "112135.447500", "112136.235000", "112137.022500", "112137.812500", "112138.600000", "112139.387500", "112140.175000", "112140.965000", "112141.752500", "112142.540000", "112143.327500", "112144.117500", "112144.905000", "112145.692500", "112146.480000", "112147.270000", "112148.057500", "112148.845000", "112149.635000", "112150.422500", "112151.210000", "112151.997500", "112152.787500", "112153.575000", "112154.362500", "112155.150000", "112155.940000", "112156.727500", "112157.515000", "112158.302500", "112159.092500", "112159.880000", "112200.667500", "112201.455000", "112202.245000", "112203.032500", "112203.820000", "112204.607500", "112205.397500", "112206.185000", "112206.972500", "112207.762500", "112208.550000", "112209.337500", "112210.125000", "112210.915000", "112211.702500", "112212.490000", "112213.277500", "112214.067500", "112214.855000", "112215.642500", "112216.430000", "112217.220000", "112218.007500", "112218.795000", "112219.582500", "112220.372500", "112221.160000", "112221.947500", "112222.735000", "112223.525000", "112224.312500", "112225.100000", "112225.890000", "112226.677500", "112227.465000", "112228.252500", "112229.042500", "112229.830000", "112230.617500", "112231.405000", "112232.195000", "112232.982500", "112233.770000", "112234.557500", "112235.347500", "112236.135000", "112236.922500", "112237.710000", "112238.500000", "112239.287500", "112240.075000", "112240.862500", "112241.652500", "112242.440000", "112243.227500", "112244.017500", "112244.805000", "112245.592500", "112246.380000", "112247.170000", "112247.957500", "112248.745000", "112249.532500", "112250.322500", "112251.110000", "112251.897500", "112252.685000", "112253.475000", "112254.262500", "112255.050000", "112255.837500", "112256.627500", "112257.415000", "112258.202500", "112258.990000", "112259.780000", "112300.567500", "112301.355000", "112302.145000", "112302.932500", "112303.720000", "112304.507500", "112305.297500", "112306.085000", "112306.872500", "112307.660000", "112308.450000", "112309.237500", "112310.025000", "112310.812500", "112311.602500", "112312.390000", "112313.177500", "112313.965000", "112314.755000", "112315.542500", "112316.330000", "112317.117500", "112317.907500", "112318.695000", "112319.482500", "112320.272500", "112321.060000", "112321.847500", "112322.635000", "112323.425000", "112324.212500", "112325.000000", "112325.787500", "112326.577500", "112327.365000", "112328.152500", "112328.940000", "112329.730000", "112330.517500", "112331.305000", "112332.092500", "112332.882500", "112333.670000", "112334.457500", "112335.245000", "112336.035000", "112336.822500", "112337.610000", "112338.400000", "112339.187500", "112339.975000", "112340.762500", "112341.552500", "112342.340000", "112343.127500", "112343.915000", "112344.705000", "112345.492500", "112346.280000", "112347.067500", "112347.857500", "112348.645000", "112349.432500", "112350.220000", "112351.010000", "112351.797500", "112352.585000", "112353.372500", "112354.162500", "112354.950000", "112355.737500", "112356.527500", "112357.315000", "112358.102500", "112358.890000", "112359.680000", "112400.467500", "112401.255000", "112402.042500", "112402.832500", "112403.620000", "112404.407500", "112405.195000", "112405.985000", "112406.772500", "112407.560000", "112408.347500", "112409.137500", "112409.925000", "112410.712500", "112411.500000", "112412.290000", "112413.077500", "112413.865000", "112414.655000", "112415.442500", "112416.230000", "112417.017500", "112417.807500", "112418.595000", "112419.382500", "112420.170000", "112420.960000", "112421.747500", "112422.535000", "112423.322500", "112424.112500", "112424.900000", "112425.687500", "112426.475000", "112427.265000", "112428.052500", "112428.840000", "112429.627500", "112430.417500", "112431.205000", "112431.992500", "112432.782500", "112433.570000", "112434.357500", "112435.145000", "112435.935000", "112436.722500", "112437.510000", "112438.297500", "112439.087500", "112439.875000", "112440.662500", "112441.450000", "112442.240000", "112443.027500", "112443.815000", "112444.602500", "112445.392500", "112446.180000", "112446.967500", "112447.755000", "112448.545000", "112449.332500", "112450.120000", "112450.910000", "112451.697500", "112452.485000", "112453.272500", "112454.062500", "112454.850000", "112455.637500", "112456.425000", "112457.215000", "112458.002500", "112458.790000", "112459.577500", "112500.367500", "112501.155000", "112501.942500", "112502.730000", "112503.520000", "112504.307500", "112505.095000", "112505.885000"],
      "ContentTime": ["111757.312000", "111757.312000", "111757.312000", "111757.312000", "111757.312000", "111757.312000", "111757.328000", "111757.328000", "111757.328000", "111757.328000", "111757.328000", "111757.328000", "111757.328000", "111757.343000", "111757.343000", "111757.343000", "111757.343000", "111757.343000", "111757.359000", "111757.359000", "111757.359000", "111757.359000", "111757.359000", "111757.359000", "111757.359000", "111757.359000", "111757.375000", "111757.375000", "111757.375000", "111757.375000", "111757.375000", "111757.375000", "111757.375000", "111817.281000", "111817.281000", "111817.281000", "111817.281000", "111817.296000", "111817.296000", "111817.296000", "111817.296000", "111817.296000", "111817.296000", "111817.296000", "111817.296000", "111817.312000", "111817.312000", "111817.312000", "111817.312000", "111817.312000", "111817.312000", "111817.312000", "111817.328000", "111817.328000", "111817.328000", "111817.328000", "111817.328000", "111817.343000", "111817.343000", "111837.281000", "111837.281000", "111837.281000", "111837.281000", "111837.296000", "111837.296000", "111837.296000", "111837.296000", "111837.296000", "111837.296000", "111837.296000", "111837.312000", "111837.312000", "111837.312000", "111837.312000", "111837.312000", "111837.312000", "111837.312000", "111837.328000", "111837.328000", "111837.328000", "111837.328000", "111837.328000", "111837.328000", "111837.328000", "111857.281000", "111857.281000", "111857.281000", "111857.281000", "111857.281000", "111857.296000", "111857.296000", "111857.296000", "111857.296000", "111857.312000", "111857.312000", "111857.312000", "111857.312000", "111857.328000", "111857.328000", "111857.328000", "111857.328000", "111857.328000", "111857.343000", "111857.343000", "111857.343000", "111857.343000", "111857.343000", "111857.343000", "111857.343000", "111857.359000", "111917.281000", "111917.281000", "111917.281000", "111917.281000", "111917.296000", "111917.296000", "111917.296000", "111917.296000", "111917.296000", "111917.296000", "111917.296000", "111917.312000", "111917.312000", "111917.312000", "111917.312000", "111917.312000", "111917.312000", "111917.312000", "111917.328000", "111917.328000", "111917.328000", "111917.328000", "111917.328000", "111917.343000", "111917.343000", "111937.281000", "111937.281000", "111937.281000", "111937.281000", "111937.281000", "111937.296000", "111937.296000", "111937.296000", "111937.296000", "111937.296000", "111937.296000", "111937.296000", "111937.312000", "111937.312000", "111937.312000", "111937.312000", "111937.312000", "111937.312000", "111937.312000", "111937.328000", "111937.328000", "111937.328000", "111937.328000", "111937.328000", "111937.343000", "111937.343000", "111957.281000", "111957.281000", "111957.281000", "111957.281000", "111957.281000", "111957.296000", "111957.296000", "111957.296000", "111957.296000", "111957.296000", "111957.296000", "111957.296000", "111957.312000", "111957.312000", "111957.312000", "111957.312000", "111957.312000", "111957.312000", "111957.312000", "111957.328000", "111957.328000", "111957.328000", "111957.328000", "111957.328000", "111957.328000", "112017.281000", "112017.281000", "112017.281000", "112017.281000", "112017.296000", "112017.296000", "112017.296000", "112017.296000", "112017.296000", "112017.296000", "112017.296000", "112017.312000", "112017.312000", "112017.312000", "112017.312000", "112017.312000", "112017.312000", "112017.328000", "112017.328000", "112017.328000", "112017.328000", "112017.328000", "112017.328000", "112017.328000", "112017.328000", "112037.281000", "112037.281000", "112037.281000", "112037.281000", "112037.296000", "112037.296000", "112037.296000", "112037.296000", "112037.296000", "112037.296000", "112037.296000", "112037.296000", "112037.312000", "112037.312000", "112037.312000", "112037.312000", "112037.312000", "112037.312000", "112037.312000", "112037.328000", "112037.328000", "112037.328000", "112037.328000", "112037.328000", "112037.328000", "112037.328000", "112057.281000", "112057.281000", "112057.281000", "112057.281000", "112057.296000", "112057.296000", "112057.296000", "112057.296000", "112057.296000", "112057.296000", "112057.296000", "112057.296000", "112057.312000", "112057.312000", "112057.312000", "112057.312000", "112057.312000", "112057.312000", "112057.312000", "112057.328000", "112057.328000", "112057.328000", "112057.328000", "112057.328000", "112057.328000", "112057.328000", "112117.281000", "112117.281000", "112117.281000", "112117.281000", "112117.296000", "112117.296000", "112117.296000", "112117.296000", "112117.296000", "112117.296000", "112117.296000", "112117.312000", "112117.312000", "112117.312000", "112117.312000", "112117.312000", "112117.312000", "112117.312000", "112117.312000", "112117.328000", "112117.328000", "112117.328000", "112117.328000", "112117.328000", "112117.328000", "112137.281000", "112137.281000", "112137.281000", "112137.281000", "112137.296000", "112137.296000", "112137.296000", "112137.296000", "112137.296000", "112137.296000", "112137.296000", "112137.312000", "112137.312000", "112137.312000", "112137.312000", "112137.312000", "112137.312000", "112137.328000", "112137.328000", "112137.328000", "112137.328000", "112137.328000", "112137.328000", "112137.328000", "112137.343000", "112137.343000", "112157.281000", "112157.281000", "112157.281000", "112157.281000", "112157.296000", "112157.296000", "112157.296000", "112157.296000", "112157.296000", "112157.312000", "112157.312000", "112157.312000", "112157.312000", "112157.312000", "112157.312000", "112157.312000", "112157.328000", "112157.328000", "112157.328000", "112157.328000", "112157.328000", "112157.328000", "112157.328000", "112157.343000", "112157.343000", "112217.281000", "112217.281000", "112217.296000", "112217.296000", "112217.296000", "112217.296000", "112217.296000", "112217.296000", "112217.296000", "112217.312000", "112217.312000", "112217.312000", "112217.312000", "112217.312000", "112217.312000", "112217.312000", "112217.312000", "112217.328000", "112217.328000", "112217.328000", "112217.328000", "112217.328000", "112217.328000", "112217.328000", "112217.343000", "112217.343000", "112237.281000", "112237.281000", "112237.281000", "112237.281000", "112237.296000", "112237.296000", "112237.296000", "112237.296000", "112237.296000", "112237.296000", "112237.296000", "112237.296000", "112237.312000", "112237.312000", "112237.312000", "112237.312000", "112237.312000", "112237.312000", "112237.312000", "112237.328000", "112237.328000", "112237.328000", "112237.328000", "112237.328000", "112237.328000", "112257.281000", "112257.281000", "112257.281000", "112257.281000", "112257.296000", "112257.296000", "112257.296000", "112257.296000", "112257.296000", "112257.296000", "112257.296000", "112257.312000", "112257.312000", "112257.312000", "112257.312000", "112257.312000", "112257.312000", "112257.328000", "112257.328000", "112257.328000", "112257.328000", "112257.328000", "112257.328000", "112257.328000", "112257.343000", "112317.281000", "112317.281000", "112317.281000", "112317.281000", "112317.296000", "112317.296000", "112317.296000", "112317.296000", "112317.296000", "112317.296000", "112317.296000", "112317.296000", "112317.312000", "112317.312000", "112317.312000", "112317.312000", "112317.312000", "112317.312000", "112317.312000", "112317.328000", "112317.328000", "112317.328000", "112317.328000", "112317.328000", "112317.328000", "112317.328000", "112337.281000", "112337.281000", "112337.281000", "112337.281000", "112337.296000", "112337.296000", "112337.296000", "112337.296000", "112337.296000", "112337.296000", "112337.312000", "112337.312000", "112337.312000", "112337.312000", "112337.312000", "112337.312000", "112337.328000", "112337.328000", "112337.328000", "112337.328000", "112337.328000", "112337.328000", "112337.328000", "112337.343000", "112337.343000", "112357.281000", "112357.281000", "112357.281000", "112357.281000", "112357.296000", "112357.296000", "112357.296000", "112357.296000", "112357.296000", "112357.296000", "112357.296000", "112357.296000", "112357.312000", "112357.312000", "112357.312000", "112357.312000", "112357.312000", "112357.312000", "112357.328000", "112357.328000", "112357.328000", "112357.328000", "112357.328000", "112357.328000", "112357.328000", "112357.343000", "112417.281000", "112417.281000", "112417.281000", "112417.281000", "112417.296000", "112417.296000", "112417.296000", "112417.296000", "112417.296000", "112417.296000", "112417.312000", "112417.312000", "112417.312000", "112417.312000", "112417.312000", "112417.328000", "112417.328000", "112417.328000", "112417.328000", "112417.343000", "112417.343000", "112417.343000", "112417.343000", "112417.343000", "112417.359000", "112437.281000", "112437.281000", "112437.281000", "112437.281000", "112437.296000", "112437.296000", "112437.296000", "112437.296000", "112437.296000", "112437.312000", "112437.312000", "112437.312000", "112437.312000", "112437.312000", "112437.312000", "112437.312000", "112437.312000", "112437.328000", "112437.328000", "112437.328000", "112437.328000", "112437.328000", "112437.328000", "112437.328000", "112437.343000", "112437.343000", "112457.281000", "112457.281000", "112457.281000", "112457.281000", "112457.296000", "112457.296000", "112457.296000", "112457.296000", "112457.296000", "112457.296000", "112457.296000", "112457.296000", "112457.312000", "112457.312000", "112457.312000", "112457.312000", "112457.312000", "112457.312000", "112457.328000", "112457.328000", "112457.328000", "112457.328000", "112457.328000", "112457.328000", "112457.328000", "112506.875000", "112506.875000", "112506.875000", "112506.890000", "112506.890000", "112506.890000", "112506.890000", "112506.890000", "112506.890000", "112506.890000", "112506.890000", "112506.906000", "112506.906000"],
