{
  "AcquisitionMatrixPE": 104,
  "AcquisitionNumber": 1,
  "AcquisitionTime": "11:41:25.695000",
  "BandwidthPerPixelPhaseEncode": 13.935,
  "BaseResolution": 104,
  "CoilString": "C:HEA;HEP",
  "ConversionSoftware": "dcm2niix",
  "ConversionSoftwareVersion": "v1.0.20210317",
  "DerivedVendorReportedEchoSpacing": 0.000690017,
  "DeviceSerialNumber": "35450",
  "DwellTime": 2.5e-06,
  "EchoTime": 0.0348,
  "EffectiveEchoSpacing": 0.000690017,
  "FlipAngle": 55,
  "ImageComments": "Unaliased MB8/PE3 (remote)",
  "ImageOrientationPatientDICOM": [1, 0, 0, 0, 0.995056, -0.0993197],
  "ImageType": [
    "ORIGINAL",
    "PRIMARY",
    "M",
    "MB",
    "ND",
    "MOSAIC"
],
  "ImagingFrequency": 123.235,
  "InPlanePhaseEncodingDirectionDICOM": "COL",
  "InstitutionAddress": "Univeristy Ave. 197,Newark,North East,US,07102-1814",
  "InstitutionName": "RUBIC",
  "InstitutionalDepartmentName": "Department",
  "MRAcquisitionType": "2D",
  "MagneticFieldStrength": 3,
  "Manufacturer": "Siemens",
  "ManufacturersModelName": "TrioTim",
  "Modality": "MR",
  "MultibandAccelerationFactor": 8,
  "PartialFourier": 0.875,
  "PatientPosition": "HFS",
  "PercentPhaseFOV": 100,
  "PercentSampling": 100,
  "PhaseEncodingDirection": "j-",
  "PhaseEncodingSteps": 91,
  "PhaseResolution": 1,
  "PixelBandwidth": 1923,
  "ProcedureStepDescription": "Cole^Michael",
  "ProtocolName": "cmrr_mbep2d_bold_2mm_MB8_Task_8x",
  "PulseSequenceDetails": "%CustomerSeq%\\cmrr_mbep2d_bold",
  "ReceiveCoilName": "32Ch_Head",
  "ReconMatrixPE": 104,
  "RepetitionTime": 0.785,
  "SAR": 0.139927,
  "ScanOptions": "PFP\\FS",
  "ScanningSequence": "EP",
  "SequenceName": "epfid2d1_104",
  "SequenceVariant": "SK\\SS",
  "SeriesDescription": "cmrr_mbep2d_bold_2mm_MB8_Task_8x",
  "SeriesNumber": 23,
  "ShimSetting": [2120, -387, -7269, 507, -26, -299, -56, 123],
  "SliceThickness": 2,
  "SliceTiming": [0, 0.44, 0.0875, 0.5275, 0.175, 0.615, 0.2625, 0.7025, 0.3525, 0, 0.44, 0.0875, 0.5275, 0.175, 0.615, 0.2625, 0.7025, 0.3525, 0, 0.44, 0.0875, 0.5275, 0.175, 0.615, 0.2625, 0.7025, 0.3525, 0, 0.44, 0.0875, 0.5275, 0.175, 0.615, 0.2625, 0.7025, 0.3525, 0, 0.44, 0.0875, 0.5275, 0.175, 0.615, 0.2625, 0.7025, 0.3525, 0, 0.44, 0.0875, 0.5275, 0.175, 0.615, 0.2625, 0.7025, 0.3525, 0, 0.44, 0.0875, 0.5275, 0.175, 0.615, 0.2625, 0.7025, 0.3525, 0, 0.44, 0.0875, 0.5275, 0.175, 0.615, 0.2625, 0.7025, 0.3525],
  "SoftwareVersions": "syngo MR B19",
  "SpacingBetweenSlices": 2,
  "StationName": "MRC35450",
  "TaskName": "cpro",
  "TotalReadoutTime": 0.0710717,
  "TxRefAmp": 337.104,
  "dcmmeta_affine": [
    [-2.0, 0.0, 0.0, 104.0],
    [0.0, 1.9901111125946045, -0.19863949716091156, -77.97496795654297],
    [0.0, 0.19863949716091156, 1.990111231803894, -111.92528533935547],
    [0.0, 0.0, 0.0, 1.0]
],
  "dcmmeta_reorient_transform": [
    [0.0, -1.0, 0.0, 103.0],
    [1.0, 0.0, 0.0, 0.0],
    [0.0, 0.0, 1.0, 0.0],
    [0.0, 0.0, 0.0, 1.0]
],
  "dcmmeta_shape": [104, 104, 72, 581],
  "dcmmeta_slice_dim": 2,
  "dcmmeta_version": 0.6,
  "global": {
    "const": {
      "AcquisitionMatrix": [104, 0, 0, 104],
      "AngioFlag": "N",
      "BitsAllocated": 16,
      "BitsStored": 12,
      "Columns": 936,
      "EchoNumbers": 1,
      "EchoTime": 34.8,
      "EchoTrainLength": 1,
      "FlipAngle": 55.0,
      "HighBit": 11,
      "ImageOrientationPatient": [1.0, 0.0, 0.0, 0.0, 0.9950555699221, -0.0993197501357],
      "ImagePositionPatient": [-936.0, -954.8927139018, -8.8313839780102],
      "ImageType": [
        "ORIGINAL",
        "PRIMARY",
        "M",
        "MB",
        "ND",
        "MOSAIC"
],
      "ImagedNucleus": "1H",
      "ImagingFrequency": 123.234545,
      "InPlanePhaseEncodingDirection": "COL",
      "MRAcquisitionType": "2D",
      "MagneticFieldStrength": 3.0,
      "Manufacturer": "SIEMENS",
      "ManufacturerModelName": "TrioTim",
      "Modality": "MR",
      "NumberOfAverages": 1.0,
      "NumberOfPhaseEncodingSteps": 91,
      "PercentPhaseFieldOfView": 100.0,
      "PercentSampling": 100.0,
      "PerformedProcedureStepStartTime": "101209.765000",
      "PhotometricInterpretation": "MONOCHROME2",
      "PixelBandwidth": 1923.0,
      "PixelRepresentation": 0,
      "PixelSpacing": [2.0, 2.0],
      "ProtocolName": "cmrr_mbep2d_bold_2mm_MB8_Task_8x",
      "RepetitionTime": 785.0,
      "Rows": 936,
      "SAR": 0.13992675359712,
      "SamplesPerPixel": 1,
      "ScanOptions": [
        "PFP",
        "FS"
],
      "ScanningSequence": "EP",
      "SequenceName": "epfid2d1_104",
      "SequenceVariant": [
        "SK",
        "SS"
],
      "SeriesDescription": "cmrr_mbep2d_bold_2mm_MB8_Task_8x",
      "SeriesNumber": 23,
      "SeriesTime": "114157.296000",
      "SliceLocation": -103.62742356852,
      "SliceThickness": 2.0,
      "SmallestImagePixelValue": 0,
      "SoftwareVersions": "syngo MR B19",
      "SpacingBetweenSlices": 2.0000000357085,
      "SpecificCharacterSet": "ISO_IR 100",
      "StudyID": "1",
      "StudyTime": "101209.687000",
      "TransmitCoilName": "Body",
      "VariableFlipAngleFlag": "N",
      "WindowCenterWidthExplanation": "Algo1",
      "dBdt": 0.0},
    "slices": {}
  },
  "time": {
    "samples": {
      "AcquisitionNumber": [1, 2, 3, 4, 5, 6, 7, 8, 9, 10, 11, 12, 13, 14, 15, 16, 17, 18, 19, 20, 21, 22, 23, 24, 25, 26, 27, 28, 29, 30, 31, 32, 33, 34, 35, 36, 37, 38, 39, 40, 41, 42, 43, 44, 45, 46, 47, 48, 49, 50, 51, 52, 53, 54, 55, 56, 57, 58, 59, 60, 61, 62, 63, 64, 65, 66, 67, 68, 69, 70, 71, 72, 73, 74, 75, 76, 77, 78, 79, 80, 81, 82, 83, 84, 85, 86, 87, 88, 89, 90, 91, 92, 93, 94, 95, 96, 97, 98, 99, 100, 101, 102, 103, 104, 105, 106, 107, 108, 109, 110, 111, 112, 113, 114, 115, 116, 117, 118, 119, 120, 121, 122, 123, 124, 125, 126, 127, 128, 129, 130, 131, 132, 133, 134, 135, 136, 137, 138, 139, 140, 141, 142, 143, 144, 145, 146, 147, 148, 149, 150, 151, 152, 153, 154, 155, 156, 157, 158, 159, 160, 161, 162, 163, 164, 165, 166, 167, 168, 169, 170, 171, 172, 173, 174, 175, 176, 177, 178, 179, 180, 181, 182, 183, 184, 185, 186, 187, 188, 189, 190, 191, 192, 193, 194, 195, 196, 197, 198, 199, 200, 201, 202, 203, 204, 205, 206, 207, 208, 209, 210, 211, 212, 213, 214, 215, 216, 217, 218, 219, 220, 221, 222, 223, 224, 225, 226, 227, 228, 229, 230, 231, 232, 233, 234, 235, 236, 237, 238, 239, 240, 241, 242, 243, 244, 245, 246, 247, 248, 249, 250, 251, 252, 253, 254, 255, 256, 257, 258, 259, 260, 261, 262, 263, 264, 265, 266, 267, 268, 269, 270, 271, 272, 273, 274, 275, 276, 277, 278, 279, 280, 281, 282, 283, 284, 285, 286, 287, 288, 289, 290, 291, 292, 293, 294, 295, 296, 297, 298, 299, 300, 301, 302, 303, 304, 305, 306, 307, 308, 309, 310, 311, 312, 313, 314, 315, 316, 317, 318, 319, 320, 321, 322, 323, 324, 325, 326, 327, 328, 329, 330, 331, 332, 333, 334, 335, 336, 337, 338, 339, 340, 341, 342, 343, 344, 345, 346, 347, 348, 349, 350, 351, 352, 353, 354, 355, 356, 357, 358, 359, 360, 361, 362, 363, 364, 365, 366, 367, 368, 369, 370, 371, 372, 373, 374, 375, 376, 377, 378, 379, 380, 381, 382, 383, 384, 385, 386, 387, 388, 389, 390, 391, 392, 393, 394, 395, 396, 397, 398, 399, 400, 401, 402, 403, 404, 405, 406, 407, 408, 409, 410, 411, 412, 413, 414, 415, 416, 417, 418, 419, 420, 421, 422, 423, 424, 425, 426, 427, 428, 429, 430, 431, 432, 433, 434, 435, 436, 437, 438, 439, 440, 441, 442, 443, 444, 445, 446, 447, 448, 449, 450, 451, 452, 453, 454, 455, 456, 457, 458, 459, 460, 461, 462, 463, 464, 465, 466, 467, 468, 469, 470, 471, 472, 473, 474, 475, 476, 477, 478, 479, 480, 481, 482, 483, 484, 485, 486, 487, 488, 489, 490, 491, 492, 493, 494, 495, 496, 497, 498, 499, 500, 501, 502, 503, 504, 505, 506, 507, 508, 509, 510, 511, 512, 513, 514, 515, 516, 517, 518, 519, 520, 521, 522, 523, 524, 525, 526, 527, 528, 529, 530, 531, 532, 533, 534, 535, 536, 537, 538, 539, 540, 541, 542, 543, 544, 545, 546, 547, 548, 549, 550, 551, 552, 553, 554, 555, 556, 557, 558, 559, 560, 561, 562, 563, 564, 565, 566, 567, 568, 569, 570, 571, 572, 573, 574, 575, 576, 577, 578, 579, 580, 581],
      "AcquisitionTime": ["114125.695000", "114126.485000", "114127.272500", "114128.060000", "114128.850000", "114129.637500", "114130.425000", "114131.212500", "114132.002500", "114132.790000", "114133.577500", "114134.365000", "114135.155000", "114135.942500", "114136.730000", "114137.517500", "114138.307500", "114139.095000", "114139.882500", "114140.670000", "114141.460000", "114142.247500", "114143.035000", "114143.822500", "114144.612500", "114145.400000", "114146.187500", "114146.977500", "114147.765000", "114148.552500", "114149.340000", "114150.130000", "114150.917500", "114151.705000", "114152.492500", "114153.282500", "114154.070000", "114154.857500", "114155.645000", "114156.435000", "114157.222500", "114158.010000", "114158.797500", "114159.587500", "114200.375000", "114201.162500", "114201.950000", "114202.740000", "114203.527500", "114204.315000", "114205.105000", "114205.892500", "114206.680000", "114207.467500", "114208.257500", "114209.045000", "114209.832500", "114210.620000", "114211.410000", "114212.197500", "114212.985000", "114213.772500", "114214.562500", "114215.350000", "114216.137500", "114216.925000", "114217.715000", "114218.502500", "114219.290000", "114220.077500", "114220.867500", "114221.655000", "114222.442500", "114223.232500", "114224.020000", "114224.807500", "114225.595000", "114226.385000", "114227.172500", "114227.960000", "114228.747500", "114229.537500", "114230.325000", "114231.112500", "114231.900000", "114232.690000", "114233.477500", "114234.265000", "114235.052500", "114235.842500", "114236.630000", "114237.417500", "114238.205000", "114238.995000", "114239.782500", "114240.570000", "114241.360000", "114242.147500", "114242.935000", "114243.722500", "114244.512500", "114245.300000", "114246.087500", "114246.875000", "114247.665000", "114248.452500", "114249.240000", "114250.027500", "114250.817500", "114251.605000", "114252.392500", "114253.180000", "114253.970000", "114254.757500", "114255.545000", "114256.332500", "114257.122500", "114257.910000", "114258.697500", "114259.487500", "114300.275000", "114301.062500", "114301.850000", "114302.640000", "114303.427500", "114304.215000", "114305.002500", "114305.792500", "114306.580000", "114307.367500", "114308.155000", "114308.945000", "114309.732500", "114310.520000", "114311.307500", "114312.097500", "114312.885000", "114313.672500", "114314.460000", "114315.250000", "114316.037500", "114316.825000", "114317.615000", "114318.402500", "114319.190000", "114319.977500", "114320.767500", "114321.555000", "114322.342500", "114323.130000", "114323.920000", "114324.707500", "114325.495000", "114326.282500", "114327.072500", "114327.860000", "114328.647500", "114329.435000", "114330.225000", "114331.012500", "114331.800000", "114332.587500", "114333.377500", "114334.165000", "114334.952500", "114335.742500", "114336.530000", "114337.317500", "114338.105000", "114338.895000", "114339.682500", "114340.470000", "114341.257500", "114342.047500", "114342.835000", "114343.622500", "114344.410000", "114345.200000", "114345.987500", "114346.775000", "114347.562500", "114348.352500", "114349.140000", "114349.927500", "114350.715000", "114351.505000", "114352.292500", "114353.080000", "114353.870000", "114354.657500", "114355.445000", "114356.232500", "114357.022500", "114357.810000", "114358.597500", "114359.385000", "114400.175000", "114400.962500", "114401.750000", "114402.537500", "114403.327500", "114404.115000", "114404.902500", "114405.690000", "114406.480000", "114407.267500", "114408.055000", "114408.842500", "114409.632500", "114410.420000", "114411.207500", "114411.997500", "114412.785000", "114413.572500", "114414.360000", "114415.150000", "114415.937500", "114416.725000", "114417.512500", "114418.302500", "114419.090000", "114419.877500", "114420.665000", "114421.455000", "114422.242500", "114423.030000", "114423.817500", "114424.607500", "114425.395000", "114426.182500", "114426.970000", "114427.760000", "114428.547500", "114429.335000", "114430.125000", "114430.912500", "114431.700000", "114432.487500", "114433.277500", "114434.065000", "114434.852500", "114435.640000", "114436.430000", "114437.217500", "114438.005000", "114438.792500", "114439.582500", "114440.370000", "114441.157500", "114441.945000", "114442.735000", "114443.522500", "114444.310000", "114445.100000", "114445.887500", "114446.675000", "114447.462500", "114448.252500", "114449.040000", "114449.827500", "114450.615000", "114451.405000", "114452.192500", "114452.980000", "114453.767500", "114454.557500", "114455.345000", "114456.132500", "114456.920000", "114457.710000", "114458.497500", "114459.285000", "114500.072500", "114500.862500", "114501.650000", "114502.437500", "114503.227500", "114504.015000", "114504.802500", "114505.590000", "114506.380000", "114507.167500", "114507.955000", "114508.742500", "114509.532500", "114510.320000", "114511.107500", "114511.895000", "114512.685000", "114513.472500", "114514.260000", "114515.047500", "114515.837500", "114516.625000", "114517.412500", "114518.200000", "114518.990000", "114519.777500", "114520.565000", "114521.355000", "114522.142500", "114522.930000", "114523.717500", "114524.507500", "114525.295000", "114526.082500", "114526.870000", "114527.660000", "114528.447500", "114529.235000", "114530.022500", "114530.812500", "114531.600000", "114532.387500", "114533.175000", "114533.965000", "114534.752500", "114535.540000", "114536.327500", "114537.117500", "114537.905000", "114538.692500", "114539.482500", "114540.270000", "114541.057500", "114541.845000", "114542.635000", "114543.422500", "114544.210000", "114544.997500", "114545.787500", "114546.575000", "114547.362500", "114548.150000", "114548.940000", "114549.727500", "114550.515000", "114551.302500", "114552.092500", "114552.880000", "114553.667500", "114554.455000", "114555.245000", "114556.032500", "114556.820000", "114557.610000", "114558.397500", "114559.185000", "114559.972500", "114600.762500", "114601.550000", "114602.337500", "114603.125000", "114603.915000", "114604.702500", "114605.490000", "114606.277500", "114607.067500", "114607.855000", "114608.642500", "114609.430000", "114610.220000", "114611.007500", "114611.795000", "114612.582500", "114613.372500", "114614.160000", "114614.947500", "114615.737500", "114616.525000", "114617.312500", "114618.100000", "114618.890000", "114619.677500", "114620.465000", "114621.252500", "114622.042500", "114622.830000", "114623.617500", "114624.405000", "114625.195000", "114625.982500", "114626.770000", "114627.557500", "114628.347500", "114629.135000", "114629.922500", "114630.710000", "114631.500000", "114632.287500", "114633.075000", "114633.865000", "114634.652500", "114635.440000", "114636.227500", "114637.017500", "114637.805000", "114638.592500", "114639.380000", "114640.170000", "114640.957500", "114641.745000", "114642.532500", "114643.322500", "114644.110000", "114644.897500", "114645.685000", "114646.475000", "114647.262500", "114648.050000", "114648.837500", "114649.627500", "114650.415000", "114651.202500", "114651.992500", "114652.780000", "114653.567500", "114654.355000", "114655.145000", "114655.932500", "114656.720000", "114657.507500", "114658.297500", "114659.085000", "114659.872500", "114700.660000", "114701.450000", "114702.237500", "114703.025000", "114703.812500", "114704.602500", "114705.390000", "114706.177500", "114706.965000", "114707.755000", "114708.542500", "114709.330000", "114710.120000", "114710.907500", "114711.695000", "114712.482500", "114713.272500", "114714.060000", "114714.847500", "114715.635000", "114716.425000", "114717.212500", "114718.000000", "114718.787500", "114719.577500", "114720.365000", "114721.152500", "114721.940000", "114722.730000", "114723.517500", "114724.305000", "114725.092500", "114725.882500", "114726.670000", "114727.457500", "114728.247500", "114729.035000", "114729.822500", "114730.610000", "114731.400000", "114732.187500", "114732.975000", "114733.762500", "114734.552500", "114735.340000", "114736.127500", "114736.915000", "114737.705000", "114738.492500", "114739.280000", "114740.067500", "114740.857500", "114741.645000", "114742.432500", "114743.220000", "114744.010000", "114744.797500", "114745.585000", "114746.375000", "114747.162500", "114747.950000", "114748.737500", "114749.527500", "114750.315000", "114751.102500", "114751.890000", "114752.680000", "114753.467500", "114754.255000", "114755.042500", "114755.832500", "114756.620000", "114757.407500", "114758.195000", "114758.985000", "114759.772500", "114800.560000", "114801.350000", "114802.137500", "114802.925000", "114803.712500", "114804.502500", "114805.290000", "114806.077500", "114806.865000", "114807.655000", "114808.442500", "114809.230000", "114810.017500", "114810.807500", "114811.595000", "114812.382500", "114813.170000", "114813.960000", "114814.747500", "114815.535000", "114816.322500", "114817.112500", "114817.900000", "114818.687500", "114819.477500", "114820.265000", "114821.052500", "114821.840000", "114822.630000", "114823.417500", "114824.205000", "114824.992500", "114825.782500", "114826.570000", "114827.357500", "114828.145000", "114828.935000", "114829.722500", "114830.510000", "114831.297500", "114832.087500", "114832.875000", "114833.662500", "114834.450000", "114835.240000", "114836.027500", "114836.815000", "114837.605000", "114838.392500", "114839.180000", "114839.967500", "114840.757500", "114841.545000", "114842.332500", "114843.120000", "114843.910000", "114844.697500", "114845.485000", "114846.272500", "114847.062500", "114847.850000", "114848.637500", "114849.425000", "114850.215000", "114851.002500", "114851.790000", "114852.577500", "114853.367500", "114854.155000", "114854.942500", "114855.732500", "114856.520000", "114857.307500", "114858.095000", "114858.885000", "114859.672500", "114900.460000", "114901.247500", "114902.037500", "114902.825000"],
      "ContentTime": ["114157.312000", "114157.312000", "114157.312000", "114157.312000", "114157.312000", "114157.312000", "114157.312000", "114157.312000", "114157.328000", "114157.328000", "114157.328000", "114157.328000", "114157.328000", "114157.328000", "114157.328000", "114157.343000", "114157.343000", "114157.343000", "114157.343000", "114157.343000", "114157.343000", "114157.343000", "114157.343000", "114157.359000", "114157.359000", "114157.359000", "114157.359000", "114157.359000", "114157.359000", "114157.359000", "114157.375000", "114157.375000", "114157.375000", "114157.375000", "114157.375000", "114157.375000", "114217.281000", "114217.281000", "114217.281000", "114217.281000", "114217.296000", "114217.296000", "114217.296000", "114217.296000", "114217.296000", "114217.296000", "114217.296000", "114217.296000", "114217.312000", "114217.312000", "114217.312000", "114217.312000", "114217.312000", "114217.312000", "114217.312000", "114217.328000", "114217.328000", "114217.328000", "114217.328000", "114217.328000", "114217.328000", "114217.328000", "114237.281000", "114237.281000", "114237.281000", "114237.281000", "114237.281000", "114237.296000", "114237.296000", "114237.296000", "114237.296000", "114237.296000", "114237.296000", "114237.296000", "114237.312000", "114237.312000", "114237.312000", "114237.312000", "114237.312000", "114237.312000", "114237.328000", "114237.328000", "114237.328000", "114237.328000", "114237.328000", "114237.328000", "114237.328000", "114257.281000", "114257.281000", "114257.281000", "114257.281000", "114257.296000", "114257.296000", "114257.296000", "114257.296000", "114257.296000", "114257.296000", "114257.296000", "114257.296000", "114257.312000", "114257.312000", "114257.312000", "114257.312000", "114257.312000", "114257.312000", "114257.312000", "114257.328000", "114257.328000", "114257.328000", "114257.328000", "114257.328000", "114257.328000", "114257.328000", "114317.281000", "114317.281000", "114317.281000", "114317.281000", "114317.281000", "114317.296000", "114317.296000", "114317.296000", "114317.296000", "114317.296000", "114317.296000", "114317.296000", "114317.312000", "114317.312000", "114317.312000", "114317.312000", "114317.312000", "114317.312000", "114317.312000", "114317.328000", "114317.328000", "114317.328000", "114317.328000", "114317.328000", "114317.328000", "114337.281000", "114337.281000", "114337.281000", "114337.281000", "114337.296000", "114337.296000", "114337.296000", "114337.296000", "114337.296000", "114337.296000", "114337.296000", "114337.296000", "114337.312000", "114337.312000", "114337.312000", "114337.312000", "114337.312000", "114337.312000", "114337.312000", "114337.328000", "114337.328000", "114337.328000", "114337.328000", "114337.328000", "114337.328000", "114337.328000", "114357.281000", "114357.281000", "114357.281000", "114357.281000", "114357.281000", "114357.296000", "114357.296000", "114357.296000", "114357.296000", "114357.296000", "114357.296000", "114357.296000", "114357.312000", "114357.312000", "114357.312000", "114357.312000", "114357.312000", "114357.312000", "114357.312000", "114357.312000", "114357.328000", "114357.328000", "114357.328000", "114357.328000", "114357.328000", "114417.281000", "114417.281000", "114417.281000", "114417.281000", "114417.281000", "114417.296000", "114417.296000", "114417.296000", "114417.296000", "114417.296000", "114417.296000", "114417.296000", "114417.312000", "114417.312000", "114417.312000", "114417.312000", "114417.312000", "114417.312000", "114417.312000", "114417.328000", "114417.328000", "114417.328000", "114417.328000", "114417.328000", "114417.328000", "114417.328000", "114437.281000", "114437.281000", "114437.281000", "114437.281000", "114437.296000", "114437.296000", "114437.296000", "114437.296000", "114437.296000", "114437.296000", "114437.296000", "114437.296000", "114437.312000", "114437.312000", "114437.312000", "114437.312000", "114437.312000", "114437.312000", "114437.312000", "114437.328000", "114437.328000", "114437.328000", "114437.328000", "114437.328000", "114437.328000", "114457.281000", "114457.281000", "114457.281000", "114457.281000", "114457.296000", "114457.296000", "114457.296000", "114457.296000", "114457.296000", "114457.296000", "114457.296000", "114457.296000", "114457.312000", "114457.312000", "114457.312000", "114457.312000", "114457.312000", "114457.312000", "114457.312000", "114457.328000", "114457.328000", "114457.328000", "114457.328000", "114457.328000", "114457.328000", "114457.328000", "114517.281000", "114517.281000", "114517.281000", "114517.281000", "114517.281000", "114517.296000", "114517.296000", "114517.296000", "114517.296000", "114517.296000", "114517.296000", "114517.296000", "114517.312000", "114517.312000", "114517.312000", "114517.312000", "114517.328000", "114517.328000", "114517.328000", "114517.328000", "114517.328000", "114517.328000", "114517.328000", "114517.343000", "114517.343000", "114537.281000", "114537.281000", "114537.281000", "114537.281000", "114537.281000", "114537.296000", "114537.296000", "114537.296000", "114537.296000", "114537.296000", "114537.296000", "114537.296000", "114537.312000", "114537.312000", "114537.312000", "114537.312000", "114537.312000", "114537.312000", "114537.312000", "114537.328000", "114537.328000", "114537.328000", "114537.328000", "114537.328000", "114537.328000", "114537.343000", "114557.281000", "114557.281000", "114557.281000", "114557.281000", "114557.296000", "114557.296000", "114557.296000", "114557.296000", "114557.296000", "114557.296000", "114557.296000", "114557.312000", "114557.312000", "114557.312000", "114557.312000", "114557.312000", "114557.312000", "114557.312000", "114557.312000", "114557.328000", "114557.328000", "114557.328000", "114557.328000", "114557.328000", "114557.328000", "114617.281000", "114617.281000", "114617.281000", "114617.281000", "114617.296000", "114617.296000", "114617.296000", "114617.296000", "114617.296000", "114617.312000", "114617.312000", "114617.312000", "114617.312000", "114617.312000", "114617.312000", "114617.312000", "114617.312000", "114617.328000", "114617.328000", "114617.328000", "114617.328000", "114617.328000", "114617.328000", "114617.328000", "114617.343000", "114637.281000", "114637.281000", "114637.281000", "114637.281000", "114637.296000", "114637.296000", "114637.296000", "114637.296000", "114637.296000", "114637.296000", "114637.296000", "114637.296000", "114637.312000", "114637.312000", "114637.312000", "114637.312000", "114637.312000", "114637.312000", "114637.312000", "114637.328000", "114637.328000", "114637.328000", "114637.328000", "114637.328000", "114637.328000", "114637.328000", "114657.281000", "114657.281000", "114657.281000", "114657.281000", "114657.296000", "114657.296000", "114657.296000", "114657.296000", "114657.296000", "114657.296000", "114657.296000", "114657.312000", "114657.312000", "114657.312000", "114657.312000", "114657.312000", "114657.328000", "114657.328000", "114657.328000", "114657.328000", "114657.328000", "114657.328000", "114657.328000", "114657.343000", "114657.343000", "114717.281000", "114717.281000", "114717.281000", "114717.281000", "114717.296000", "114717.296000", "114717.296000", "114717.296000", "114717.296000", "114717.312000", "114717.312000", "114717.312000", "114717.312000", "114717.312000", "114717.312000", "114717.328000", "114717.328000", "114717.328000", "114717.328000", "114717.328000", "114717.328000", "114717.328000", "114717.343000", "114717.343000", "114717.343000", "114717.343000", "114737.281000", "114737.281000", "114737.281000", "114737.281000", "114737.296000", "114737.296000", "114737.296000", "114737.296000", "114737.296000", "114737.296000", "114737.296000", "114737.296000", "114737.312000", "114737.312000", "114737.312000", "114737.312000", "114737.312000", "114737.328000", "114737.328000", "114737.328000", "114737.328000", "114737.328000", "114737.328000", "114737.328000", "114737.328000", "114757.281000", "114757.281000", "114757.281000", "114757.281000", "114757.296000", "114757.296000", "114757.296000", "114757.296000", "114757.296000", "114757.296000", "114757.296000", "114757.296000", "114757.312000", "114757.312000", "114757.312000", "114757.312000", "114757.312000", "114757.312000", "114757.312000", "114757.328000", "114757.328000", "114757.328000", "114757.328000", "114757.328000", "114757.328000", "114757.328000", "114817.281000", "114817.281000", "114817.281000", "114817.281000", "114817.296000", "114817.296000", "114817.296000", "114817.296000", "114817.296000", "114817.296000", "114817.296000", "114817.296000", "114817.312000", "114817.312000", "114817.312000", "114817.312000", "114817.312000", "114817.312000", "114817.312000", "114817.312000", "114817.328000", "114817.328000", "114817.328000", "114817.328000", "114817.328000", "114837.281000", "114837.281000", "114837.281000", "114837.281000", "114837.296000", "114837.296000", "114837.296000", "114837.296000", "114837.296000", "114837.296000", "114837.296000", "114837.312000", "114837.312000", "114837.312000", "114837.312000", "114837.312000", "114837.312000", "114837.328000", "114837.328000", "114837.328000", "114837.328000", "114837.328000", "114837.328000", "114837.328000", "114837.343000", "114837.343000", "114857.281000", "114857.281000", "114857.281000", "114857.281000", "114857.296000", "114857.296000", "114857.296000", "114857.296000", "114857.296000", "114857.296000", "114857.312000", "114857.312000", "114857.312000", "114857.312000", "114857.312000", "114857.312000", "114857.328000", "114857.328000", "114857.328000", "114857.328000", "114857.343000", "114857.343000", "114857.343000", "114857.343000", "114857.343000", "114904.593000", "114904.593000", "114904.609000", "114904.609000", "114904.609000", "114904.609000", "114904.609000", "114904.609000", "114904.609000", "114904.625000"],
