{
  "AcquisitionMatrixPE": 104,
  "AcquisitionNumber": 1,
  "AcquisitionTime": "16:17:37.707500",
  "BandwidthPerPixelPhaseEncode": 13.935,
  "BaseResolution": 104,
  "CoilString": "C:HEA;HEP",
  "ConversionSoftware": "dcm2niix",
  "ConversionSoftwareVersion": "v1.0.20210317",
  "DerivedVendorReportedEchoSpacing": 0.000690017,
  "DeviceSerialNumber": "35450",
  "DwellTime": 2.5e-06,
  "EchoTime": 0.0348,
  "EffectiveEchoSpacing": 0.000690017,
  "FlipAngle": 55,
  "ImageComments": "Unaliased MB8/PE3",
  "ImageOrientationPatientDICOM": [0.999877, 0.00139631, 0.0156451, -2.00762e-08, 0.996041, -0.0888943],
  "ImageType": [
    "ORIGINAL",
    "PRIMARY",
    "M",
    "MB",
    "ND",
    "MOSAIC"
],
  "ImagingFrequency": 123.235,
  "InPlanePhaseEncodingDirectionDICOM": "COL",
  "InstitutionAddress": "Univeristy Ave. 197,Newark,North East,US,07102-1814",
  "InstitutionName": "RUBIC",
  "InstitutionalDepartmentName": "Department",
  "MRAcquisitionType": "2D",
  "MagneticFieldStrength": 3,
  "Manufacturer": "Siemens",
  "ManufacturersModelName": "TrioTim",
  "Modality": "MR",
  "MultibandAccelerationFactor": 8,
  "PartialFourier": 0.875,
  "PatientPosition": "HFS",
  "PercentPhaseFOV": 100,
  "PercentSampling": 100,
  "PhaseEncodingDirection": "j-",
  "PhaseEncodingSteps": 91,
  "PhaseResolution": 1,
  "PixelBandwidth": 1923,
  "ProcedureStepDescription": "Cole^Michael",
  "ProtocolName": "cmrr_mbep2d_bold_2mm_MB8_Task_8x",
  "PulseSequenceDetails": "%CustomerSeq%\\cmrr_mbep2d_bold",
  "ReceiveCoilName": "32Ch_Head",
  "ReconMatrixPE": 104,
  "RepetitionTime": 0.785,
  "SAR": 0.118804,
  "ScanOptions": "PFP\\FS",
  "ScanningSequence": "EP",
  "SequenceName": "epfid2d1_104",
  "SequenceVariant": "SK\\SS",
  "SeriesDescription": "cmrr_mbep2d_bold_2mm_MB8_Task_8x",
  "SeriesNumber": 23,
  "ShimSetting": [2132, -540, -7396, 565, 272, -374, -445, 77],
  "SliceThickness": 2,
  "SliceTiming": [0, 0.44, 0.0875, 0.5275, 0.1775, 0.615, 0.265, 0.7025, 0.3525, 0, 0.44, 0.0875, 0.5275, 0.1775, 0.615, 0.265, 0.7025, 0.3525, 0, 0.44, 0.0875, 0.5275, 0.1775, 0.615, 0.265, 0.7025, 0.3525, 0, 0.44, 0.0875, 0.5275, 0.1775, 0.615, 0.265, 0.7025, 0.3525, 0, 0.44, 0.0875, 0.5275, 0.1775, 0.615, 0.265, 0.7025, 0.3525, 0, 0.44, 0.0875, 0.5275, 0.1775, 0.615, 0.265, 0.7025, 0.3525, 0, 0.44, 0.0875, 0.5275, 0.1775, 0.615, 0.265, 0.7025, 0.3525, 0, 0.44, 0.0875, 0.5275, 0.1775, 0.615, 0.265, 0.7025, 0.3525],
  "SoftwareVersions": "syngo MR B19",
  "SpacingBetweenSlices": 2,
  "StationName": "MRC35450",
  "TaskName": "cpro",
  "TotalReadoutTime": 0.0710717,
  "TxRefAmp": 330.216,
  "dcmmeta_affine": [
    [-1.9997532367706299, -4.0152379199298593e-08, 0.03141463175415993, 104.2278823852539],
    [-0.0027926217298954725, 1.992082118988037, -0.17776665091514587, -76.58936309814453],
    [0.031290262937545776, 0.17778858542442322, 1.9918363094329834, -111.09686279296875],
    [0.0, 0.0, 0.0, 1.0]
],
  "dcmmeta_reorient_transform": [
    [0.0, -1.0, 0.0, 103.0],
    [1.0, 0.0, 0.0, 0.0],
    [0.0, 0.0, 1.0, 0.0],
    [0.0, 0.0, 0.0, 1.0]
],
  "dcmmeta_shape": [104, 104, 72, 581],
  "dcmmeta_slice_dim": 2,
  "dcmmeta_version": 0.6,
  "global": {
    "const": {
      "AcquisitionMatrix": [104, 0, 0, 104],
      "AngioFlag": "N",
      "BitsAllocated": 16,
      "BitsStored": 12,
      "Columns": 936,
      "EchoNumbers": 1,
      "EchoTime": 34.8,
      "EchoTrainLength": 1,
      "FlipAngle": 55.0,
      "HighBit": 11,
      "ImageOrientationPatient": [0.99987663248909, 0.00139631083141, 0.01564513081859, -2.007619e-08, 0.99604106568838, -0.0888942937559],
      "ImagePositionPatient": [-936.12522193565, -958.46299483512, -31.841333234354],
      "ImageType": [
        "ORIGINAL",
        "PRIMARY",
        "M",
        "MB",
        "ND",
        "MOSAIC"
],
      "ImagedNucleus": "1H",
      "ImagingFrequency": 123.234503,
      "InPlanePhaseEncodingDirection": "COL",
      "MRAcquisitionType": "2D",
      "MagneticFieldStrength": 3.0,
      "Manufacturer": "SIEMENS",
      "ManufacturerModelName": "TrioTim",
      "Modality": "MR",
      "NumberOfAverages": 1.0,
      "NumberOfPhaseEncodingSteps": 91,
      "PercentPhaseFieldOfView": 100.0,
      "PercentSampling": 100.0,
      "PerformedProcedureStepStartTime": "143429.375000",
      "PhotometricInterpretation": "MONOCHROME2",
      "PixelBandwidth": 1923.0,
      "PixelRepresentation": 0,
      "PixelSpacing": [2.0, 2.0],
      "ProtocolName": "cmrr_mbep2d_bold_2mm_MB8_Task_8x",
      "RepetitionTime": 785.0,
      "Rows": 936,
      "SAR": 0.11880362850658,
      "SamplesPerPixel": 1,
      "ScanOptions": [
        "PFP",
        "FS"
],
      "ScanningSequence": "EP",
      "SequenceName": "epfid2d1_104",
      "SequenceVariant": [
        "SK",
        "SS"
],
      "SeriesDescription": "cmrr_mbep2d_bold_2mm_MB8_Task_8x",
      "SeriesNumber": 23,
      "SeriesTime": "175249.218000",
      "SliceLocation": -102.19872696317,
      "SliceThickness": 2.0,
      "SmallestImagePixelValue": 0,
      "SoftwareVersions": "syngo MR B19",
      "SpacingBetweenSlices": 1.9999999597893,
      "SpecificCharacterSet": "ISO_IR 100",
      "StudyID": "1",
      "StudyTime": "143429.203000",
      "TransmitCoilName": "Body",
      "VariableFlipAngleFlag": "N",
      "WindowCenterWidthExplanation": "Algo1",
      "dBdt": 0.0},
    "slices": {}
  },
  "time": {
    "samples": {
      "AcquisitionNumber": [1, 2, 3, 4, 5, 6, 7, 8, 9, 10, 11, 12, 13, 14, 15, 16, 17, 18, 19, 20, 21, 22, 23, 24, 25, 26, 27, 28, 29, 30, 31, 32, 33, 34, 35, 36, 37, 38, 39, 40, 41, 42, 43, 44, 45, 46, 47, 48, 49, 50, 51, 52, 53, 54, 55, 56, 57, 58, 59, 60, 61, 62, 63, 64, 65, 66, 67, 68, 69, 70, 71, 72, 73, 74, 75, 76, 77, 78, 79, 80, 81, 82, 83, 84, 85, 86, 87, 88, 89, 90, 91, 92, 93, 94, 95, 96, 97, 98, 99, 100, 101, 102, 103, 104, 105, 106, 107, 108, 109, 110, 111, 112, 113, 114, 115, 116, 117, 118, 119, 120, 121, 122, 123, 124, 125, 126, 127, 128, 129, 130, 131, 132, 133, 134, 135, 136, 137, 138, 139, 140, 141, 142, 143, 144, 145, 146, 147, 148, 149, 150, 151, 152, 153, 154, 155, 156, 157, 158, 159, 160, 161, 162, 163, 164, 165, 166, 167, 168, 169, 170, 171, 172, 173, 174, 175, 176, 177, 178, 179, 180, 181, 182, 183, 184, 185, 186, 187, 188, 189, 190, 191, 192, 193, 194, 195, 196, 197, 198, 199, 200, 201, 202, 203, 204, 205, 206, 207, 208, 209, 210, 211, 212, 213, 214, 215, 216, 217, 218, 219, 220, 221, 222, 223, 224, 225, 226, 227, 228, 229, 230, 231, 232, 233, 234, 235, 236, 237, 238, 239, 240, 241, 242, 243, 244, 245, 246, 247, 248, 249, 250, 251, 252, 253, 254, 255, 256, 257, 258, 259, 260, 261, 262, 263, 264, 265, 266, 267, 268, 269, 270, 271, 272, 273, 274, 275, 276, 277, 278, 279, 280, 281, 282, 283, 284, 285, 286, 287, 288, 289, 290, 291, 292, 293, 294, 295, 296, 297, 298, 299, 300, 301, 302, 303, 304, 305, 306, 307, 308, 309, 310, 311, 312, 313, 314, 315, 316, 317, 318, 319, 320, 321, 322, 323, 324, 325, 326, 327, 328, 329, 330, 331, 332, 333, 334, 335, 336, 337, 338, 339, 340, 341, 342, 343, 344, 345, 346, 347, 348, 349, 350, 351, 352, 353, 354, 355, 356, 357, 358, 359, 360, 361, 362, 363, 364, 365, 366, 367, 368, 369, 370, 371, 372, 373, 374, 375, 376, 377, 378, 379, 380, 381, 382, 383, 384, 385, 386, 387, 388, 389, 390, 391, 392, 393, 394, 395, 396, 397, 398, 399, 400, 401, 402, 403, 404, 405, 406, 407, 408, 409, 410, 411, 412, 413, 414, 415, 416, 417, 418, 419, 420, 421, 422, 423, 424, 425, 426, 427, 428, 429, 430, 431, 432, 433, 434, 435, 436, 437, 438, 439, 440, 441, 442, 443, 444, 445, 446, 447, 448, 449, 450, 451, 452, 453, 454, 455, 456, 457, 458, 459, 460, 461, 462, 463, 464, 465, 466, 467, 468, 469, 470, 471, 472, 473, 474, 475, 476, 477, 478, 479, 480, 481, 482, 483, 484, 485, 486, 487, 488, 489, 490, 491, 492, 493, 494, 495, 496, 497, 498, 499, 500, 501, 502, 503, 504, 505, 506, 507, 508, 509, 510, 511, 512, 513, 514, 515, 516, 517, 518, 519, 520, 521, 522, 523, 524, 525, 526, 527, 528, 529, 530, 531, 532, 533, 534, 535, 536, 537, 538, 539, 540, 541, 542, 543, 544, 545, 546, 547, 548, 549, 550, 551, 552, 553, 554, 555, 556, 557, 558, 559, 560, 561, 562, 563, 564, 565, 566, 567, 568, 569, 570, 571, 572, 573, 574, 575, 576, 577, 578, 579, 580, 581],
      "AcquisitionTime": ["161737.707500", "161738.497500", "161739.285000", "161740.072500", "161740.862500", "161741.650000", "161742.437500", "161743.225000", "161744.015000", "161744.802500", "161745.590000", "161746.377500", "161747.167500", "161747.955000", "161748.742500", "161749.530000", "161750.320000", "161751.107500", "161751.895000", "161752.682500", "161753.472500", "161754.260000", "161755.047500", "161755.835000", "161756.625000", "161757.412500", "161758.200000", "161758.990000", "161759.777500", "161800.565000", "161801.352500", "161802.142500", "161802.930000", "161803.717500", "161804.505000", "161805.295000", "161806.082500", "161806.870000", "161807.657500", "161808.447500", "161809.235000", "161810.022500", "161810.810000", "161811.600000", "161812.387500", "161813.175000", "161813.962500", "161814.752500", "161815.540000", "161816.327500", "161817.117500", "161817.905000", "161818.692500", "161819.480000", "161820.270000", "161821.057500", "161821.845000", "161822.632500", "161823.422500", "161824.210000", "161824.997500", "161825.785000", "161826.575000", "161827.362500", "161828.150000", "161828.937500", "161829.727500", "161830.515000", "161831.302500", "161832.090000", "161832.880000", "161833.667500", "161834.455000", "161835.245000", "161836.032500", "161836.820000", "161837.607500", "161838.397500", "161839.185000", "161839.972500", "161840.760000", "161841.550000", "161842.337500", "161843.125000", "161843.912500", "161844.702500", "161845.490000", "161846.277500", "161847.065000", "161847.855000", "161848.642500", "161849.430000", "161850.217500", "161851.007500", "161851.795000", "161852.582500", "161853.372500", "161854.160000", "161854.947500", "161855.735000", "161856.525000", "161857.312500", "161858.100000", "161858.887500", "161859.677500", "161900.465000", "161901.252500", "161902.040000", "161902.830000", "161903.617500", "161904.405000", "161905.192500", "161905.982500", "161906.770000", "161907.557500", "161908.347500", "161909.135000", "161909.922500", "161910.710000", "161911.500000", "161912.287500", "161913.075000", "161913.862500", "161914.652500", "161915.440000", "161916.227500", "161917.015000", "161917.805000", "161918.592500", "161919.380000", "161920.167500", "161920.957500", "161921.745000", "161922.532500", "161923.320000", "161924.110000", "161924.897500", "161925.685000", "161926.475000", "161927.262500", "161928.050000", "161928.837500", "161929.627500", "161930.415000", "161931.202500", "161931.990000", "161932.780000", "161933.567500", "161934.355000", "161935.142500", "161935.932500", "161936.720000", "161937.507500", "161938.295000", "161939.085000", "161939.872500", "161940.660000", "161941.447500", "161942.237500", "161943.025000", "161943.812500", "161944.602500", "161945.390000", "161946.177500", "161946.965000", "161947.755000", "161948.542500", "161949.330000", "161950.117500", "161950.907500", "161951.695000", "161952.482500", "161953.270000", "161954.060000", "161954.847500", "161955.635000", "161956.422500", "161957.212500", "161958.000000", "161958.787500", "161959.575000", "162000.365000", "162001.152500", "162001.940000", "162002.730000", "162003.517500", "162004.305000", "162005.092500", "162005.882500", "162006.670000", "162007.457500", "162008.245000", "162009.035000", "162009.822500", "162010.610000", "162011.397500", "162012.187500", "162012.975000", "162013.762500", "162014.550000", "162015.340000", "162016.127500", "162016.915000", "162017.702500", "162018.492500", "162019.280000", "162020.067500", "162020.857500", "162021.645000", "162022.432500", "162023.220000", "162024.010000", "162024.797500", "162025.585000", "162026.372500", "162027.162500", "162027.950000", "162028.737500", "162029.525000", "162030.315000", "162031.102500", "162031.890000", "162032.677500", "162033.467500", "162034.255000", "162035.042500", "162035.830000", "162036.620000", "162037.407500", "162038.195000", "162038.985000", "162039.772500", "162040.560000", "162041.347500", "162042.137500", "162042.925000", "162043.712500", "162044.500000", "162045.290000", "162046.077500", "162046.865000", "162047.652500", "162048.442500", "162049.230000", "162050.017500", "162050.805000", "162051.595000", "162052.382500", "162053.170000", "162053.957500", "162054.747500", "162055.535000", "162056.322500", "162057.112500", "162057.900000", "162058.687500", "162059.475000", "162100.265000", "162101.052500", "162101.840000", "162102.627500", "162103.417500", "162104.205000", "162104.992500", "162105.780000", "162106.570000", "162107.357500", "162108.145000", "162108.932500", "162109.722500", "162110.510000", "162111.297500", "162112.085000", "162112.875000", "162113.662500", "162114.450000", "162115.240000", "162116.027500", "162116.815000", "162117.602500", "162118.392500", "162119.180000", "162119.967500", "162120.755000", "162121.545000", "162122.332500", "162123.120000", "162123.907500", "162124.697500", "162125.485000", "162126.272500", "162127.060000", "162127.850000", "162128.637500", "162129.425000", "162130.212500", "162131.002500", "162131.790000", "162132.577500", "162133.367500", "162134.155000", "162134.942500", "162135.730000", "162136.520000", "162137.307500", "162138.095000", "162138.882500", "162139.672500", "162140.460000", "162141.247500", "162142.035000", "162142.825000", "162143.612500", "162144.400000", "162145.187500", "162145.977500", "162146.765000", "162147.552500", "162148.340000", "162149.130000", "162149.917500", "162150.705000", "162151.495000", "162152.282500", "162153.070000", "162153.857500", "162154.647500", "162155.435000", "162156.222500", "162157.010000", "162157.800000", "162158.587500", "162159.375000", "162200.162500", "162200.952500", "162201.740000", "162202.527500", "162203.315000", "162204.105000", "162204.892500", "162205.680000", "162206.467500", "162207.257500", "162208.045000", "162208.832500", "162209.622500", "162210.410000", "162211.197500", "162211.985000", "162212.775000", "162213.562500", "162214.350000", "162215.137500", "162215.927500", "162216.715000", "162217.502500", "162218.290000", "162219.080000", "162219.867500", "162220.655000", "162221.442500", "162222.232500", "162223.020000", "162223.807500", "162224.597500", "162225.385000", "162226.172500", "162226.960000", "162227.750000", "162228.537500", "162229.325000", "162230.112500", "162230.902500", "162231.690000", "162232.477500", "162233.265000", "162234.055000", "162234.842500", "162235.630000", "162236.417500", "162237.207500", "162237.995000", "162238.782500", "162239.570000", "162240.360000", "162241.147500", "162241.935000", "162242.725000", "162243.512500", "162244.300000", "162245.087500", "162245.877500", "162246.665000", "162247.452500", "162248.240000", "162249.030000", "162249.817500", "162250.605000", "162251.392500", "162252.182500", "162252.970000", "162253.757500", "162254.545000", "162255.335000", "162256.122500", "162256.910000", "162257.697500", "162258.487500", "162259.275000", "162300.062500", "162300.852500", "162301.640000", "162302.427500", "162303.215000", "162304.005000", "162304.792500", "162305.580000", "162306.367500", "162307.157500", "162307.945000", "162308.732500", "162309.520000", "162310.310000", "162311.097500", "162311.885000", "162312.672500", "162313.462500", "162314.250000", "162315.037500", "162315.825000", "162316.615000", "162317.402500", "162318.190000", "162318.980000", "162319.767500", "162320.555000", "162321.342500", "162322.132500", "162322.920000", "162323.707500", "162324.495000", "162325.285000", "162326.072500", "162326.860000", "162327.647500", "162328.437500", "162329.225000", "162330.012500", "162330.800000", "162331.590000", "162332.377500", "162333.165000", "162333.952500", "162334.742500", "162335.530000", "162336.317500", "162337.107500", "162337.895000", "162338.682500", "162339.470000", "162340.260000", "162341.047500", "162341.835000", "162342.622500", "162343.412500", "162344.200000", "162344.987500", "162345.775000", "162346.565000", "162347.352500", "162348.140000", "162348.927500", "162349.717500", "162350.505000", "162351.292500", "162352.080000", "162352.870000", "162353.657500", "162354.445000", "162355.235000", "162356.022500", "162356.810000", "162357.597500", "162358.387500", "162359.175000", "162359.962500", "162400.750000", "162401.540000", "162402.327500", "162403.115000", "162403.902500", "162404.692500", "162405.480000", "162406.267500", "162407.055000", "162407.845000", "162408.632500", "162409.420000", "162410.207500", "162410.997500", "162411.785000", "162412.572500", "162413.362500", "162414.150000", "162414.937500", "162415.725000", "162416.515000", "162417.302500", "162418.090000", "162418.877500", "162419.667500", "162420.455000", "162421.242500", "162422.030000", "162422.820000", "162423.607500", "162424.395000", "162425.182500", "162425.972500", "162426.760000", "162427.547500", "162428.335000", "162429.125000", "162429.912500", "162430.700000", "162431.490000", "162432.277500", "162433.065000", "162433.852500", "162434.642500", "162435.430000", "162436.217500", "162437.005000", "162437.795000", "162438.582500", "162439.370000", "162440.157500", "162440.947500", "162441.735000", "162442.522500", "162443.310000", "162444.100000", "162444.887500", "162445.675000", "162446.462500", "162447.252500", "162448.040000", "162448.827500", "162449.617500", "162450.405000", "162451.192500", "162451.980000", "162452.770000", "162453.557500", "162454.345000", "162455.132500", "162455.922500", "162456.710000", "162457.497500", "162458.285000", "162459.075000", "162459.862500", "162500.650000", "162501.437500", "162502.227500", "162503.015000", "162503.802500", "162504.590000", "162505.380000", "162506.167500", "162506.955000", "162507.745000", "162508.532500", "162509.320000", "162510.107500", "162510.897500", "162511.685000", "162512.472500", "162513.260000", "162514.050000", "162514.837500"],
      "ContentTime": ["175249.218000", "175249.218000", "175349.187000", "175349.187000", "175349.187000", "175349.187000", "175349.187000", "175349.187000", "175349.203000", "175349.203000", "175349.203000", "175349.203000", "175349.203000", "175349.203000", "175349.218000", "175349.218000", "175349.218000", "175349.218000", "175349.218000", "175349.234000", "175349.234000", "175349.234000", "175349.234000", "175349.234000", "175349.234000", "175349.234000", "175349.234000", "175349.250000", "175349.250000", "175349.250000", "175449.187000", "175449.187000", "175449.187000", "175449.187000", "175449.187000", "175449.187000", "175449.203000", "175449.203000", "175449.203000", "175449.203000", "175449.203000", "175449.203000", "175449.203000", "175449.218000", "175449.218000", "175449.218000", "175449.218000", "175449.218000", "175449.218000", "175449.218000", "175449.234000", "175449.234000", "175449.234000", "175449.234000", "175449.234000", "175449.234000", "175449.234000", "175449.250000", "175549.187000", "175549.187000", "175549.187000", "175549.187000", "175549.187000", "175549.187000", "175549.203000", "175549.203000", "175549.203000", "175549.203000", "175549.203000", "175549.203000", "175549.203000", "175549.218000", "175549.218000", "175549.218000", "175549.218000", "175549.218000", "175549.218000", "175549.218000", "175549.234000", "175549.234000", "175549.234000", "175549.234000", "175549.234000", "175549.250000", "175549.250000", "175549.250000", "175649.187000", "175649.187000", "175649.187000", "175649.187000", "175649.187000", "175649.187000", "175649.203000", "175649.203000", "175649.203000", "175649.203000", "175649.203000", "175649.203000", "175649.203000", "175649.218000", "175649.218000", "175649.218000", "175649.218000", "175649.218000", "175649.218000", "175649.218000", "175649.234000", "175649.234000", "175649.234000", "175649.234000", "175649.234000", "175649.250000", "175649.250000", "175649.250000", "175749.187000", "175749.187000", "175749.187000", "175749.187000", "175749.187000", "175749.187000", "175749.203000", "175749.203000", "175749.203000", "175749.203000", "175749.203000", "175749.203000", "175749.218000", "175749.218000", "175749.218000", "175749.218000", "175749.218000", "175749.218000", "175749.234000", "175749.234000", "175749.234000", "175749.234000", "175749.234000", "175749.234000", "175749.234000", "175749.250000", "175749.250000", "175749.250000", "175749.250000", "175849.187000", "175849.187000", "175849.187000", "175849.187000", "175849.187000", "175849.203000", "175849.203000", "175849.203000", "175849.203000", "175849.218000", "175849.218000", "175849.218000", "175849.218000", "175849.218000", "175849.218000", "175849.218000", "175849.234000", "175849.234000", "175849.234000", "175849.234000", "175849.234000", "175849.234000", "175849.234000", "175849.234000", "175849.250000", "175849.250000", "175849.265000", "175849.265000", "175949.187000", "175949.187000", "175949.187000", "175949.187000", "175949.187000", "175949.187000", "175949.203000", "175949.203000", "175949.203000", "175949.203000", "175949.203000", "175949.203000", "175949.203000", "175949.218000", "175949.218000", "175949.218000", "175949.218000", "175949.234000", "175949.234000", "175949.234000", "175949.234000", "175949.234000", "175949.234000", "175949.234000", "175949.250000", "175949.250000", "175949.250000", "175949.250000", "180049.187000", "180049.187000", "180049.187000", "180049.187000", "180049.187000", "180049.187000", "180049.203000", "180049.203000", "180049.203000", "180049.203000", "180049.203000", "180049.203000", "180049.203000", "180049.218000", "180049.218000", "180049.218000", "180049.218000", "180049.218000", "180049.218000", "180049.218000", "180049.234000", "180049.234000", "180049.234000", "180049.234000", "180049.234000", "180049.234000", "180049.234000", "180049.250000", "180149.187000", "180149.187000", "180149.187000", "180149.187000", "180149.187000", "180149.187000", "180149.203000", "180149.203000", "180149.203000", "180149.203000", "180149.203000", "180149.203000", "180149.203000", "180149.218000", "180149.218000", "180149.218000", "180149.218000", "180149.218000", "180149.218000", "180149.218000", "180149.234000", "180149.234000", "180149.234000", "180149.234000", "180149.234000", "180149.250000", "180149.250000", "180149.250000", "180249.187000", "180249.187000", "180249.187000", "180249.187000", "180249.187000", "180249.187000", "180249.203000", "180249.203000", "180249.203000", "180249.203000", "180249.203000", "180249.203000", "180249.203000", "180249.218000", "180249.218000", "180249.218000", "180249.218000", "180249.218000", "180249.218000", "180249.218000", "180249.234000", "180249.234000", "180249.234000", "180249.234000", "180249.234000", "180249.250000", "180249.250000", "180249.250000", "180349.187000", "180349.187000", "180349.187000", "180349.187000", "180349.187000", "180349.187000", "180349.203000", "180349.203000", "180349.203000", "180349.203000", "180349.203000", "180349.203000", "180349.203000", "180349.218000", "180349.218000", "180349.218000", "180349.218000", "180349.218000", "180349.218000", "180349.218000", "180349.234000", "180349.234000", "180349.234000", "180349.234000", "180349.234000", "180349.234000", "180349.234000", "180349.250000", "180449.187000", "180449.187000", "180449.187000", "180449.187000", "180449.187000", "180449.187000", "180449.203000", "180449.203000", "180449.203000", "180449.203000", "180449.203000", "180449.203000", "180449.203000", "180449.218000", "180449.218000", "180449.218000", "180449.218000", "180449.218000", "180449.218000", "180449.234000", "180449.234000", "180449.234000", "180449.234000", "180449.234000", "180449.250000", "180449.250000", "180449.250000", "180449.250000", "180449.250000", "180549.187000", "180549.187000", "180549.187000", "180549.187000", "180549.187000", "180549.187000", "180549.203000", "180549.203000", "180549.203000", "180549.203000", "180549.203000", "180549.203000", "180549.203000", "180549.218000", "180549.218000", "180549.218000", "180549.218000", "180549.218000", "180549.218000", "180549.218000", "180549.234000", "180549.234000", "180549.234000", "180549.234000", "180549.234000", "180549.250000", "180549.250000", "180549.250000", "180649.187000", "180649.187000", "180649.187000", "180649.187000", "180649.187000", "180649.187000", "180649.203000", "180649.203000", "180649.203000", "180649.203000", "180649.203000", "180649.203000", "180649.203000", "180649.218000", "180649.218000", "180649.218000", "180649.218000", "180649.218000", "180649.218000", "180649.218000", "180649.234000", "180649.234000", "180649.234000", "180649.234000", "180649.234000", "180649.234000", "180649.234000", "180649.250000", "180749.187000", "180749.187000", "180749.187000", "180749.187000", "180749.187000", "180749.187000", "180749.203000", "180749.203000", "180749.203000", "180749.203000", "180749.203000", "180749.203000", "180749.203000", "180749.218000", "180749.218000", "180749.218000", "180749.218000", "180749.218000", "180749.234000", "180749.234000", "180749.234000", "180749.234000", "180749.234000", "180749.234000", "180749.250000", "180749.250000", "180749.250000", "180749.250000", "180849.187000", "180849.187000", "180849.187000", "180849.187000", "180849.187000", "180849.203000", "180849.203000", "180849.203000", "180849.203000", "180849.203000", "180849.203000", "180849.203000", "180849.218000", "180849.218000", "180849.218000", "180849.218000", "180849.218000", "180849.218000", "180849.218000", "180849.234000", "180849.234000", "180849.234000", "180849.234000", "180849.234000", "180849.250000", "180849.250000", "180849.250000", "180849.250000", "180949.187000", "180949.187000", "180949.187000", "180949.187000", "180949.187000", "180949.187000", "180949.203000", "180949.203000", "180949.203000", "180949.203000", "180949.203000", "180949.203000", "180949.203000", "180949.218000", "180949.218000", "180949.218000", "180949.218000", "180949.218000", "180949.218000", "180949.234000", "180949.234000", "180949.234000", "180949.234000", "180949.234000", "180949.234000", "180949.250000", "180949.250000", "180949.250000", "181049.187000", "181049.187000", "181049.187000", "181049.187000", "181049.187000", "181049.187000", "181049.203000", "181049.203000", "181049.203000", "181049.203000", "181049.203000", "181049.203000", "181049.218000", "181049.218000", "181049.218000", "181049.218000", "181049.218000", "181049.218000", "181049.234000", "181049.234000", "181049.234000", "181049.234000", "181049.234000", "181049.234000", "181049.250000", "181049.250000", "181049.250000", "181049.250000", "181149.187000", "181149.187000", "181149.187000", "181149.203000", "181149.203000", "181149.203000", "181149.203000", "181149.203000", "181149.203000", "181149.218000", "181149.218000", "181149.218000", "181149.218000", "181149.218000", "181149.218000", "181149.218000", "181149.234000", "181149.234000", "181149.234000", "181149.234000", "181149.234000", "181149.234000", "181149.234000", "181149.250000", "181149.250000", "181149.250000", "181149.250000", "181149.250000", "181249.187000", "181249.187000", "181249.187000", "181249.187000", "181249.187000", "181249.187000", "181249.203000", "181249.203000", "181249.203000", "181249.203000", "181249.203000", "181249.203000", "181249.203000", "181249.218000", "181249.218000", "181249.218000", "181249.218000", "181249.218000", "181249.218000", "181249.218000", "181249.234000", "181249.234000", "181249.234000", "181249.234000", "181249.234000", "181249.234000", "181249.250000", "181249.250000", "181249.250000", "181322.421000", "181322.421000", "181322.421000", "181322.437000", "181322.437000", "181322.437000", "181322.437000", "181322.437000", "181322.453000", "181322.453000", "181322.453000", "181322.453000", "181322.453000", "181322.453000", "181322.453000", "181322.468000"],
      "DataSetTrailingPadding": [
        "\u0000\u0000\u0000\u0000\u0000\u0000\u0000\u0000\u0000\u0000\u0000\u0000\u0000\u0000\u0000\u0000\u0000\u0000\u0000\u0000\u0000\u0000\u0000\u0000\u0000\u0000\u0000\u0000\u0000\u0000\u0000\u0000\u0000\u0000\u0000\u0000\u0000\u0000\u0000\u0000\u0000\u0000\u0000\u0000\u0000\u0000\u0000\u0000\u0000\u0000\u0000\u0000\u0000\u0000\u0000\u0000",
        "\u0000\u0000\u0000\u0000\u0000\u0000\u0000\u0000\u0000\u0000\u0000\u0000\u0000\u0000\u0000\u0000\u0000\u0000\u0000\u0000\u0000\u0000\u0000\u0000\u0000\u0000\u0000\u0000\u0000\u0000\u0000\u0000\u0000\u0000\u0000\u0000\u0000\u0000\u0000\u0000\u0000\u0000\u0000\u0000\u0000\u0000\u0000\u0000\u0000\u0000\u0000\u0000\u0000\u0000",
        "\u0000\u0000\u0000\u0000\u0000\u0000\u0000\u0000\u0000\u0000\u0000\u0000\u0000\u0000\u0000\u0000\u0000\u0000\u0000\u0000\u0000\u0000\u0000\u0000\u0000\u0000\u0000\u0000\u0000\u0000\u0000\u0000\u0000\u0000\u0000\u0000\u0000\u0000\u0000\u0000\u0000\u0000\u0000\u0000\u0000\u0000\u0000\u0000\u0000\u0000\u0000\u0000\u0000\u0000\u0000\u0000",
        "\u0000\u0000\u0000\u0000\u0000\u0000\u0000\u0000\u0000\u0000\u0000\u0000\u0000\u0000\u0000\u0000\u0000\u0000\u0000\u0000\u0000\u0000\u0000\u0000\u0000\u0000\u0000\u0000\u0000\u0000\u0000\u0000\u0000\u0000\u0000\u0000\u0000\u0000\u0000\u0000\u0000\u0000\u0000\u0000\u0000\u0000\u0000\u0000\u0000\u0000\u0000\u0000\u0000\u0000",
        "\u0000\u0000\u0000\u0000\u0000\u0000\u0000\u0000\u0000\u0000\u0000\u0000\u0000\u0000\u0000\u0000\u0000\u0000\u0000\u0000\u0000\u0000\u0000\u0000\u0000\u0000\u0000\u0000\u0000\u0000\u0000\u0000\u0000\u0000\u0000\u0000\u0000\u0000\u0000\u0000\u0000\u0000\u0000\u0000\u0000\u0000\u0000\u0000\u0000\u0000\u0000\u0000\u0000\u0000\u0000\u0000\u0000\u0000",
