{
  "AcquisitionMatrixPE": 104,
  "AcquisitionNumber": 1,
  "AcquisitionTime": "15:45:7.742500",
  "BandwidthPerPixelPhaseEncode": 13.935,
  "BaseResolution": 104,
  "CoilString": "C:HEA;HEP",
  "ConversionSoftware": "dcm2niix",
  "ConversionSoftwareVersion": "v1.0.20210317",
  "DerivedVendorReportedEchoSpacing": 0.000690017,
  "DeviceSerialNumber": "35450",
  "DwellTime": 2.5e-06,
  "EchoTime": 0.0348,
  "EffectiveEchoSpacing": 0.000690017,
  "FlipAngle": 55,
  "ImageComments": "Unaliased MB8/PE3",
  "ImageOrientationPatientDICOM": [0.999877, 0.00139631, 0.0156451, -2.00762e-08, 0.996041, -0.0888943],
  "ImageType": [
    "ORIGINAL",
    "PRIMARY",
    "M",
    "MB",
    "ND",
    "MOSAIC"
],
  "ImagingFrequency": 123.235,
  "InPlanePhaseEncodingDirectionDICOM": "COL",
  "InstitutionAddress": "Univeristy Ave. 197,Newark,North East,US,07102-1814",
  "InstitutionName": "RUBIC",
  "InstitutionalDepartmentName": "Department",
  "MRAcquisitionType": "2D",
  "MagneticFieldStrength": 3,
  "Manufacturer": "Siemens",
  "ManufacturersModelName": "TrioTim",
  "Modality": "MR",
  "MultibandAccelerationFactor": 8,
  "PartialFourier": 0.875,
  "PatientPosition": "HFS",
  "PercentPhaseFOV": 100,
  "PercentSampling": 100,
  "PhaseEncodingDirection": "j-",
  "PhaseEncodingSteps": 91,
  "PhaseResolution": 1,
  "PixelBandwidth": 1923,
  "ProcedureStepDescription": "Cole^Michael",
  "ProtocolName": "cmrr_mbep2d_bold_2mm_MB8_Task_8x",
  "PulseSequenceDetails": "%CustomerSeq%\\cmrr_mbep2d_bold",
  "ReceiveCoilName": "32Ch_Head",
  "ReconMatrixPE": 104,
  "RepetitionTime": 0.785,
  "SAR": 0.118804,
  "ScanOptions": "PFP\\FS",
  "ScanningSequence": "EP",
  "SequenceName": "epfid2d1_104",
  "SequenceVariant": "SK\\SS",
  "SeriesDescription": "cmrr_mbep2d_bold_2mm_MB8_Task_8x",
  "SeriesNumber": 15,
  "ShimSetting": [2132, -540, -7396, 565, 272, -374, -445, 77],
  "SliceThickness": 2,
  "SliceTiming": [0, 0.4375, 0.0875, 0.525, 0.175, 0.6125, 0.2625, 0.7, 0.35, 0, 0.4375, 0.0875, 0.525, 0.175, 0.6125, 0.2625, 0.7, 0.35, 0, 0.4375, 0.0875, 0.525, 0.175, 0.6125, 0.2625, 0.7, 0.35, 0, 0.4375, 0.0875, 0.525, 0.175, 0.6125, 0.2625, 0.7, 0.35, 0, 0.4375, 0.0875, 0.525, 0.175, 0.6125, 0.2625, 0.7, 0.35, 0, 0.4375, 0.0875, 0.525, 0.175, 0.6125, 0.2625, 0.7, 0.35, 0, 0.4375, 0.0875, 0.525, 0.175, 0.6125, 0.2625, 0.7, 0.35, 0, 0.4375, 0.0875, 0.525, 0.175, 0.6125, 0.2625, 0.7, 0.35],
  "SoftwareVersions": "syngo MR B19",
  "SpacingBetweenSlices": 2,
  "StationName": "MRC35450",
  "TaskName": "cpro",
  "TotalReadoutTime": 0.0710717,
  "TxRefAmp": 330.216,
  "dcmmeta_affine": [
    [-1.9997532367706299, -4.0152379199298593e-08, 0.03141463175415993, 104.2278823852539],
    [-0.0027926217298954725, 1.992082118988037, -0.17776665091514587, -76.58936309814453],
    [0.031290262937545776, 0.17778858542442322, 1.9918363094329834, -111.09686279296875],
    [0.0, 0.0, 0.0, 1.0]
],
  "dcmmeta_reorient_transform": [
    [0.0, -1.0, 0.0, 103.0],
    [1.0, 0.0, 0.0, 0.0],
    [0.0, 0.0, 1.0, 0.0],
    [0.0, 0.0, 0.0, 1.0]
],
  "dcmmeta_shape": [104, 104, 72, 581],
  "dcmmeta_slice_dim": 2,
  "dcmmeta_version": 0.6,
  "global": {
    "const": {
      "AcquisitionMatrix": [104, 0, 0, 104],
      "AngioFlag": "N",
      "BitsAllocated": 16,
      "BitsStored": 12,
      "Columns": 936,
      "EchoNumbers": 1,
      "EchoTime": 34.8,
      "EchoTrainLength": 1,
      "FlipAngle": 55.0,
      "HighBit": 11,
      "ImageOrientationPatient": [0.99987663248909, 0.00139631083141, 0.01564513081859, -2.007619e-08, 0.99604106568838, -0.0888942937559],
      "ImagePositionPatient": [-936.12522193565, -958.46299483512, -31.841333234354],
      "ImageType": [
        "ORIGINAL",
        "PRIMARY",
        "M",
        "MB",
        "ND",
        "MOSAIC"
],
      "ImagedNucleus": "1H",
      "ImagingFrequency": 123.234503,
      "InPlanePhaseEncodingDirection": "COL",
      "MRAcquisitionType": "2D",
      "MagneticFieldStrength": 3.0,
      "Manufacturer": "SIEMENS",
      "ManufacturerModelName": "TrioTim",
      "Modality": "MR",
      "NumberOfAverages": 1.0,
      "NumberOfPhaseEncodingSteps": 91,
      "PercentPhaseFieldOfView": 100.0,
      "PercentSampling": 100.0,
      "PerformedProcedureStepStartTime": "143429.375000",
      "PhotometricInterpretation": "MONOCHROME2",
      "PixelBandwidth": 1923.0,
      "PixelRepresentation": 0,
      "PixelSpacing": [2.0, 2.0],
      "ProtocolName": "cmrr_mbep2d_bold_2mm_MB8_Task_8x",
      "RepetitionTime": 785.0,
      "Rows": 936,
      "SAR": 0.11880362850658,
      "SamplesPerPixel": 1,
      "ScanOptions": [
        "PFP",
        "FS"
],
      "ScanningSequence": "EP",
      "SequenceName": "epfid2d1_104",
      "SequenceVariant": [
        "SK",
        "SS"
],
      "SeriesDescription": "cmrr_mbep2d_bold_2mm_MB8_Task_8x",
      "SeriesNumber": 15,
      "SeriesTime": "162858.296000",
      "SliceLocation": -102.19872696317,
      "SliceThickness": 2.0,
      "SmallestImagePixelValue": 0,
      "SoftwareVersions": "syngo MR B19",
      "SpacingBetweenSlices": 1.9999999597893,
      "SpecificCharacterSet": "ISO_IR 100",
      "StudyID": "1",
      "StudyTime": "143429.203000",
      "TransmitCoilName": "Body",
      "VariableFlipAngleFlag": "N",
      "WindowCenterWidthExplanation": "Algo1",
      "dBdt": 0.0},
    "slices": {}
  },
  "time": {
    "samples": {
      "AcquisitionNumber": [1, 2, 3, 4, 5, 6, 7, 8, 9, 10, 11, 12, 13, 14, 15, 16, 17, 18, 19, 20, 21, 22, 23, 24, 25, 26, 27, 28, 29, 30, 31, 32, 33, 34, 35, 36, 37, 38, 39, 40, 41, 42, 43, 44, 45, 46, 47, 48, 49, 50, 51, 52, 53, 54, 55, 56, 57, 58, 59, 60, 61, 62, 63, 64, 65, 66, 67, 68, 69, 70, 71, 72, 73, 74, 75, 76, 77, 78, 79, 80, 81, 82, 83, 84, 85, 86, 87, 88, 89, 90, 91, 92, 93, 94, 95, 96, 97, 98, 99, 100, 101, 102, 103, 104, 105, 106, 107, 108, 109, 110, 111, 112, 113, 114, 115, 116, 117, 118, 119, 120, 121, 122, 123, 124, 125, 126, 127, 128, 129, 130, 131, 132, 133, 134, 135, 136, 137, 138, 139, 140, 141, 142, 143, 144, 145, 146, 147, 148, 149, 150, 151, 152, 153, 154, 155, 156, 157, 158, 159, 160, 161, 162, 163, 164, 165, 166, 167, 168, 169, 170, 171, 172, 173, 174, 175, 176, 177, 178, 179, 180, 181, 182, 183, 184, 185, 186, 187, 188, 189, 190, 191, 192, 193, 194, 195, 196, 197, 198, 199, 200, 201, 202, 203, 204, 205, 206, 207, 208, 209, 210, 211, 212, 213, 214, 215, 216, 217, 218, 219, 220, 221, 222, 223, 224, 225, 226, 227, 228, 229, 230, 231, 232, 233, 234, 235, 236, 237, 238, 239, 240, 241, 242, 243, 244, 245, 246, 247, 248, 249, 250, 251, 252, 253, 254, 255, 256, 257, 258, 259, 260, 261, 262, 263, 264, 265, 266, 267, 268, 269, 270, 271, 272, 273, 274, 275, 276, 277, 278, 279, 280, 281, 282, 283, 284, 285, 286, 287, 288, 289, 290, 291, 292, 293, 294, 295, 296, 297, 298, 299, 300, 301, 302, 303, 304, 305, 306, 307, 308, 309, 310, 311, 312, 313, 314, 315, 316, 317, 318, 319, 320, 321, 322, 323, 324, 325, 326, 327, 328, 329, 330, 331, 332, 333, 334, 335, 336, 337, 338, 339, 340, 341, 342, 343, 344, 345, 346, 347, 348, 349, 350, 351, 352, 353, 354, 355, 356, 357, 358, 359, 360, 361, 362, 363, 364, 365, 366, 367, 368, 369, 370, 371, 372, 373, 374, 375, 376, 377, 378, 379, 380, 381, 382, 383, 384, 385, 386, 387, 388, 389, 390, 391, 392, 393, 394, 395, 396, 397, 398, 399, 400, 401, 402, 403, 404, 405, 406, 407, 408, 409, 410, 411, 412, 413, 414, 415, 416, 417, 418, 419, 420, 421, 422, 423, 424, 425, 426, 427, 428, 429, 430, 431, 432, 433, 434, 435, 436, 437, 438, 439, 440, 441, 442, 443, 444, 445, 446, 447, 448, 449, 450, 451, 452, 453, 454, 455, 456, 457, 458, 459, 460, 461, 462, 463, 464, 465, 466, 467, 468, 469, 470, 471, 472, 473, 474, 475, 476, 477, 478, 479, 480, 481, 482, 483, 484, 485, 486, 487, 488, 489, 490, 491, 492, 493, 494, 495, 496, 497, 498, 499, 500, 501, 502, 503, 504, 505, 506, 507, 508, 509, 510, 511, 512, 513, 514, 515, 516, 517, 518, 519, 520, 521, 522, 523, 524, 525, 526, 527, 528, 529, 530, 531, 532, 533, 534, 535, 536, 537, 538, 539, 540, 541, 542, 543, 544, 545, 546, 547, 548, 549, 550, 551, 552, 553, 554, 555, 556, 557, 558, 559, 560, 561, 562, 563, 564, 565, 566, 567, 568, 569, 570, 571, 572, 573, 574, 575, 576, 577, 578, 579, 580, 581],
      "AcquisitionTime": ["154507.742500", "154508.530000", "154509.320000", "154510.107500", "154510.895000", "154511.682500", "154512.472500", "154513.260000", "154514.047500", "154514.835000", "154515.625000", "154516.412500", "154517.200000", "154517.987500", "154518.777500", "154519.565000", "154520.352500", "154521.140000", "154521.930000", "154522.717500", "154523.505000", "154524.292500", "154525.082500", "154525.870000", "154526.657500", "154527.447500", "154528.235000", "154529.022500", "154529.810000", "154530.600000", "154531.387500", "154532.175000", "154532.962500", "154533.752500", "154534.540000", "154535.327500", "154536.115000", "154536.905000", "154537.692500", "154538.480000", "154539.267500", "154540.057500", "154540.845000", "154541.632500", "154542.420000", "154543.210000", "154543.997500", "154544.785000", "154545.575000", "154546.362500", "154547.150000", "154547.937500", "154548.727500", "154549.515000", "154550.302500", "154551.090000", "154551.880000", "154552.667500", "154553.455000", "154554.242500", "154555.032500", "154555.820000", "154556.607500", "154557.395000", "154558.185000", "154558.972500", "154559.760000", "154600.547500", "154601.337500", "154602.125000", "154602.912500", "154603.702500", "154604.490000", "154605.277500", "154606.065000", "154606.855000", "154607.642500", "154608.430000", "154609.217500", "154610.007500", "154610.795000", "154611.582500", "154612.370000", "154613.160000", "154613.947500", "154614.735000", "154615.522500", "154616.312500", "154617.100000", "154617.887500", "154618.675000", "154619.465000", "154620.252500", "154621.040000", "154621.830000", "154622.617500", "154623.405000", "154624.192500", "154624.982500", "154625.770000", "154626.557500", "154627.345000", "154628.135000", "154628.922500", "154629.710000", "154630.497500", "154631.287500", "154632.075000", "154632.862500", "154633.650000", "154634.440000", "154635.227500", "154636.015000", "154636.802500", "154637.592500", "154638.380000", "154639.167500", "154639.957500", "154640.745000", "154641.532500", "154642.320000", "154643.110000", "154643.897500", "154644.685000", "154645.472500", "154646.262500", "154647.050000", "154647.837500", "154648.625000", "154649.415000", "154650.202500", "154650.990000", "154651.777500", "154652.567500", "154653.355000", "154654.142500", "154654.930000", "154655.720000", "154656.507500", "154657.295000", "154658.085000", "154658.872500", "154659.660000", "154700.447500", "154701.237500", "154702.025000", "154702.812500", "154703.600000", "154704.390000", "154705.177500", "154705.965000", "154706.752500", "154707.542500", "154708.330000", "154709.117500", "154709.905000", "154710.695000", "154711.482500", "154712.270000", "154713.057500", "154713.847500", "154714.635000", "154715.422500", "154716.212500", "154717.000000", "154717.787500", "154718.575000", "154719.365000", "154720.152500", "154720.940000", "154721.727500", "154722.517500", "154723.305000", "154724.092500", "154724.880000", "154725.670000", "154726.457500", "154727.245000", "154728.032500", "154728.822500", "154729.610000", "154730.397500", "154731.185000", "154731.975000", "154732.762500", "154733.550000", "154734.340000", "154735.127500", "154735.915000", "154736.702500", "154737.492500", "154738.280000", "154739.067500", "154739.855000", "154740.645000", "154741.432500", "154742.220000", "154743.007500", "154743.797500", "154744.585000", "154745.372500", "154746.160000", "154746.950000", "154747.737500", "154748.525000", "154749.312500", "154750.102500", "154750.890000", "154751.677500", "154752.467500", "154753.255000", "154754.042500", "154754.830000", "154755.620000", "154756.407500", "154757.195000", "154757.982500", "154758.772500", "154759.560000", "154800.347500", "154801.135000", "154801.925000", "154802.712500", "154803.500000", "154804.287500", "154805.077500", "154805.865000", "154806.652500", "154807.442500", "154808.230000", "154809.017500", "154809.805000", "154810.595000", "154811.382500", "154812.170000", "154812.957500", "154813.747500", "154814.535000", "154815.322500", "154816.110000", "154816.900000", "154817.687500", "154818.475000", "154819.262500", "154820.052500", "154820.840000", "154821.627500", "154822.415000", "154823.205000", "154823.992500", "154824.780000", "154825.570000", "154826.357500", "154827.145000", "154827.932500", "154828.722500", "154829.510000", "154830.297500", "154831.085000", "154831.875000", "154832.662500", "154833.450000", "154834.237500", "154835.027500", "154835.815000", "154836.602500", "154837.390000", "154838.180000", "154838.967500", "154839.755000", "154840.542500", "154841.332500", "154842.120000", "154842.907500", "154843.697500", "154844.485000", "154845.272500", "154846.060000", "154846.850000", "154847.637500", "154848.425000", "154849.212500", "154850.002500", "154850.790000", "154851.577500", "154852.365000", "154853.155000", "154853.942500", "154854.730000", "154855.517500", "154856.307500", "154857.095000", "154857.882500", "154858.670000", "154859.460000", "154900.247500", "154901.035000", "154901.825000", "154902.612500", "154903.400000", "154904.187500", "154904.977500", "154905.765000", "154906.552500", "154907.340000", "154908.130000", "154908.917500", "154909.705000", "154910.492500", "154911.282500", "154912.070000", "154912.857500", "154913.645000", "154914.435000", "154915.222500", "154916.010000", "154916.797500", "154917.587500", "154918.375000", "154919.162500", "154919.952500", "154920.740000", "154921.527500", "154922.315000", "154923.105000", "154923.892500", "154924.680000", "154925.467500", "154926.257500", "154927.045000", "154927.832500", "154928.620000", "154929.410000", "154930.197500", "154930.985000", "154931.772500", "154932.562500", "154933.350000", "154934.137500", "154934.925000", "154935.715000", "154936.502500", "154937.290000", "154938.080000", "154938.867500", "154939.655000", "154940.442500", "154941.232500", "154942.020000", "154942.807500", "154943.595000", "154944.385000", "154945.172500", "154945.960000", "154946.747500", "154947.537500", "154948.325000", "154949.112500", "154949.900000", "154950.690000", "154951.477500", "154952.265000", "154953.052500", "154953.842500", "154954.630000", "154955.417500", "154956.207500", "154956.995000", "154957.782500", "154958.570000", "154959.360000", "155000.147500", "155000.935000", "155001.722500", "155002.512500", "155003.300000", "155004.087500", "155004.875000", "155005.665000", "155006.452500", "155007.240000", "155008.027500", "155008.817500", "155009.605000", "155010.392500", "155011.180000", "155011.970000", "155012.757500", "155013.545000", "155014.335000", "155015.122500", "155015.910000", "155016.697500", "155017.487500", "155018.275000", "155019.062500", "155019.850000", "155020.640000", "155021.427500", "155022.215000", "155023.002500", "155023.792500", "155024.580000", "155025.367500", "155026.155000", "155026.945000", "155027.732500", "155028.520000", "155029.307500", "155030.097500", "155030.885000", "155031.672500", "155032.462500", "155033.250000", "155034.037500", "155034.825000", "155035.615000", "155036.402500", "155037.190000", "155037.977500", "155038.767500", "155039.555000", "155040.342500", "155041.130000", "155041.920000", "155042.707500", "155043.495000", "155044.282500", "155045.072500", "155045.860000", "155046.647500", "155047.435000", "155048.225000", "155049.012500", "155049.800000", "155050.590000", "155051.377500", "155052.165000", "155052.952500", "155053.742500", "155054.530000", "155055.317500", "155056.105000", "155056.895000", "155057.682500", "155058.470000", "155059.257500", "155100.047500", "155100.835000", "155101.622500", "155102.410000", "155103.200000", "155103.987500", "155104.775000", "155105.562500", "155106.352500", "155107.140000", "155107.927500", "155108.717500", "155109.505000", "155110.292500", "155111.080000", "155111.870000", "155112.657500", "155113.445000", "155114.232500", "155115.022500", "155115.810000", "155116.597500", "155117.385000", "155118.175000", "155118.962500", "155119.750000", "155120.537500", "155121.327500", "155122.115000", "155122.902500", "155123.692500", "155124.480000", "155125.267500", "155126.055000", "155126.845000", "155127.632500", "155128.420000", "155129.207500", "155129.997500", "155130.785000", "155131.572500", "155132.360000", "155133.150000", "155133.937500", "155134.725000", "155135.512500", "155136.302500", "155137.090000", "155137.877500", "155138.665000", "155139.455000", "155140.242500", "155141.030000", "155141.820000", "155142.607500", "155143.395000", "155144.182500", "155144.972500", "155145.760000", "155146.547500", "155147.335000", "155148.125000", "155148.912500", "155149.700000", "155150.487500", "155151.277500", "155152.065000", "155152.852500", "155153.640000", "155154.430000", "155155.217500", "155156.005000", "155156.792500", "155157.582500", "155158.370000", "155159.157500", "155159.947500", "155200.735000", "155201.522500", "155202.310000", "155203.100000", "155203.887500", "155204.675000", "155205.462500", "155206.252500", "155207.040000", "155207.827500", "155208.615000", "155209.405000", "155210.192500", "155210.980000", "155211.767500", "155212.557500", "155213.345000", "155214.132500", "155214.920000", "155215.710000", "155216.497500", "155217.285000", "155218.075000", "155218.862500", "155219.650000", "155220.437500", "155221.227500", "155222.015000", "155222.802500", "155223.590000", "155224.380000", "155225.167500", "155225.955000", "155226.742500", "155227.532500", "155228.320000", "155229.107500", "155229.895000", "155230.685000", "155231.472500", "155232.260000", "155233.047500", "155233.837500", "155234.625000", "155235.412500", "155236.202500", "155236.990000", "155237.777500", "155238.565000", "155239.355000", "155240.142500", "155240.930000", "155241.717500", "155242.507500", "155243.295000", "155244.082500", "155244.870000"],
      "ContentTime": ["162858.296000", "162858.312000", "162858.312000", "162858.312000", "162958.265000", "162958.265000", "162958.281000", "162958.281000", "162958.281000", "162958.281000", "162958.281000", "162958.281000", "162958.296000", "162958.296000", "162958.296000", "162958.296000", "162958.296000", "162958.296000", "162958.296000", "162958.312000", "162958.312000", "162958.312000", "162958.312000", "162958.312000", "162958.312000", "162958.328000", "162958.328000", "162958.328000", "162958.328000", "162958.328000", "162958.328000", "163058.265000", "163058.265000", "163058.265000", "163058.281000", "163058.281000", "163058.281000", "163058.281000", "163058.281000", "163058.281000", "163058.281000", "163058.296000", "163058.296000", "163058.296000", "163058.296000", "163058.296000", "163058.296000", "163058.296000", "163058.312000", "163058.312000", "163058.312000", "163058.312000", "163058.312000", "163058.328000", "163058.328000", "163058.328000", "163058.328000", "163058.328000", "163058.328000", "163158.265000", "163158.265000", "163158.265000", "163158.281000", "163158.281000", "163158.281000", "163158.281000", "163158.281000", "163158.281000", "163158.281000", "163158.296000", "163158.296000", "163158.296000", "163158.296000", "163158.296000", "163158.296000", "163158.296000", "163158.312000", "163158.312000", "163158.312000", "163158.312000", "163158.312000", "163158.328000", "163158.328000", "163158.328000", "163158.328000", "163158.328000", "163258.265000", "163258.265000", "163258.265000", "163258.281000", "163258.281000", "163258.281000", "163258.281000", "163258.281000", "163258.281000", "163258.281000", "163258.296000", "163258.296000", "163258.296000", "163258.296000", "163258.296000", "163258.296000", "163258.296000", "163258.312000", "163258.312000", "163258.312000", "163258.312000", "163258.312000", "163258.312000", "163258.312000", "163258.328000", "163258.328000", "163258.328000", "163258.328000", "163358.265000", "163358.265000", "163358.265000", "163358.281000", "163358.281000", "163358.281000", "163358.281000", "163358.281000", "163358.281000", "163358.296000", "163358.296000", "163358.296000", "163358.296000", "163358.296000", "163358.296000", "163358.296000", "163358.312000", "163358.312000", "163358.312000", "163358.312000", "163358.312000", "163358.312000", "163358.312000", "163358.328000", "163358.328000", "163358.328000", "163358.328000", "163358.328000", "163458.265000", "163458.265000", "163458.265000", "163458.281000", "163458.281000", "163458.281000", "163458.281000", "163458.281000", "163458.281000", "163458.296000", "163458.296000", "163458.296000", "163458.296000", "163458.296000", "163458.296000", "163458.296000", "163458.296000", "163458.312000", "163458.312000", "163458.312000", "163458.312000", "163458.312000", "163458.312000", "163458.328000", "163458.328000", "163458.328000", "163458.328000", "163518.265000", "163518.265000", "163518.265000", "163518.281000", "163518.281000", "163518.281000", "163518.281000", "163518.281000", "163518.281000", "163618.265000", "163618.265000", "163618.265000", "163618.281000", "163618.281000", "163618.281000", "163618.281000", "163618.281000", "163618.281000", "163618.281000", "163618.296000", "163618.296000", "163618.296000", "163618.296000", "163618.296000", "163618.296000", "163618.296000", "163618.312000", "163618.312000", "163618.312000", "163618.312000", "163618.312000", "163618.312000", "163618.312000", "163618.328000", "163618.328000", "163618.328000", "163618.328000", "163718.265000", "163718.265000", "163718.265000", "163718.281000", "163718.281000", "163718.281000", "163718.281000", "163718.281000", "163718.281000", "163718.296000", "163718.296000", "163718.296000", "163718.296000", "163718.296000", "163718.296000", "163718.312000", "163718.312000", "163718.312000", "163718.312000", "163718.312000", "163718.312000", "163718.328000", "163718.328000", "163718.328000", "163718.328000", "163718.328000", "163718.328000", "163818.265000", "163818.265000", "163818.265000", "163818.281000", "163818.281000", "163818.281000", "163818.281000", "163818.281000", "163818.281000", "163818.281000", "163818.296000", "163818.296000", "163818.296000", "163818.296000", "163818.296000", "163818.296000", "163818.312000", "163818.312000", "163818.312000", "163818.312000", "163818.312000", "163818.312000", "163818.312000", "163818.328000", "163818.328000", "163818.328000", "163818.328000", "163918.265000", "163918.265000", "163918.265000", "163918.281000", "163918.281000", "163918.281000", "163918.281000", "163918.281000", "163918.281000", "163918.296000", "163918.296000", "163918.296000", "163918.296000", "163918.296000", "163918.296000", "163918.296000", "163918.296000", "163918.312000", "163918.312000", "163918.312000", "163918.312000", "163918.312000", "163918.312000", "163918.312000", "163918.328000", "163918.328000", "163918.328000", "163918.328000", "164018.265000", "164018.265000", "164018.265000", "164018.281000", "164018.281000", "164018.281000", "164018.281000", "164018.281000", "164018.296000", "164018.296000", "164018.296000", "164018.296000", "164018.296000", "164018.296000", "164018.296000", "164018.312000", "164018.312000", "164018.312000", "164018.312000", "164018.312000", "164018.312000", "164018.328000", "164018.328000", "164018.328000", "164018.328000", "164018.343000", "164018.343000", "164118.265000", "164118.265000", "164118.265000", "164118.281000", "164118.281000", "164118.281000", "164118.281000", "164118.281000", "164118.281000", "164118.296000", "164118.296000", "164118.296000", "164118.296000", "164118.296000", "164118.296000", "164118.296000", "164118.312000", "164118.312000", "164118.312000", "164118.312000", "164118.312000", "164118.312000", "164118.312000", "164118.328000", "164118.328000", "164118.328000", "164118.328000", "164218.265000", "164218.265000", "164218.265000", "164218.265000", "164218.281000", "164218.281000", "164218.281000", "164218.281000", "164218.281000", "164218.281000", "164218.281000", "164218.296000", "164218.296000", "164218.296000", "164218.296000", "164218.296000", "164218.296000", "164218.296000", "164218.312000", "164218.312000", "164218.312000", "164218.312000", "164218.312000", "164218.312000", "164218.312000", "164218.328000", "164218.328000", "164218.328000", "164318.265000", "164318.265000", "164318.265000", "164318.265000", "164318.281000", "164318.281000", "164318.281000", "164318.281000", "164318.281000", "164318.281000", "164318.281000", "164318.296000", "164318.296000", "164318.296000", "164318.296000", "164318.296000", "164318.296000", "164318.296000", "164318.312000", "164318.312000", "164318.312000", "164318.312000", "164318.312000", "164318.312000", "164318.312000", "164318.328000", "164318.328000", "164318.328000", "164418.265000", "164418.265000", "164418.265000", "164418.265000", "164418.281000", "164418.281000", "164418.281000", "164418.281000", "164418.281000", "164418.281000", "164418.281000", "164418.296000", "164418.296000", "164418.296000", "164418.296000", "164418.296000", "164418.296000", "164418.296000", "164418.312000", "164418.312000", "164418.312000", "164418.312000", "164418.312000", "164418.312000", "164418.312000", "164418.328000", "164418.328000", "164418.328000", "164458.265000", "164458.265000", "164458.265000", "164458.265000", "164458.281000", "164458.281000", "164458.281000", "164458.281000", "164458.281000", "164458.281000", "164458.281000", "164458.296000", "164458.296000", "164458.296000", "164458.296000", "164458.296000", "164458.296000", "164458.296000", "164558.265000", "164558.265000", "164558.265000", "164558.265000", "164558.281000", "164558.281000", "164558.281000", "164558.281000", "164558.281000", "164558.281000", "164558.281000", "164558.296000", "164558.296000", "164558.296000", "164558.296000", "164558.296000", "164558.296000", "164558.296000", "164558.312000", "164558.312000", "164558.312000", "164558.312000", "164558.312000", "164558.312000", "164558.312000", "164558.328000", "164558.328000", "164558.328000", "164658.265000", "164658.265000", "164658.265000", "164658.265000", "164658.265000", "164658.265000", "164658.281000", "164658.281000", "164658.281000", "164658.281000", "164658.281000", "164658.281000", "164658.281000", "164658.296000", "164658.296000", "164658.296000", "164658.296000", "164658.312000", "164658.312000", "164658.312000", "164658.312000", "164658.312000", "164658.312000", "164658.312000", "164658.328000", "164658.328000", "164658.328000", "164658.328000", "164758.265000", "164758.265000", "164758.265000", "164758.265000", "164758.265000", "164758.281000", "164758.281000", "164758.281000", "164758.281000", "164758.281000", "164758.281000", "164758.281000", "164758.296000", "164758.296000", "164758.296000", "164758.296000", "164758.296000", "164758.296000", "164758.312000", "164758.312000", "164758.312000", "164758.312000", "164758.312000", "164758.328000", "164758.328000", "164758.328000", "164758.343000", "164858.265000", "164858.265000", "164858.265000", "164858.265000", "164858.265000", "164858.265000", "164858.281000", "164858.281000", "164858.281000", "164858.281000", "164858.281000", "164858.281000", "164858.281000", "164858.296000", "164858.296000", "164858.296000", "164858.296000", "164858.296000", "164858.296000", "164858.312000", "164858.312000", "164858.312000", "164858.328000", "164858.328000", "164858.328000", "164858.328000", "164858.328000", "164858.328000", "164952.593000", "164952.593000", "164952.593000", "164952.593000", "164952.593000", "164952.593000", "164952.609000", "164952.609000", "164952.609000", "164952.609000", "164952.625000", "164952.625000", "164952.625000", "164952.625000", "164952.625000", "164952.625000", "164952.640000", "164952.640000", "164952.640000", "164952.640000", "164952.640000", "164952.640000", "164952.656000", "164952.656000", "164952.656000", "164952.656000"],
      "DataSetTrailingPadding": [
        "\u0000\u0000\u0000\u0000\u0000\u0000\u0000\u0000\u0000\u0000\u0000\u0000\u0000\u0000\u0000\u0000\u0000\u0000\u0000\u0000\u0000\u0000\u0000\u0000\u0000\u0000\u0000\u0000\u0000\u0000\u0000\u0000\u0000\u0000\u0000\u0000\u0000\u0000\u0000\u0000\u0000\u0000\u0000\u0000\u0000\u0000\u0000\u0000\u0000\u0000\u0000\u0000\u0000\u0000\u0000\u0000",
        "\u0000\u0000\u0000\u0000\u0000\u0000\u0000\u0000\u0000\u0000\u0000\u0000\u0000\u0000\u0000\u0000\u0000\u0000\u0000\u0000\u0000\u0000\u0000\u0000\u0000\u0000\u0000\u0000\u0000\u0000\u0000\u0000\u0000\u0000\u0000\u0000\u0000\u0000\u0000\u0000\u0000\u0000\u0000\u0000\u0000\u0000\u0000\u0000\u0000\u0000\u0000\u0000\u0000\u0000\u0000\u0000",
        "\u0000\u0000\u0000\u0000\u0000\u0000\u0000\u0000\u0000\u0000\u0000\u0000\u0000\u0000\u0000\u0000\u0000\u0000\u0000\u0000\u0000\u0000\u0000\u0000\u0000\u0000\u0000\u0000\u0000\u0000\u0000\u0000\u0000\u0000\u0000\u0000\u0000\u0000\u0000\u0000\u0000\u0000\u0000\u0000\u0000\u0000\u0000\u0000\u0000\u0000\u0000\u0000\u0000\u0000\u0000\u0000",
        "\u0000\u0000\u0000\u0000\u0000\u0000\u0000\u0000\u0000\u0000\u0000\u0000\u0000\u0000\u0000\u0000\u0000\u0000\u0000\u0000\u0000\u0000\u0000\u0000\u0000\u0000\u0000\u0000\u0000\u0000\u0000\u0000\u0000\u0000\u0000\u0000\u0000\u0000\u0000\u0000\u0000\u0000\u0000\u0000\u0000\u0000\u0000\u0000\u0000\u0000\u0000\u0000\u0000\u0000",
        "\u0000\u0000\u0000\u0000\u0000\u0000\u0000\u0000\u0000\u0000\u0000\u0000\u0000\u0000\u0000\u0000\u0000\u0000\u0000\u0000\u0000\u0000\u0000\u0000\u0000\u0000\u0000\u0000\u0000\u0000\u0000\u0000\u0000\u0000\u0000\u0000\u0000\u0000\u0000\u0000\u0000\u0000\u0000\u0000\u0000\u0000\u0000\u0000\u0000\u0000\u0000\u0000\u0000\u0000\u0000\u0000",
