{
  "AcquisitionMatrixPE": 104,
  "AcquisitionNumber": 1,
  "AcquisitionTime": "15:36:58.042500",
  "BandwidthPerPixelPhaseEncode": 13.935,
  "BaseResolution": 104,
  "CoilString": "C:HEA;HEP",
  "ConversionSoftware": "dcm2niix",
  "ConversionSoftwareVersion": "v1.0.20210317",
  "DerivedVendorReportedEchoSpacing": 0.000690017,
  "DeviceSerialNumber": "35450",
  "DwellTime": 2.5e-06,
  "EchoTime": 0.0348,
  "EffectiveEchoSpacing": 0.000690017,
  "FlipAngle": 55,
  "ImageComments": "Unaliased MB8/PE3",
  "ImageOrientationPatientDICOM": [0.999877, 0.00139631, 0.0156451, -2.00762e-08, 0.996041, -0.0888943],
  "ImageType": [
    "ORIGINAL",
    "PRIMARY",
    "M",
    "MB",
    "ND",
    "MOSAIC"
],
  "ImagingFrequency": 123.235,
  "InPlanePhaseEncodingDirectionDICOM": "COL",
  "InstitutionAddress": "Univeristy Ave. 197,Newark,North East,US,07102-1814",
  "InstitutionName": "RUBIC",
  "InstitutionalDepartmentName": "Department",
  "MRAcquisitionType": "2D",
  "MagneticFieldStrength": 3,
  "Manufacturer": "Siemens",
  "ManufacturersModelName": "TrioTim",
  "Modality": "MR",
  "MultibandAccelerationFactor": 8,
  "PartialFourier": 0.875,
  "PatientPosition": "HFS",
  "PercentPhaseFOV": 100,
  "PercentSampling": 100,
  "PhaseEncodingDirection": "j-",
  "PhaseEncodingSteps": 91,
  "PhaseResolution": 1,
  "PixelBandwidth": 1923,
  "ProcedureStepDescription": "Cole^Michael",
  "ProtocolName": "cmrr_mbep2d_bold_2mm_MB8_Task_8x",
  "PulseSequenceDetails": "%CustomerSeq%\\cmrr_mbep2d_bold",
  "ReceiveCoilName": "32Ch_Head",
  "ReconMatrixPE": 104,
  "RepetitionTime": 0.785,
  "SAR": 0.124996,
  "ScanOptions": "PFP\\FS",
  "ScanningSequence": "EP",
  "SequenceName": "epfid2d1_104",
  "SequenceVariant": "SK\\SS",
  "SeriesDescription": "cmrr_mbep2d_bold_2mm_MB8_Task_8x",
  "SeriesNumber": 13,
  "ShimSetting": [2132, -540, -7396, 565, 272, -374, -445, 77],
  "SliceThickness": 2,
  "SliceTiming": [0, 0.4375, 0.0875, 0.525, 0.175, 0.6125, 0.2625, 0.7, 0.35, 0, 0.4375, 0.0875, 0.525, 0.175, 0.6125, 0.2625, 0.7, 0.35, 0, 0.4375, 0.0875, 0.525, 0.175, 0.6125, 0.2625, 0.7, 0.35, 0, 0.4375, 0.0875, 0.525, 0.175, 0.6125, 0.2625, 0.7, 0.35, 0, 0.4375, 0.0875, 0.525, 0.175, 0.6125, 0.2625, 0.7, 0.35, 0, 0.4375, 0.0875, 0.525, 0.175, 0.6125, 0.2625, 0.7, 0.35, 0, 0.4375, 0.0875, 0.525, 0.175, 0.6125, 0.2625, 0.7, 0.35, 0, 0.4375, 0.0875, 0.525, 0.175, 0.6125, 0.2625, 0.7, 0.35],
  "SoftwareVersions": "syngo MR B19",
  "SpacingBetweenSlices": 2,
  "StationName": "MRC35450",
  "TaskName": "cpro",
  "TotalReadoutTime": 0.0710717,
  "TxRefAmp": 330.216,
  "dcmmeta_affine": [
    [-1.9997532367706299, -4.0152379199298593e-08, 0.03141463175415993, 104.2278823852539],
    [-0.0027926217298954725, 1.992082118988037, -0.17776665091514587, -76.58936309814453],
    [0.031290262937545776, 0.17778858542442322, 1.9918363094329834, -111.09686279296875],
    [0.0, 0.0, 0.0, 1.0]
],
  "dcmmeta_reorient_transform": [
    [0.0, -1.0, 0.0, 103.0],
    [1.0, 0.0, 0.0, 0.0],
    [0.0, 0.0, 1.0, 0.0],
    [0.0, 0.0, 0.0, 1.0]
],
  "dcmmeta_shape": [104, 104, 72, 581],
  "dcmmeta_slice_dim": 2,
  "dcmmeta_version": 0.6,
  "global": {
    "const": {
      "AcquisitionMatrix": [104, 0, 0, 104],
      "AngioFlag": "N",
      "BitsAllocated": 16,
      "BitsStored": 12,
      "Columns": 936,
      "EchoNumbers": 1,
      "EchoTime": 34.8,
      "EchoTrainLength": 1,
      "FlipAngle": 55.0,
      "HighBit": 11,
      "ImageOrientationPatient": [0.99987663248909, 0.00139631083141, 0.01564513081859, -2.007619e-08, 0.99604106568838, -0.0888942937559],
      "ImagePositionPatient": [-936.12522193565, -958.46299483512, -31.841333234354],
      "ImageType": [
        "ORIGINAL",
        "PRIMARY",
        "M",
        "MB",
        "ND",
        "MOSAIC"
],
      "ImagedNucleus": "1H",
      "ImagingFrequency": 123.234503,
      "InPlanePhaseEncodingDirection": "COL",
      "MRAcquisitionType": "2D",
      "MagneticFieldStrength": 3.0,
      "Manufacturer": "SIEMENS",
      "ManufacturerModelName": "TrioTim",
      "Modality": "MR",
      "NumberOfAverages": 1.0,
      "NumberOfPhaseEncodingSteps": 91,
      "PercentPhaseFieldOfView": 100.0,
      "PercentSampling": 100.0,
      "PerformedProcedureStepStartTime": "143429.375000",
      "PhotometricInterpretation": "MONOCHROME2",
      "PixelBandwidth": 1923.0,
      "PixelRepresentation": 0,
      "PixelSpacing": [2.0, 2.0],
      "ProtocolName": "cmrr_mbep2d_bold_2mm_MB8_Task_8x",
      "RepetitionTime": 785.0,
      "Rows": 936,
      "SAR": 0.12499550547446,
      "SamplesPerPixel": 1,
      "ScanOptions": [
        "PFP",
        "FS"
],
      "ScanningSequence": "EP",
      "SequenceName": "epfid2d1_104",
      "SequenceVariant": [
        "SK",
        "SS"
],
      "SeriesDescription": "cmrr_mbep2d_bold_2mm_MB8_Task_8x",
      "SeriesNumber": 13,
      "SeriesTime": "160740.015000",
      "SliceLocation": -102.19872696317,
      "SliceThickness": 2.0,
      "SmallestImagePixelValue": 0,
      "SoftwareVersions": "syngo MR B19",
      "SpacingBetweenSlices": 1.9999999597893,
      "SpecificCharacterSet": "ISO_IR 100",
      "StudyID": "1",
      "StudyTime": "143429.203000",
      "TransmitCoilName": "Body",
      "VariableFlipAngleFlag": "N",
      "WindowCenterWidthExplanation": "Algo1",
      "dBdt": 0.0},
    "slices": {}
  },
  "time": {
    "samples": {
      "AcquisitionNumber": [1, 2, 3, 4, 5, 6, 7, 8, 9, 10, 11, 12, 13, 14, 15, 16, 17, 18, 19, 20, 21, 22, 23, 24, 25, 26, 27, 28, 29, 30, 31, 32, 33, 34, 35, 36, 37, 38, 39, 40, 41, 42, 43, 44, 45, 46, 47, 48, 49, 50, 51, 52, 53, 54, 55, 56, 57, 58, 59, 60, 61, 62, 63, 64, 65, 66, 67, 68, 69, 70, 71, 72, 73, 74, 75, 76, 77, 78, 79, 80, 81, 82, 83, 84, 85, 86, 87, 88, 89, 90, 91, 92, 93, 94, 95, 96, 97, 98, 99, 100, 101, 102, 103, 104, 105, 106, 107, 108, 109, 110, 111, 112, 113, 114, 115, 116, 117, 118, 119, 120, 121, 122, 123, 124, 125, 126, 127, 128, 129, 130, 131, 132, 133, 134, 135, 136, 137, 138, 139, 140, 141, 142, 143, 144, 145, 146, 147, 148, 149, 150, 151, 152, 153, 154, 155, 156, 157, 158, 159, 160, 161, 162, 163, 164, 165, 166, 167, 168, 169, 170, 171, 172, 173, 174, 175, 176, 177, 178, 179, 180, 181, 182, 183, 184, 185, 186, 187, 188, 189, 190, 191, 192, 193, 194, 195, 196, 197, 198, 199, 200, 201, 202, 203, 204, 205, 206, 207, 208, 209, 210, 211, 212, 213, 214, 215, 216, 217, 218, 219, 220, 221, 222, 223, 224, 225, 226, 227, 228, 229, 230, 231, 232, 233, 234, 235, 236, 237, 238, 239, 240, 241, 242, 243, 244, 245, 246, 247, 248, 249, 250, 251, 252, 253, 254, 255, 256, 257, 258, 259, 260, 261, 262, 263, 264, 265, 266, 267, 268, 269, 270, 271, 272, 273, 274, 275, 276, 277, 278, 279, 280, 281, 282, 283, 284, 285, 286, 287, 288, 289, 290, 291, 292, 293, 294, 295, 296, 297, 298, 299, 300, 301, 302, 303, 304, 305, 306, 307, 308, 309, 310, 311, 312, 313, 314, 315, 316, 317, 318, 319, 320, 321, 322, 323, 324, 325, 326, 327, 328, 329, 330, 331, 332, 333, 334, 335, 336, 337, 338, 339, 340, 341, 342, 343, 344, 345, 346, 347, 348, 349, 350, 351, 352, 353, 354, 355, 356, 357, 358, 359, 360, 361, 362, 363, 364, 365, 366, 367, 368, 369, 370, 371, 372, 373, 374, 375, 376, 377, 378, 379, 380, 381, 382, 383, 384, 385, 386, 387, 388, 389, 390, 391, 392, 393, 394, 395, 396, 397, 398, 399, 400, 401, 402, 403, 404, 405, 406, 407, 408, 409, 410, 411, 412, 413, 414, 415, 416, 417, 418, 419, 420, 421, 422, 423, 424, 425, 426, 427, 428, 429, 430, 431, 432, 433, 434, 435, 436, 437, 438, 439, 440, 441, 442, 443, 444, 445, 446, 447, 448, 449, 450, 451, 452, 453, 454, 455, 456, 457, 458, 459, 460, 461, 462, 463, 464, 465, 466, 467, 468, 469, 470, 471, 472, 473, 474, 475, 476, 477, 478, 479, 480, 481, 482, 483, 484, 485, 486, 487, 488, 489, 490, 491, 492, 493, 494, 495, 496, 497, 498, 499, 500, 501, 502, 503, 504, 505, 506, 507, 508, 509, 510, 511, 512, 513, 514, 515, 516, 517, 518, 519, 520, 521, 522, 523, 524, 525, 526, 527, 528, 529, 530, 531, 532, 533, 534, 535, 536, 537, 538, 539, 540, 541, 542, 543, 544, 545, 546, 547, 548, 549, 550, 551, 552, 553, 554, 555, 556, 557, 558, 559, 560, 561, 562, 563, 564, 565, 566, 567, 568, 569, 570, 571, 572, 573, 574, 575, 576, 577, 578, 579, 580, 581],
      "AcquisitionTime": ["153658.042500", "153658.830000", "153659.620000", "153700.407500", "153701.195000", "153701.982500", "153702.772500", "153703.560000", "153704.347500", "153705.137500", "153705.925000", "153706.712500", "153707.500000", "153708.290000", "153709.077500", "153709.865000", "153710.652500", "153711.442500", "153712.230000", "153713.017500", "153713.805000", "153714.595000", "153715.382500", "153716.170000", "153716.957500", "153717.747500", "153718.535000", "153719.322500", "153720.110000", "153720.900000", "153721.687500", "153722.475000", "153723.265000", "153724.052500", "153724.840000", "153725.627500", "153726.417500", "153727.205000", "153727.992500", "153728.780000", "153729.570000", "153730.357500", "153731.145000", "153731.932500", "153732.722500", "153733.510000", "153734.297500", "153735.085000", "153735.875000", "153736.662500", "153737.450000", "153738.240000", "153739.027500", "153739.815000", "153740.602500", "153741.392500", "153742.180000", "153742.967500", "153743.755000", "153744.545000", "153745.332500", "153746.120000", "153746.907500", "153747.697500", "153748.485000", "153749.272500", "153750.060000", "153750.850000", "153751.637500", "153752.425000", "153753.212500", "153754.002500", "153754.790000", "153755.577500", "153756.367500", "153757.155000", "153757.942500", "153758.730000", "153759.520000", "153800.307500", "153801.095000", "153801.882500", "153802.672500", "153803.460000", "153804.247500", "153805.035000", "153805.825000", "153806.612500", "153807.400000", "153808.187500", "153808.977500", "153809.765000", "153810.552500", "153811.340000", "153812.130000", "153812.917500", "153813.705000", "153814.495000", "153815.282500", "153816.070000", "153816.857500", "153817.647500", "153818.435000", "153819.222500", "153820.010000", "153820.800000", "153821.587500", "153822.375000", "153823.162500", "153823.952500", "153824.740000", "153825.527500", "153826.315000", "153827.105000", "153827.892500", "153828.680000", "153829.467500", "153830.257500", "153831.045000", "153831.832500", "153832.622500", "153833.410000", "153834.197500", "153834.985000", "153835.775000", "153836.562500", "153837.350000", "153838.137500", "153838.927500", "153839.715000", "153840.502500", "153841.290000", "153842.080000", "153842.867500", "153843.655000", "153844.442500", "153845.232500", "153846.020000", "153846.807500", "153847.595000", "153848.385000", "153849.172500", "153849.960000", "153850.750000", "153851.537500", "153852.325000", "153853.112500", "153853.902500", "153854.690000", "153855.477500", "153856.265000", "153857.055000", "153857.842500", "153858.630000", "153859.417500", "153900.207500", "153900.995000", "153901.782500", "153902.570000", "153903.360000", "153904.147500", "153904.935000", "153905.722500", "153906.512500", "153907.300000", "153908.087500", "153908.877500", "153909.665000", "153910.452500", "153911.240000", "153912.030000", "153912.817500", "153913.605000", "153914.392500", "153915.182500", "153915.970000", "153916.757500", "153917.545000", "153918.335000", "153919.122500", "153919.910000", "153920.697500", "153921.487500", "153922.275000", "153923.062500", "153923.850000", "153924.640000", "153925.427500", "153926.215000", "153927.005000", "153927.792500", "153928.580000", "153929.367500", "153930.157500", "153930.945000", "153931.732500", "153932.520000", "153933.310000", "153934.097500", "153934.885000", "153935.672500", "153936.462500", "153937.250000", "153938.037500", "153938.825000", "153939.615000", "153940.402500", "153941.190000", "153941.977500", "153942.767500", "153943.555000", "153944.342500", "153945.132500", "153945.920000", "153946.707500", "153947.495000", "153948.285000", "153949.072500", "153949.860000", "153950.647500", "153951.437500", "153952.225000", "153953.012500", "153953.800000", "153954.590000", "153955.377500", "153956.165000", "153956.952500", "153957.742500", "153958.530000", "153959.317500", "154000.105000", "154000.895000", "154001.682500", "154002.470000", "154003.260000", "154004.047500", "154004.835000", "154005.622500", "154006.412500", "154007.200000", "154007.987500", "154008.775000", "154009.565000", "154010.352500", "154011.140000", "154011.927500", "154012.717500", "154013.505000", "154014.292500", "154015.080000", "154015.870000", "154016.657500", "154017.445000", "154018.232500", "154019.022500", "154019.810000", "154020.597500", "154021.387500", "154022.175000", "154022.962500", "154023.750000", "154024.540000", "154025.327500", "154026.115000", "154026.902500", "154027.692500", "154028.480000", "154029.267500", "154030.055000", "154030.845000", "154031.632500", "154032.420000", "154033.207500", "154033.997500", "154034.785000", "154035.572500", "154036.360000", "154037.150000", "154037.937500", "154038.725000", "154039.515000", "154040.302500", "154041.090000", "154041.877500", "154042.667500", "154043.455000", "154044.242500", "154045.030000", "154045.820000", "154046.607500", "154047.395000", "154048.182500", "154048.972500", "154049.760000", "154050.547500", "154051.335000", "154052.125000", "154052.912500", "154053.700000", "154054.490000", "154055.277500", "154056.065000", "154056.852500", "154057.642500", "154058.430000", "154059.217500", "154100.005000", "154100.795000", "154101.582500", "154102.370000", "154103.157500", "154103.947500", "154104.735000", "154105.522500", "154106.310000", "154107.100000", "154107.887500", "154108.675000", "154109.462500", "154110.252500", "154111.040000", "154111.827500", "154112.617500", "154113.405000", "154114.192500", "154114.980000", "154115.770000", "154116.557500", "154117.345000", "154118.132500", "154118.922500", "154119.710000", "154120.497500", "154121.285000", "154122.075000", "154122.862500", "154123.650000", "154124.437500", "154125.227500", "154126.015000", "154126.802500", "154127.590000", "154128.380000", "154129.167500", "154129.955000", "154130.745000", "154131.532500", "154132.320000", "154133.107500", "154133.897500", "154134.685000", "154135.472500", "154136.260000", "154137.050000", "154137.837500", "154138.625000", "154139.412500", "154140.202500", "154140.990000", "154141.777500", "154142.565000", "154143.355000", "154144.142500", "154144.930000", "154145.717500", "154146.507500", "154147.295000", "154148.082500", "154148.872500", "154149.660000", "154150.447500", "154151.235000", "154152.025000", "154152.812500", "154153.600000", "154154.387500", "154155.177500", "154155.965000", "154156.752500", "154157.540000", "154158.330000", "154159.117500", "154159.905000", "154200.692500", "154201.482500", "154202.270000", "154203.057500", "154203.845000", "154204.635000", "154205.422500", "154206.210000", "154207.000000", "154207.787500", "154208.575000", "154209.362500", "154210.152500", "154210.940000", "154211.727500", "154212.515000", "154213.305000", "154214.092500", "154214.880000", "154215.667500", "154216.457500", "154217.245000", "154218.032500", "154218.820000", "154219.610000", "154220.397500", "154221.185000", "154221.972500", "154222.762500", "154223.550000", "154224.337500", "154225.127500", "154225.915000", "154226.702500", "154227.490000", "154228.280000", "154229.067500", "154229.855000", "154230.642500", "154231.432500", "154232.220000", "154233.007500", "154233.795000", "154234.585000", "154235.372500", "154236.160000", "154236.947500", "154237.737500", "154238.525000", "154239.312500", "154240.100000", "154240.890000", "154241.677500", "154242.465000", "154243.255000", "154244.042500", "154244.830000", "154245.617500", "154246.407500", "154247.195000", "154247.982500", "154248.770000", "154249.560000", "154250.347500", "154251.135000", "154251.922500", "154252.712500", "154253.500000", "154254.287500", "154255.075000", "154255.865000", "154256.652500", "154257.440000", "154258.227500", "154259.017500", "154259.805000", "154300.592500", "154301.382500", "154302.170000", "154302.957500", "154303.745000", "154304.535000", "154305.322500", "154306.110000", "154306.897500", "154307.687500", "154308.475000", "154309.262500", "154310.050000", "154310.840000", "154311.627500", "154312.415000", "154313.202500", "154313.992500", "154314.780000", "154315.567500", "154316.355000", "154317.145000", "154317.932500", "154318.720000", "154319.510000", "154320.297500", "154321.085000", "154321.872500", "154322.662500", "154323.450000", "154324.237500", "154325.025000", "154325.815000", "154326.602500", "154327.390000", "154328.177500", "154328.967500", "154329.755000", "154330.542500", "154331.330000", "154332.120000", "154332.907500", "154333.695000", "154334.482500", "154335.272500", "154336.060000", "154336.847500", "154337.637500", "154338.425000", "154339.212500", "154340.000000", "154340.790000", "154341.577500", "154342.365000", "154343.152500", "154343.942500", "154344.730000", "154345.517500", "154346.305000", "154347.095000", "154347.882500", "154348.670000", "154349.457500", "154350.247500", "154351.035000", "154351.822500", "154352.610000", "154353.400000", "154354.187500", "154354.975000", "154355.765000", "154356.552500", "154357.340000", "154358.127500", "154358.917500", "154359.705000", "154400.492500", "154401.280000", "154402.070000", "154402.857500", "154403.645000", "154404.432500", "154405.222500", "154406.010000", "154406.797500", "154407.585000", "154408.375000", "154409.162500", "154409.950000", "154410.740000", "154411.527500", "154412.315000", "154413.102500", "154413.892500", "154414.680000", "154415.467500", "154416.255000", "154417.045000", "154417.832500", "154418.620000", "154419.407500", "154420.197500", "154420.985000", "154421.772500", "154422.560000", "154423.350000", "154424.137500", "154424.925000", "154425.712500", "154426.502500", "154427.290000", "154428.077500", "154428.867500", "154429.655000", "154430.442500", "154431.230000", "154432.020000", "154432.807500", "154433.595000", "154434.382500", "154435.172500"],
      "ContentTime": ["160740.031000", "160740.031000", "160740.031000", "160740.031000", "160740.031000", "160740.031000", "160740.031000", "160800.000000", "160800.000000", "160800.000000", "160800.015000", "160800.015000", "160800.015000", "160800.015000", "160800.015000", "160800.015000", "160800.031000", "160900.000000", "160900.000000", "160900.000000", "160900.015000", "160900.015000", "160900.015000", "160900.015000", "160900.015000", "160900.015000", "160900.015000", "160900.031000", "160900.031000", "160900.031000", "160900.031000", "160900.031000", "160900.031000", "160900.031000", "160900.046000", "160900.046000", "160900.046000", "160900.046000", "160900.046000", "160900.046000", "160900.046000", "160900.062000", "160900.062000", "160900.062000", "161000.000000", "161000.000000", "161000.000000", "161000.015000", "161000.015000", "161000.015000", "161000.015000", "161000.015000", "161000.015000", "161000.015000", "161000.031000", "161000.031000", "161000.031000", "161000.031000", "161000.031000", "161000.031000", "161000.031000", "161000.046000", "161000.046000", "161000.046000", "161000.046000", "161000.046000", "161000.046000", "161000.046000", "161000.062000", "161000.062000", "161000.062000", "161000.062000", "161100.000000", "161100.000000", "161100.000000", "161100.015000", "161100.015000", "161100.015000", "161100.015000", "161100.015000", "161100.015000", "161100.015000", "161100.031000", "161100.031000", "161100.031000", "161100.031000", "161100.031000", "161100.031000", "161100.031000", "161100.046000", "161100.046000", "161100.046000", "161100.046000", "161100.046000", "161100.046000", "161100.062000", "161100.062000", "161100.062000", "161100.062000", "161200.000000", "161200.000000", "161200.000000", "161200.015000", "161200.015000", "161200.015000", "161200.015000", "161200.015000", "161200.015000", "161200.015000", "161200.031000", "161200.031000", "161200.031000", "161200.031000", "161200.031000", "161200.031000", "161200.046000", "161200.046000", "161200.046000", "161200.046000", "161200.046000", "161200.046000", "161200.046000", "161200.062000", "161200.062000", "161200.062000", "161200.062000", "161200.062000", "161300.000000", "161300.000000", "161300.000000", "161300.015000", "161300.015000", "161300.015000", "161300.015000", "161300.015000", "161300.015000", "161300.031000", "161300.031000", "161300.031000", "161300.031000", "161300.031000", "161300.031000", "161300.031000", "161300.046000", "161300.046000", "161300.046000", "161300.046000", "161300.046000", "161300.046000", "161300.046000", "161300.062000", "161300.062000", "161300.062000", "161300.062000", "161400.000000", "161400.000000", "161400.000000", "161400.015000", "161400.015000", "161400.015000", "161400.015000", "161400.015000", "161400.015000", "161400.031000", "161400.031000", "161400.031000", "161400.031000", "161400.031000", "161400.031000", "161400.031000", "161400.046000", "161400.046000", "161400.046000", "161400.046000", "161400.046000", "161400.046000", "161400.046000", "161400.062000", "161400.062000", "161400.062000", "161400.062000", "161500.000000", "161500.000000", "161500.000000", "161500.015000", "161500.015000", "161500.015000", "161500.015000", "161500.015000", "161500.015000", "161500.015000", "161500.031000", "161500.031000", "161500.031000", "161500.031000", "161500.031000", "161500.031000", "161500.031000", "161500.046000", "161500.046000", "161500.046000", "161500.046000", "161500.046000", "161500.046000", "161500.046000", "161500.062000", "161500.062000", "161500.062000", "161500.062000", "161600.000000", "161600.000000", "161600.000000", "161600.015000", "161600.015000", "161600.015000", "161600.015000", "161600.015000", "161600.015000", "161600.031000", "161600.031000", "161600.031000", "161600.031000", "161600.031000", "161600.031000", "161600.046000", "161600.046000", "161600.046000", "161600.046000", "161600.046000", "161600.046000", "161600.046000", "161600.062000", "161600.062000", "161600.062000", "161600.062000", "161600.078000", "161700.000000", "161700.000000", "161700.000000", "161700.015000", "161700.015000", "161700.015000", "161700.015000", "161700.015000", "161700.015000", "161700.015000", "161700.031000", "161700.031000", "161700.031000", "161700.031000", "161700.031000", "161700.031000", "161700.031000", "161700.046000", "161700.046000", "161700.046000", "161700.046000", "161700.046000", "161700.046000", "161700.062000", "161700.062000", "161700.062000", "161700.062000", "161700.062000", "161800.000000", "161800.000000", "161800.000000", "161800.000000", "161800.000000", "161800.000000", "161800.015000", "161800.015000", "161800.015000", "161800.015000", "161800.015000", "161800.015000", "161800.015000", "161800.031000", "161800.031000", "161800.031000", "161800.031000", "161800.031000", "161800.046000", "161800.046000", "161800.046000", "161800.046000", "161800.046000", "161800.046000", "161800.046000", "161800.062000", "161800.062000", "161900.000000", "161900.000000", "161900.000000", "161900.000000", "161900.000000", "161900.000000", "161900.015000", "161900.015000", "161900.015000", "161900.015000", "161900.015000", "161900.015000", "161900.015000", "161900.031000", "161900.031000", "161900.031000", "161900.031000", "161900.031000", "161900.031000", "161900.031000", "161900.046000", "161900.046000", "161900.046000", "161900.046000", "161900.046000", "161900.046000", "161900.062000", "161900.062000", "162000.000000", "162000.000000", "162000.000000", "162000.000000", "162000.000000", "162000.000000", "162000.015000", "162000.015000", "162000.015000", "162000.015000", "162000.015000", "162000.015000", "162000.015000", "162000.031000", "162000.031000", "162000.031000", "162000.031000", "162000.031000", "162000.031000", "162000.031000", "162000.046000", "162000.046000", "162000.046000", "162000.046000", "162000.046000", "162000.046000", "162000.062000", "162100.000000", "162100.000000", "162100.000000", "162100.000000", "162100.000000", "162100.000000", "162100.015000", "162100.015000", "162100.015000", "162100.015000", "162100.015000", "162100.015000", "162100.031000", "162100.031000", "162100.031000", "162100.031000", "162100.031000", "162100.031000", "162100.046000", "162100.046000", "162100.046000", "162100.046000", "162100.046000", "162100.046000", "162100.046000", "162100.046000", "162100.062000", "162100.062000", "162200.000000", "162200.000000", "162200.000000", "162200.000000", "162200.000000", "162200.000000", "162200.015000", "162200.015000", "162200.015000", "162200.015000", "162200.015000", "162200.015000", "162200.015000", "162200.031000", "162200.031000", "162200.031000", "162200.031000", "162200.031000", "162200.031000", "162200.031000", "162200.046000", "162200.046000", "162200.046000", "162200.046000", "162200.046000", "162200.062000", "162200.062000", "162300.000000", "162300.000000", "162300.000000", "162300.000000", "162300.000000", "162300.000000", "162300.015000", "162300.015000", "162300.015000", "162300.015000", "162300.015000", "162300.015000", "162300.015000", "162300.031000", "162300.031000", "162300.031000", "162300.031000", "162300.031000", "162300.046000", "162300.046000", "162300.046000", "162300.046000", "162300.046000", "162300.046000", "162300.046000", "162300.062000", "162300.062000", "162300.062000", "162400.000000", "162400.000000", "162400.000000", "162400.000000", "162400.015000", "162400.015000", "162400.015000", "162400.031000", "162400.031000", "162400.031000", "162400.031000", "162400.031000", "162400.031000", "162400.046000", "162400.046000", "162400.046000", "162400.046000", "162400.046000", "162400.046000", "162400.046000", "162400.062000", "162400.062000", "162400.062000", "162400.062000", "162400.062000", "162400.062000", "162400.062000", "162500.000000", "162500.000000", "162500.000000", "162500.000000", "162500.000000", "162500.000000", "162500.015000", "162500.015000", "162500.015000", "162500.015000", "162500.015000", "162500.015000", "162500.015000", "162500.031000", "162500.031000", "162500.031000", "162500.031000", "162500.031000", "162500.031000", "162500.031000", "162500.046000", "162500.046000", "162500.046000", "162500.046000", "162500.046000", "162500.046000", "162500.046000", "162600.000000", "162600.015000", "162600.015000", "162600.015000", "162600.015000", "162600.015000", "162600.031000", "162600.031000", "162600.031000", "162600.031000", "162600.031000", "162600.031000", "162600.031000", "162600.046000", "162600.046000", "162600.046000", "162600.046000", "162600.046000", "162600.046000", "162600.046000", "162600.062000", "162600.062000", "162600.062000", "162600.078000", "162600.078000", "162600.078000", "162600.078000", "162600.078000", "162700.000000", "162700.000000", "162700.000000", "162700.015000", "162700.015000", "162700.015000", "162700.015000", "162700.015000", "162700.015000", "162700.031000", "162700.031000", "162700.031000", "162700.031000", "162700.031000", "162700.031000", "162700.031000", "162700.046000", "162700.046000", "162700.046000", "162700.046000", "162700.046000", "162700.046000", "162700.046000", "162700.062000", "162700.062000", "162700.062000", "162700.062000", "162700.062000", "162800.000000", "162800.000000", "162800.000000", "162800.015000", "162800.015000", "162800.015000", "162800.015000", "162800.015000", "162800.015000", "162800.031000", "162800.031000", "162800.031000", "162800.031000", "162800.031000", "162800.031000", "162800.031000", "162800.046000", "162800.046000", "162800.046000", "162800.046000", "162800.046000", "162800.046000", "162800.046000", "162800.062000", "162800.062000", "162800.062000", "162800.062000", "162831.437000", "162831.437000", "162831.453000", "162831.453000", "162831.453000", "162831.453000", "162831.468000", "162831.468000", "162831.468000", "162831.468000", "162831.468000", "162831.468000", "162831.468000", "162831.484000", "162831.484000"],
      "DataSetTrailingPadding": [
        "\u0000\u0000\u0000\u0000\u0000\u0000\u0000\u0000\u0000\u0000\u0000\u0000\u0000\u0000\u0000\u0000\u0000\u0000\u0000\u0000\u0000\u0000\u0000\u0000\u0000\u0000\u0000\u0000\u0000\u0000\u0000\u0000\u0000\u0000\u0000\u0000\u0000\u0000\u0000\u0000\u0000\u0000\u0000\u0000\u0000\u0000\u0000\u0000\u0000\u0000\u0000\u0000\u0000\u0000\u0000\u0000",
        "\u0000\u0000\u0000\u0000\u0000\u0000\u0000\u0000\u0000\u0000\u0000\u0000\u0000\u0000\u0000\u0000\u0000\u0000\u0000\u0000\u0000\u0000\u0000\u0000\u0000\u0000\u0000\u0000\u0000\u0000\u0000\u0000\u0000\u0000\u0000\u0000\u0000\u0000\u0000\u0000\u0000\u0000\u0000\u0000\u0000\u0000\u0000\u0000\u0000\u0000\u0000\u0000\u0000\u0000\u0000\u0000",
        "\u0000\u0000\u0000\u0000\u0000\u0000\u0000\u0000\u0000\u0000\u0000\u0000\u0000\u0000\u0000\u0000\u0000\u0000\u0000\u0000\u0000\u0000\u0000\u0000\u0000\u0000\u0000\u0000\u0000\u0000\u0000\u0000\u0000\u0000\u0000\u0000\u0000\u0000\u0000\u0000\u0000\u0000\u0000\u0000\u0000\u0000\u0000\u0000\u0000\u0000\u0000\u0000\u0000\u0000\u0000\u0000",
        "\u0000\u0000\u0000\u0000\u0000\u0000\u0000\u0000\u0000\u0000\u0000\u0000\u0000\u0000\u0000\u0000\u0000\u0000\u0000\u0000\u0000\u0000\u0000\u0000\u0000\u0000\u0000\u0000\u0000\u0000\u0000\u0000\u0000\u0000\u0000\u0000\u0000\u0000\u0000\u0000\u0000\u0000\u0000\u0000\u0000\u0000\u0000\u0000\u0000\u0000\u0000\u0000\u0000\u0000",
        "\u0000\u0000\u0000\u0000\u0000\u0000\u0000\u0000\u0000\u0000\u0000\u0000\u0000\u0000\u0000\u0000\u0000\u0000\u0000\u0000\u0000\u0000\u0000\u0000\u0000\u0000\u0000\u0000\u0000\u0000\u0000\u0000\u0000\u0000\u0000\u0000\u0000\u0000\u0000\u0000\u0000\u0000\u0000\u0000\u0000\u0000\u0000\u0000\u0000\u0000\u0000\u0000\u0000\u0000\u0000\u0000",
