{
  "AcquisitionMatrixPE": 104,
  "AcquisitionNumber": 1,
  "AcquisitionTime": "16:25:49.740000",
  "BandwidthPerPixelPhaseEncode": 13.935,
  "BaseResolution": 104,
  "CoilString": "C:HEA;HEP",
  "ConversionSoftware": "dcm2niix",
  "ConversionSoftwareVersion": "v1.0.20210317",
  "DerivedVendorReportedEchoSpacing": 0.000690017,
  "DeviceSerialNumber": "35450",
  "DwellTime": 2.5e-06,
  "EchoTime": 0.0348,
  "EffectiveEchoSpacing": 0.000690017,
  "FlipAngle": 55,
  "ImageComments": "Unaliased MB8/PE3",
  "ImageOrientationPatientDICOM": [0.999877, 0.00139631, 0.0156451, -2.00762e-08, 0.996041, -0.0888943],
  "ImageType": [
    "ORIGINAL",
    "PRIMARY",
    "M",
    "MB",
    "ND",
    "MOSAIC"
],
  "ImagingFrequency": 123.235,
  "InPlanePhaseEncodingDirectionDICOM": "COL",
  "InstitutionAddress": "Univeristy Ave. 197,Newark,North East,US,07102-1814",
  "InstitutionName": "RUBIC",
  "InstitutionalDepartmentName": "Department",
  "MRAcquisitionType": "2D",
  "MagneticFieldStrength": 3,
  "Manufacturer": "Siemens",
  "ManufacturersModelName": "TrioTim",
  "Modality": "MR",
  "MultibandAccelerationFactor": 8,
  "PartialFourier": 0.875,
  "PatientPosition": "HFS",
  "PercentPhaseFOV": 100,
  "PercentSampling": 100,
  "PhaseEncodingDirection": "j-",
  "PhaseEncodingSteps": 91,
  "PhaseResolution": 1,
  "PixelBandwidth": 1923,
  "ProcedureStepDescription": "Cole^Michael",
  "ProtocolName": "cmrr_mbep2d_bold_2mm_MB8_Task_8x",
  "PulseSequenceDetails": "%CustomerSeq%\\cmrr_mbep2d_bold",
  "ReceiveCoilName": "32Ch_Head",
  "ReconMatrixPE": 104,
  "RepetitionTime": 0.785,
  "SAR": 0.118804,
  "ScanOptions": "PFP\\FS",
  "ScanningSequence": "EP",
  "SequenceName": "epfid2d1_104",
  "SequenceVariant": "SK\\SS",
  "SeriesDescription": "cmrr_mbep2d_bold_2mm_MB8_Task_8x",
  "SeriesNumber": 25,
  "ShimSetting": [2132, -540, -7396, 565, 272, -374, -445, 77],
  "SliceThickness": 2,
  "SliceTiming": [0, 0.4375, 0.0875, 0.525, 0.175, 0.6125, 0.2625, 0.7, 0.35, 0, 0.4375, 0.0875, 0.525, 0.175, 0.6125, 0.2625, 0.7, 0.35, 0, 0.4375, 0.0875, 0.525, 0.175, 0.6125, 0.2625, 0.7, 0.35, 0, 0.4375, 0.0875, 0.525, 0.175, 0.6125, 0.2625, 0.7, 0.35, 0, 0.4375, 0.0875, 0.525, 0.175, 0.6125, 0.2625, 0.7, 0.35, 0, 0.4375, 0.0875, 0.525, 0.175, 0.6125, 0.2625, 0.7, 0.35, 0, 0.4375, 0.0875, 0.525, 0.175, 0.6125, 0.2625, 0.7, 0.35, 0, 0.4375, 0.0875, 0.525, 0.175, 0.6125, 0.2625, 0.7, 0.35],
  "SoftwareVersions": "syngo MR B19",
  "SpacingBetweenSlices": 2,
  "StationName": "MRC35450",
  "TaskName": "cpro",
  "TotalReadoutTime": 0.0710717,
  "TxRefAmp": 330.216,
  "dcmmeta_affine": [
    [-1.9997532367706299, -4.0152379199298593e-08, 0.03141463175415993, 104.2278823852539],
    [-0.0027926217298954725, 1.992082118988037, -0.17776665091514587, -76.58936309814453],
    [0.031290262937545776, 0.17778858542442322, 1.9918363094329834, -111.09686279296875],
    [0.0, 0.0, 0.0, 1.0]
],
  "dcmmeta_reorient_transform": [
    [0.0, -1.0, 0.0, 103.0],
    [1.0, 0.0, 0.0, 0.0],
    [0.0, 0.0, 1.0, 0.0],
    [0.0, 0.0, 0.0, 1.0]
],
  "dcmmeta_shape": [104, 104, 72, 581],
  "dcmmeta_slice_dim": 2,
  "dcmmeta_version": 0.6,
  "global": {
    "const": {
      "AcquisitionMatrix": [104, 0, 0, 104],
      "AngioFlag": "N",
      "BitsAllocated": 16,
      "BitsStored": 12,
      "Columns": 936,
      "EchoNumbers": 1,
      "EchoTime": 34.8,
      "EchoTrainLength": 1,
      "FlipAngle": 55.0,
      "HighBit": 11,
      "ImageOrientationPatient": [0.99987663248909, 0.00139631083141, 0.01564513081859, -2.007619e-08, 0.99604106568838, -0.0888942937559],
      "ImagePositionPatient": [-936.12522193565, -958.46299483512, -31.841333234354],
      "ImageType": [
        "ORIGINAL",
        "PRIMARY",
        "M",
        "MB",
        "ND",
        "MOSAIC"
],
      "ImagedNucleus": "1H",
      "ImagingFrequency": 123.234503,
      "InPlanePhaseEncodingDirection": "COL",
      "MRAcquisitionType": "2D",
      "MagneticFieldStrength": 3.0,
      "Manufacturer": "SIEMENS",
      "ManufacturerModelName": "TrioTim",
      "Modality": "MR",
      "NumberOfAverages": 1.0,
      "NumberOfPhaseEncodingSteps": 91,
      "PercentPhaseFieldOfView": 100.0,
      "PercentSampling": 100.0,
      "PerformedProcedureStepStartTime": "143429.375000",
      "PhotometricInterpretation": "MONOCHROME2",
      "PixelBandwidth": 1923.0,
      "PixelRepresentation": 0,
      "PixelSpacing": [2.0, 2.0],
      "ProtocolName": "cmrr_mbep2d_bold_2mm_MB8_Task_8x",
      "RepetitionTime": 785.0,
      "Rows": 936,
      "SAR": 0.11880362850658,
      "SamplesPerPixel": 1,
      "ScanOptions": [
        "PFP",
        "FS"
],
      "ScanningSequence": "EP",
      "SequenceName": "epfid2d1_104",
      "SequenceVariant": [
        "SK",
        "SS"
],
      "SeriesDescription": "cmrr_mbep2d_bold_2mm_MB8_Task_8x",
      "SeriesNumber": 25,
      "SeriesTime": "181420.500000",
      "SliceLocation": -102.19872696317,
      "SliceThickness": 2.0,
      "SmallestImagePixelValue": 0,
      "SoftwareVersions": "syngo MR B19",
      "SpacingBetweenSlices": 1.9999999597893,
      "SpecificCharacterSet": "ISO_IR 100",
      "StudyID": "1",
      "StudyTime": "143429.203000",
      "TransmitCoilName": "Body",
      "VariableFlipAngleFlag": "N",
      "WindowCenterWidthExplanation": "Algo1",
      "dBdt": 0.0},
    "slices": {}
  },
  "time": {
    "samples": {
      "AcquisitionNumber": [1, 2, 3, 4, 5, 6, 7, 8, 9, 10, 11, 12, 13, 14, 15, 16, 17, 18, 19, 20, 21, 22, 23, 24, 25, 26, 27, 28, 29, 30, 31, 32, 33, 34, 35, 36, 37, 38, 39, 40, 41, 42, 43, 44, 45, 46, 47, 48, 49, 50, 51, 52, 53, 54, 55, 56, 57, 58, 59, 60, 61, 62, 63, 64, 65, 66, 67, 68, 69, 70, 71, 72, 73, 74, 75, 76, 77, 78, 79, 80, 81, 82, 83, 84, 85, 86, 87, 88, 89, 90, 91, 92, 93, 94, 95, 96, 97, 98, 99, 100, 101, 102, 103, 104, 105, 106, 107, 108, 109, 110, 111, 112, 113, 114, 115, 116, 117, 118, 119, 120, 121, 122, 123, 124, 125, 126, 127, 128, 129, 130, 131, 132, 133, 134, 135, 136, 137, 138, 139, 140, 141, 142, 143, 144, 145, 146, 147, 148, 149, 150, 151, 152, 153, 154, 155, 156, 157, 158, 159, 160, 161, 162, 163, 164, 165, 166, 167, 168, 169, 170, 171, 172, 173, 174, 175, 176, 177, 178, 179, 180, 181, 182, 183, 184, 185, 186, 187, 188, 189, 190, 191, 192, 193, 194, 195, 196, 197, 198, 199, 200, 201, 202, 203, 204, 205, 206, 207, 208, 209, 210, 211, 212, 213, 214, 215, 216, 217, 218, 219, 220, 221, 222, 223, 224, 225, 226, 227, 228, 229, 230, 231, 232, 233, 234, 235, 236, 237, 238, 239, 240, 241, 242, 243, 244, 245, 246, 247, 248, 249, 250, 251, 252, 253, 254, 255, 256, 257, 258, 259, 260, 261, 262, 263, 264, 265, 266, 267, 268, 269, 270, 271, 272, 273, 274, 275, 276, 277, 278, 279, 280, 281, 282, 283, 284, 285, 286, 287, 288, 289, 290, 291, 292, 293, 294, 295, 296, 297, 298, 299, 300, 301, 302, 303, 304, 305, 306, 307, 308, 309, 310, 311, 312, 313, 314, 315, 316, 317, 318, 319, 320, 321, 322, 323, 324, 325, 326, 327, 328, 329, 330, 331, 332, 333, 334, 335, 336, 337, 338, 339, 340, 341, 342, 343, 344, 345, 346, 347, 348, 349, 350, 351, 352, 353, 354, 355, 356, 357, 358, 359, 360, 361, 362, 363, 364, 365, 366, 367, 368, 369, 370, 371, 372, 373, 374, 375, 376, 377, 378, 379, 380, 381, 382, 383, 384, 385, 386, 387, 388, 389, 390, 391, 392, 393, 394, 395, 396, 397, 398, 399, 400, 401, 402, 403, 404, 405, 406, 407, 408, 409, 410, 411, 412, 413, 414, 415, 416, 417, 418, 419, 420, 421, 422, 423, 424, 425, 426, 427, 428, 429, 430, 431, 432, 433, 434, 435, 436, 437, 438, 439, 440, 441, 442, 443, 444, 445, 446, 447, 448, 449, 450, 451, 452, 453, 454, 455, 456, 457, 458, 459, 460, 461, 462, 463, 464, 465, 466, 467, 468, 469, 470, 471, 472, 473, 474, 475, 476, 477, 478, 479, 480, 481, 482, 483, 484, 485, 486, 487, 488, 489, 490, 491, 492, 493, 494, 495, 496, 497, 498, 499, 500, 501, 502, 503, 504, 505, 506, 507, 508, 509, 510, 511, 512, 513, 514, 515, 516, 517, 518, 519, 520, 521, 522, 523, 524, 525, 526, 527, 528, 529, 530, 531, 532, 533, 534, 535, 536, 537, 538, 539, 540, 541, 542, 543, 544, 545, 546, 547, 548, 549, 550, 551, 552, 553, 554, 555, 556, 557, 558, 559, 560, 561, 562, 563, 564, 565, 566, 567, 568, 569, 570, 571, 572, 573, 574, 575, 576, 577, 578, 579, 580, 581],
      "AcquisitionTime": ["162549.740000", "162550.527500", "162551.317500", "162552.105000", "162552.892500", "162553.682500", "162554.470000", "162555.257500", "162556.045000", "162556.835000", "162557.622500", "162558.410000", "162559.197500", "162559.987500", "162600.775000", "162601.562500", "162602.350000", "162603.140000", "162603.927500", "162604.715000", "162605.502500", "162606.292500", "162607.080000", "162607.867500", "162608.655000", "162609.445000", "162610.232500", "162611.020000", "162611.810000", "162612.597500", "162613.385000", "162614.172500", "162614.962500", "162615.750000", "162616.537500", "162617.325000", "162618.115000", "162618.902500", "162619.690000", "162620.477500", "162621.267500", "162622.055000", "162622.842500", "162623.630000", "162624.420000", "162625.207500", "162625.995000", "162626.782500", "162627.572500", "162628.360000", "162629.147500", "162629.937500", "162630.725000", "162631.512500", "162632.300000", "162633.090000", "162633.877500", "162634.665000", "162635.452500", "162636.242500", "162637.030000", "162637.817500", "162638.605000", "162639.395000", "162640.182500", "162640.970000", "162641.757500", "162642.547500", "162643.335000", "162644.122500", "162644.912500", "162645.700000", "162646.487500", "162647.275000", "162648.065000", "162648.852500", "162649.640000", "162650.427500", "162651.217500", "162652.005000", "162652.792500", "162653.580000", "162654.370000", "162655.157500", "162655.945000", "162656.732500", "162657.522500", "162658.310000", "162659.097500", "162659.885000", "162700.675000", "162701.462500", "162702.250000", "162703.040000", "162703.827500", "162704.615000", "162705.402500", "162706.192500", "162706.980000", "162707.767500", "162708.555000", "162709.345000", "162710.132500", "162710.920000", "162711.707500", "162712.497500", "162713.285000", "162714.072500", "162714.860000", "162715.650000", "162716.437500", "162717.225000", "162718.012500", "162718.802500", "162719.590000", "162720.377500", "162721.167500", "162721.955000", "162722.742500", "162723.530000", "162724.320000", "162725.107500", "162725.895000", "162726.682500", "162727.472500", "162728.260000", "162729.047500", "162729.835000", "162730.625000", "162731.412500", "162732.200000", "162732.987500", "162733.777500", "162734.565000", "162735.352500", "162736.140000", "162736.930000", "162737.717500", "162738.505000", "162739.295000", "162740.082500", "162740.870000", "162741.657500", "162742.447500", "162743.235000", "162744.022500", "162744.810000", "162745.600000", "162746.387500", "162747.175000", "162747.962500", "162748.752500", "162749.540000", "162750.327500", "162751.115000", "162751.905000", "162752.692500", "162753.480000", "162754.267500", "162755.057500", "162755.845000", "162756.632500", "162757.422500", "162758.210000", "162758.997500", "162759.785000", "162800.575000", "162801.362500", "162802.150000", "162802.937500", "162803.727500", "162804.515000", "162805.302500", "162806.090000", "162806.880000", "162807.667500", "162808.455000", "162809.242500", "162810.032500", "162810.820000", "162811.607500", "162812.395000", "162813.185000", "162813.972500", "162814.760000", "162815.550000", "162816.337500", "162817.125000", "162817.912500", "162818.702500", "162819.490000", "162820.277500", "162821.065000", "162821.855000", "162822.642500", "162823.430000", "162824.217500", "162825.007500", "162825.795000", "162826.582500", "162827.370000", "162828.160000", "162828.947500", "162829.735000", "162830.522500", "162831.312500", "162832.100000", "162832.887500", "162833.677500", "162834.465000", "162835.252500", "162836.040000", "162836.830000", "162837.617500", "162838.405000", "162839.192500", "162839.982500", "162840.770000", "162841.557500", "162842.345000", "162843.135000", "162843.922500", "162844.710000", "162845.497500", "162846.287500", "162847.075000", "162847.862500", "162848.650000", "162849.440000", "162850.227500", "162851.015000", "162851.805000", "162852.592500", "162853.380000", "162854.167500", "162854.957500", "162855.745000", "162856.532500", "162857.320000", "162858.110000", "162858.897500", "162859.685000", "162900.472500", "162901.262500", "162902.050000", "162902.837500", "162903.625000", "162904.415000", "162905.202500", "162905.990000", "162906.777500", "162907.567500", "162908.355000", "162909.142500", "162909.932500", "162910.720000", "162911.507500", "162912.295000", "162913.085000", "162913.872500", "162914.660000", "162915.447500", "162916.237500", "162917.025000", "162917.812500", "162918.600000", "162919.390000", "162920.177500", "162920.965000", "162921.752500", "162922.542500", "162923.330000", "162924.117500", "162924.905000", "162925.695000", "162926.482500", "162927.270000", "162928.060000", "162928.847500", "162929.635000", "162930.422500", "162931.212500", "162932.000000", "162932.787500", "162933.575000", "162934.365000", "162935.152500", "162935.940000", "162936.727500", "162937.517500", "162938.305000", "162939.092500", "162939.880000", "162940.670000", "162941.457500", "162942.245000", "162943.032500", "162943.822500", "162944.610000", "162945.397500", "162946.187500", "162946.975000", "162947.762500", "162948.550000", "162949.340000", "162950.127500", "162950.915000", "162951.702500", "162952.492500", "162953.280000", "162954.067500", "162954.855000", "162955.645000", "162956.432500", "162957.220000", "162958.007500", "162958.797500", "162959.585000", "163000.372500", "163001.162500", "163001.950000", "163002.737500", "163003.525000", "163004.315000", "163005.102500", "163005.890000", "163006.677500", "163007.467500", "163008.255000", "163009.042500", "163009.830000", "163010.620000", "163011.407500", "163012.195000", "163012.982500", "163013.772500", "163014.560000", "163015.347500", "163016.135000", "163016.925000", "163017.712500", "163018.500000", "163019.290000", "163020.077500", "163020.865000", "163021.652500", "163022.442500", "163023.230000", "163024.017500", "163024.805000", "163025.595000", "163026.382500", "163027.170000", "163027.957500", "163028.747500", "163029.535000", "163030.322500", "163031.110000", "163031.900000", "163032.687500", "163033.475000", "163034.262500", "163035.052500", "163035.840000", "163036.627500", "163037.417500", "163038.205000", "163038.992500", "163039.780000", "163040.570000", "163041.357500", "163042.145000", "163042.932500", "163043.722500", "163044.510000", "163045.297500", "163046.085000", "163046.875000", "163047.662500", "163048.450000", "163049.237500", "163050.027500", "163050.815000", "163051.602500", "163052.390000", "163053.180000", "163053.967500", "163054.755000", "163055.545000", "163056.332500", "163057.120000", "163057.907500", "163058.697500", "163059.485000", "163100.272500", "163101.060000", "163101.850000", "163102.637500", "163103.425000", "163104.212500", "163105.002500", "163105.790000", "163106.577500", "163107.365000", "163108.155000", "163108.942500", "163109.730000", "163110.517500", "163111.307500", "163112.095000", "163112.882500", "163113.672500", "163114.460000", "163115.247500", "163116.035000", "163116.825000", "163117.612500", "163118.400000", "163119.187500", "163119.977500", "163120.765000", "163121.552500", "163122.340000", "163123.130000", "163123.917500", "163124.705000", "163125.492500", "163126.282500", "163127.070000", "163127.857500", "163128.645000", "163129.435000", "163130.222500", "163131.010000", "163131.800000", "163132.587500", "163133.375000", "163134.162500", "163134.952500", "163135.740000", "163136.527500", "163137.315000", "163138.105000", "163138.892500", "163139.680000", "163140.467500", "163141.257500", "163142.045000", "163142.832500", "163143.620000", "163144.410000", "163145.197500", "163145.985000", "163146.772500", "163147.562500", "163148.350000", "163149.137500", "163149.927500", "163150.715000", "163151.502500", "163152.290000", "163153.080000", "163153.867500", "163154.655000", "163155.442500", "163156.232500", "163157.020000", "163157.807500", "163158.595000", "163159.385000", "163200.172500", "163200.960000", "163201.747500", "163202.537500", "163203.325000", "163204.112500", "163204.900000", "163205.690000", "163206.477500", "163207.265000", "163208.055000", "163208.842500", "163209.630000", "163210.417500", "163211.207500", "163211.995000", "163212.782500", "163213.570000", "163214.360000", "163215.147500", "163215.935000", "163216.722500", "163217.512500", "163218.300000", "163219.087500", "163219.875000", "163220.665000", "163221.452500", "163222.240000", "163223.027500", "163223.817500", "163224.605000", "163225.392500", "163226.182500", "163226.970000", "163227.757500", "163228.545000", "163229.335000", "163230.122500", "163230.910000", "163231.697500", "163232.487500", "163233.275000", "163234.062500", "163234.850000", "163235.640000", "163236.427500", "163237.215000", "163238.002500", "163238.792500", "163239.580000", "163240.367500", "163241.155000", "163241.945000", "163242.732500", "163243.520000", "163244.310000", "163245.097500", "163245.885000", "163246.672500", "163247.462500", "163248.250000", "163249.037500", "163249.825000", "163250.615000", "163251.402500", "163252.190000", "163252.977500", "163253.767500", "163254.555000", "163255.342500", "163256.130000", "163256.920000", "163257.707500", "163258.495000", "163259.282500", "163300.072500", "163300.860000", "163301.647500", "163302.437500", "163303.225000", "163304.012500", "163304.800000", "163305.590000", "163306.377500", "163307.165000", "163307.952500", "163308.742500", "163309.530000", "163310.317500", "163311.105000", "163311.895000", "163312.682500", "163313.470000", "163314.257500", "163315.047500", "163315.835000", "163316.622500", "163317.412500", "163318.200000", "163318.987500", "163319.775000", "163320.565000", "163321.352500", "163322.140000", "163322.927500", "163323.717500", "163324.505000", "163325.292500", "163326.080000", "163326.870000"],
      "ContentTime": ["181420.500000", "181420.500000", "181420.500000", "181420.500000", "181420.500000", "181420.515000", "181420.515000", "181420.515000", "181420.515000", "181420.515000", "181420.515000", "181420.515000", "181420.531000", "181420.531000", "181420.531000", "181420.531000", "181420.531000", "181420.531000", "181420.546000", "181420.546000", "181520.500000", "181520.500000", "181520.500000", "181520.500000", "181520.500000", "181520.515000", "181520.515000", "181520.515000", "181520.515000", "181520.515000", "181520.515000", "181520.531000", "181520.531000", "181520.531000", "181520.531000", "181520.546000", "181520.546000", "181520.546000", "181520.546000", "181520.546000", "181520.546000", "181520.546000", "181520.562000", "181520.562000", "181520.562000", "181520.562000", "181520.562000", "181520.562000", "181540.500000", "181540.500000", "181540.500000", "181540.500000", "181540.500000", "181540.500000", "181540.515000", "181540.515000", "181540.515000", "181640.500000", "181640.500000", "181640.500000", "181640.500000", "181640.500000", "181640.500000", "181640.515000", "181640.515000", "181640.515000", "181640.515000", "181640.515000", "181640.515000", "181640.515000", "181640.531000", "181640.531000", "181640.531000", "181640.531000", "181640.531000", "181640.531000", "181640.531000", "181640.546000", "181640.546000", "181640.546000", "181640.546000", "181640.546000", "181640.546000", "181640.546000", "181640.562000", "181640.562000", "181740.500000", "181740.500000", "181740.500000", "181740.500000", "181740.500000", "181740.500000", "181740.515000", "181740.515000", "181740.515000", "181740.515000", "181740.515000", "181740.515000", "181740.531000", "181740.531000", "181740.531000", "181740.531000", "181740.531000", "181740.531000", "181740.546000", "181740.546000", "181740.546000", "181740.546000", "181740.546000", "181740.546000", "181740.546000", "181740.562000", "181740.562000", "181740.562000", "181840.500000", "181840.500000", "181840.500000", "181840.500000", "181840.500000", "181840.500000", "181840.515000", "181840.515000", "181840.515000", "181840.515000", "181840.515000", "181840.515000", "181840.531000", "181840.531000", "181840.531000", "181840.531000", "181840.531000", "181840.531000", "181840.531000", "181840.546000", "181840.546000", "181840.546000", "181840.546000", "181840.546000", "181840.546000", "181840.546000", "181840.562000", "181840.562000", "181940.500000", "181940.500000", "181940.500000", "181940.500000", "181940.500000", "181940.500000", "181940.515000", "181940.515000", "181940.515000", "181940.515000", "181940.515000", "181940.515000", "181940.515000", "181940.531000", "181940.531000", "181940.531000", "181940.531000", "181940.531000", "181940.531000", "181940.546000", "181940.546000", "181940.546000", "181940.546000", "181940.546000", "181940.546000", "181940.546000", "181940.562000", "181940.562000", "182040.500000", "182040.500000", "182040.500000", "182040.500000", "182040.500000", "182040.500000", "182040.515000", "182040.515000", "182040.515000", "182040.515000", "182040.515000", "182040.515000", "182040.531000", "182040.531000", "182040.531000", "182040.531000", "182040.531000", "182040.546000", "182040.546000", "182040.546000", "182040.546000", "182040.546000", "182040.546000", "182040.562000", "182040.562000", "182040.562000", "182040.562000", "182040.562000", "182040.562000", "182140.500000", "182140.500000", "182140.500000", "182140.500000", "182140.500000", "182140.500000", "182140.515000", "182140.515000", "182140.515000", "182140.515000", "182140.515000", "182140.515000", "182140.515000", "182140.531000", "182140.531000", "182140.531000", "182140.531000", "182140.531000", "182140.531000", "182140.531000", "182140.546000", "182140.546000", "182140.546000", "182140.546000", "182140.546000", "182140.546000", "182140.546000", "182140.562000", "182240.500000", "182240.500000", "182240.500000", "182240.500000", "182240.500000", "182240.515000", "182240.515000", "182240.515000", "182240.515000", "182240.515000", "182240.515000", "182240.515000", "182240.531000", "182240.531000", "182240.531000", "182240.531000", "182240.531000", "182240.531000", "182240.531000", "182240.546000", "182240.546000", "182240.546000", "182240.546000", "182240.546000", "182240.546000", "182240.546000", "182240.562000", "182240.562000", "182340.500000", "182340.500000", "182340.500000", "182340.500000", "182340.500000", "182340.500000", "182340.515000", "182340.515000", "182340.515000", "182340.515000", "182340.515000", "182340.515000", "182340.531000", "182340.531000", "182340.531000", "182340.531000", "182340.531000", "182340.531000", "182340.531000", "182340.546000", "182340.546000", "182340.546000", "182340.546000", "182340.546000", "182340.546000", "182340.546000", "182340.562000", "182340.562000", "182340.562000", "182440.500000", "182440.500000", "182440.500000", "182440.500000", "182440.500000", "182440.500000", "182440.515000", "182440.515000", "182440.515000", "182440.515000", "182440.515000", "182440.531000", "182440.531000", "182440.531000", "182440.531000", "182440.531000", "182440.531000", "182440.531000", "182440.546000", "182440.546000", "182440.546000", "182440.546000", "182440.546000", "182440.546000", "182440.546000", "182440.562000", "182440.562000", "182440.562000", "182540.500000", "182540.500000", "182540.500000", "182540.500000", "182540.500000", "182540.500000", "182540.515000", "182540.515000", "182540.515000", "182540.515000", "182540.515000", "182540.515000", "182540.515000", "182540.531000", "182540.531000", "182540.531000", "182540.531000", "182540.531000", "182540.531000", "182540.531000", "182540.546000", "182540.546000", "182540.546000", "182540.546000", "182540.546000", "182540.546000", "182540.562000", "182540.562000", "182600.500000", "182600.500000", "182600.500000", "182600.500000", "182600.500000", "182600.500000", "182600.515000", "182600.515000", "182600.515000", "182600.515000", "182700.500000", "182700.500000", "182700.500000", "182700.500000", "182700.500000", "182700.500000", "182700.515000", "182700.515000", "182700.515000", "182700.515000", "182700.515000", "182700.515000", "182700.515000", "182700.531000", "182700.531000", "182700.531000", "182700.531000", "182700.531000", "182700.531000", "182700.546000", "182700.546000", "182700.546000", "182700.546000", "182700.546000", "182700.546000", "182700.546000", "182700.546000", "182700.562000", "182800.500000", "182800.500000", "182800.500000", "182800.500000", "182800.500000", "182800.500000", "182800.515000", "182800.515000", "182800.515000", "182800.515000", "182800.515000", "182800.515000", "182800.531000", "182800.531000", "182800.531000", "182800.546000", "182800.546000", "182800.546000", "182800.546000", "182800.562000", "182800.562000", "182800.562000", "182800.562000", "182800.578000", "182800.578000", "182800.578000", "182800.578000", "182800.578000", "182900.500000", "182900.500000", "182900.500000", "182900.500000", "182900.500000", "182900.500000", "182900.515000", "182900.515000", "182900.515000", "182900.515000", "182900.515000", "182900.515000", "182900.515000", "182900.531000", "182900.531000", "182900.531000", "182900.531000", "182900.531000", "182900.546000", "182900.546000", "182900.546000", "182900.546000", "182900.546000", "182900.546000", "182900.562000", "182900.562000", "182900.562000", "182900.562000", "183000.500000", "183000.500000", "183000.500000", "183000.500000", "183000.500000", "183000.515000", "183000.515000", "183000.515000", "183000.515000", "183000.515000", "183000.531000", "183000.531000", "183000.531000", "183000.531000", "183000.531000", "183000.531000", "183000.531000", "183000.546000", "183000.546000", "183000.546000", "183000.546000", "183000.546000", "183000.562000", "183000.562000", "183000.562000", "183000.562000", "183000.562000", "183000.562000", "183000.578000", "183100.500000", "183100.500000", "183100.500000", "183100.500000", "183100.500000", "183100.515000", "183100.515000", "183100.515000", "183100.515000", "183100.515000", "183100.515000", "183100.515000", "183100.531000", "183100.531000", "183100.531000", "183100.531000", "183100.531000", "183100.531000", "183100.531000", "183100.546000", "183100.546000", "183100.546000", "183100.546000", "183100.546000", "183100.546000", "183100.546000", "183100.562000", "183100.562000", "183200.500000", "183200.500000", "183200.500000", "183200.500000", "183200.500000", "183200.500000", "183200.515000", "183200.515000", "183200.515000", "183200.515000", "183200.515000", "183200.515000", "183200.515000", "183200.531000", "183200.531000", "183200.531000", "183200.531000", "183200.531000", "183200.531000", "183200.531000", "183200.546000", "183200.546000", "183200.546000", "183200.546000", "183200.546000", "183200.546000", "183200.546000", "183200.562000", "183300.500000", "183300.500000", "183300.500000", "183300.500000", "183300.500000", "183300.515000", "183300.515000", "183300.515000", "183300.515000", "183300.515000", "183300.515000", "183300.515000", "183300.531000", "183300.531000", "183300.531000", "183300.531000", "183300.531000", "183300.531000", "183300.531000", "183300.546000", "183300.546000", "183300.546000", "183300.546000", "183300.546000", "183300.546000", "183300.546000", "183300.562000", "183300.562000", "183300.562000", "183400.500000", "183400.500000", "183400.500000", "183400.500000", "183400.500000", "183400.515000", "183400.515000", "183400.515000", "183400.515000", "183400.515000", "183400.515000", "183400.515000", "183400.531000", "183400.531000", "183400.531000", "183400.531000", "183400.531000", "183400.531000", "183400.546000", "183400.546000", "183400.546000", "183400.546000", "183400.546000", "183400.562000", "183400.562000", "183400.562000", "183400.562000", "183400.562000", "183409.984000", "183409.984000", "183409.984000", "183409.984000", "183410.000000"],
      "DataSetTrailingPadding": [
        "\u0000\u0000\u0000\u0000\u0000\u0000\u0000\u0000\u0000\u0000\u0000\u0000\u0000\u0000\u0000\u0000\u0000\u0000\u0000\u0000\u0000\u0000\u0000\u0000\u0000\u0000\u0000\u0000\u0000\u0000\u0000\u0000\u0000\u0000\u0000\u0000\u0000\u0000\u0000\u0000\u0000\u0000\u0000\u0000\u0000\u0000\u0000\u0000\u0000\u0000\u0000\u0000\u0000\u0000\u0000\u0000",
        "\u0000\u0000\u0000\u0000\u0000\u0000\u0000\u0000\u0000\u0000\u0000\u0000\u0000\u0000\u0000\u0000\u0000\u0000\u0000\u0000\u0000\u0000\u0000\u0000\u0000\u0000\u0000\u0000\u0000\u0000\u0000\u0000\u0000\u0000\u0000\u0000\u0000\u0000\u0000\u0000\u0000\u0000\u0000\u0000\u0000\u0000\u0000\u0000\u0000\u0000\u0000\u0000\u0000\u0000\u0000\u0000",
        "\u0000\u0000\u0000\u0000\u0000\u0000\u0000\u0000\u0000\u0000\u0000\u0000\u0000\u0000\u0000\u0000\u0000\u0000\u0000\u0000\u0000\u0000\u0000\u0000\u0000\u0000\u0000\u0000\u0000\u0000\u0000\u0000\u0000\u0000\u0000\u0000\u0000\u0000\u0000\u0000\u0000\u0000\u0000\u0000\u0000\u0000\u0000\u0000\u0000\u0000\u0000\u0000\u0000\u0000\u0000\u0000",
        "\u0000\u0000\u0000\u0000\u0000\u0000\u0000\u0000\u0000\u0000\u0000\u0000\u0000\u0000\u0000\u0000\u0000\u0000\u0000\u0000\u0000\u0000\u0000\u0000\u0000\u0000\u0000\u0000\u0000\u0000\u0000\u0000\u0000\u0000\u0000\u0000\u0000\u0000\u0000\u0000\u0000\u0000\u0000\u0000\u0000\u0000\u0000\u0000\u0000\u0000\u0000\u0000\u0000\u0000",
        "\u0000\u0000\u0000\u0000\u0000\u0000\u0000\u0000\u0000\u0000\u0000\u0000\u0000\u0000\u0000\u0000\u0000\u0000\u0000\u0000\u0000\u0000\u0000\u0000\u0000\u0000\u0000\u0000\u0000\u0000\u0000\u0000\u0000\u0000\u0000\u0000\u0000\u0000\u0000\u0000\u0000\u0000\u0000\u0000\u0000\u0000\u0000\u0000\u0000\u0000\u0000\u0000\u0000\u0000\u0000\u0000",
