{
  "AcquisitionMatrixPE": 104,
  "AcquisitionNumber": 1,
  "AcquisitionTime": "16:34:3.662500",
  "BandwidthPerPixelPhaseEncode": 13.935,
  "BaseResolution": 104,
  "CoilString": "C:HEA;HEP",
  "ConversionSoftware": "dcm2niix",
  "ConversionSoftwareVersion": "v1.0.20210317",
  "DerivedVendorReportedEchoSpacing": 0.000690017,
  "DeviceSerialNumber": "35450",
  "DwellTime": 2.5e-06,
  "EchoTime": 0.0348,
  "EffectiveEchoSpacing": 0.000690017,
  "FlipAngle": 55,
  "ImageComments": "Unaliased MB8/PE3",
  "ImageOrientationPatientDICOM": [0.999877, 0.00139631, 0.0156451, -2.00762e-08, 0.996041, -0.0888943],
  "ImageType": [
    "ORIGINAL",
    "PRIMARY",
    "M",
    "MB",
    "ND",
    "MOSAIC"
],
  "ImagingFrequency": 123.235,
  "InPlanePhaseEncodingDirectionDICOM": "COL",
  "InstitutionAddress": "Univeristy Ave. 197,Newark,North East,US,07102-1814",
  "InstitutionName": "RUBIC",
  "InstitutionalDepartmentName": "Department",
  "MRAcquisitionType": "2D",
  "MagneticFieldStrength": 3,
  "Manufacturer": "Siemens",
  "ManufacturersModelName": "TrioTim",
  "Modality": "MR",
  "MultibandAccelerationFactor": 8,
  "PartialFourier": 0.875,
  "PatientPosition": "HFS",
  "PercentPhaseFOV": 100,
  "PercentSampling": 100,
  "PhaseEncodingDirection": "j-",
  "PhaseEncodingSteps": 91,
  "PhaseResolution": 1,
  "PixelBandwidth": 1923,
  "ProcedureStepDescription": "Cole^Michael",
  "ProtocolName": "cmrr_mbep2d_bold_2mm_MB8_Task_8x",
  "PulseSequenceDetails": "%CustomerSeq%\\cmrr_mbep2d_bold",
  "ReceiveCoilName": "32Ch_Head",
  "ReconMatrixPE": 104,
  "RepetitionTime": 0.785,
  "SAR": 0.118804,
  "ScanOptions": "PFP\\FS",
  "ScanningSequence": "EP",
  "SequenceName": "epfid2d1_104",
  "SequenceVariant": "SK\\SS",
  "SeriesDescription": "cmrr_mbep2d_bold_2mm_MB8_Task_8x",
  "SeriesNumber": 27,
  "ShimSetting": [2132, -540, -7396, 565, 272, -374, -445, 77],
  "SliceThickness": 2,
  "SliceTiming": [0, 0.4375, 0.0875, 0.525, 0.175, 0.6125, 0.2625, 0.7, 0.35, 0, 0.4375, 0.0875, 0.525, 0.175, 0.6125, 0.2625, 0.7, 0.35, 0, 0.4375, 0.0875, 0.525, 0.175, 0.6125, 0.2625, 0.7, 0.35, 0, 0.4375, 0.0875, 0.525, 0.175, 0.6125, 0.2625, 0.7, 0.35, 0, 0.4375, 0.0875, 0.525, 0.175, 0.6125, 0.2625, 0.7, 0.35, 0, 0.4375, 0.0875, 0.525, 0.175, 0.6125, 0.2625, 0.7, 0.35, 0, 0.4375, 0.0875, 0.525, 0.175, 0.6125, 0.2625, 0.7, 0.35, 0, 0.4375, 0.0875, 0.525, 0.175, 0.6125, 0.2625, 0.7, 0.35],
  "SoftwareVersions": "syngo MR B19",
  "SpacingBetweenSlices": 2,
  "StationName": "MRC35450",
  "TaskName": "cpro",
  "TotalReadoutTime": 0.0710717,
  "TxRefAmp": 330.216,
  "dcmmeta_affine": [
    [-1.9997532367706299, -4.0152379199298593e-08, 0.03141463175415993, 104.2278823852539],
    [-0.0027926217298954725, 1.992082118988037, -0.17776665091514587, -76.58936309814453],
    [0.031290262937545776, 0.17778858542442322, 1.9918363094329834, -111.09686279296875],
    [0.0, 0.0, 0.0, 1.0]
],
  "dcmmeta_reorient_transform": [
    [0.0, -1.0, 0.0, 103.0],
    [1.0, 0.0, 0.0, 0.0],
    [0.0, 0.0, 1.0, 0.0],
    [0.0, 0.0, 0.0, 1.0]
],
  "dcmmeta_shape": [104, 104, 72, 581],
  "dcmmeta_slice_dim": 2,
  "dcmmeta_version": 0.6,
  "global": {
    "const": {
      "AcquisitionMatrix": [104, 0, 0, 104],
      "AngioFlag": "N",
      "BitsAllocated": 16,
      "BitsStored": 12,
      "Columns": 936,
      "EchoNumbers": 1,
      "EchoTime": 34.8,
      "EchoTrainLength": 1,
      "FlipAngle": 55.0,
      "HighBit": 11,
      "ImageOrientationPatient": [0.99987663248909, 0.00139631083141, 0.01564513081859, -2.007619e-08, 0.99604106568838, -0.0888942937559],
      "ImagePositionPatient": [-936.12522193565, -958.46299483512, -31.841333234354],
      "ImageType": [
        "ORIGINAL",
        "PRIMARY",
        "M",
        "MB",
        "ND",
        "MOSAIC"
],
      "ImagedNucleus": "1H",
      "ImagingFrequency": 123.234503,
      "InPlanePhaseEncodingDirection": "COL",
      "MRAcquisitionType": "2D",
      "MagneticFieldStrength": 3.0,
      "Manufacturer": "SIEMENS",
      "ManufacturerModelName": "TrioTim",
      "Modality": "MR",
      "NumberOfAverages": 1.0,
      "NumberOfPhaseEncodingSteps": 91,
      "PercentPhaseFieldOfView": 100.0,
      "PercentSampling": 100.0,
      "PerformedProcedureStepStartTime": "143429.375000",
      "PhotometricInterpretation": "MONOCHROME2",
      "PixelBandwidth": 1923.0,
      "PixelRepresentation": 0,
      "PixelSpacing": [2.0, 2.0],
      "ProtocolName": "cmrr_mbep2d_bold_2mm_MB8_Task_8x",
      "RepetitionTime": 785.0,
      "Rows": 936,
      "SAR": 0.11880362850658,
      "SamplesPerPixel": 1,
      "ScanOptions": [
        "PFP",
        "FS"
],
      "ScanningSequence": "EP",
      "SequenceName": "epfid2d1_104",
      "SequenceVariant": [
        "SK",
        "SS"
],
      "SeriesDescription": "cmrr_mbep2d_bold_2mm_MB8_Task_8x",
      "SeriesNumber": 27,
      "SeriesTime": "183440.015000",
      "SliceLocation": -102.19872696317,
      "SliceThickness": 2.0,
      "SmallestImagePixelValue": 0,
      "SoftwareVersions": "syngo MR B19",
      "SpacingBetweenSlices": 1.9999999597893,
      "SpecificCharacterSet": "ISO_IR 100",
      "StudyID": "1",
      "StudyTime": "143429.203000",
      "TransmitCoilName": "Body",
      "VariableFlipAngleFlag": "N",
      "WindowCenterWidthExplanation": "Algo1",
      "dBdt": 0.0},
    "slices": {}
  },
  "time": {
    "samples": {
      "AcquisitionNumber": [1, 2, 3, 4, 5, 6, 7, 8, 9, 10, 11, 12, 13, 14, 15, 16, 17, 18, 19, 20, 21, 22, 23, 24, 25, 26, 27, 28, 29, 30, 31, 32, 33, 34, 35, 36, 37, 38, 39, 40, 41, 42, 43, 44, 45, 46, 47, 48, 49, 50, 51, 52, 53, 54, 55, 56, 57, 58, 59, 60, 61, 62, 63, 64, 65, 66, 67, 68, 69, 70, 71, 72, 73, 74, 75, 76, 77, 78, 79, 80, 81, 82, 83, 84, 85, 86, 87, 88, 89, 90, 91, 92, 93, 94, 95, 96, 97, 98, 99, 100, 101, 102, 103, 104, 105, 106, 107, 108, 109, 110, 111, 112, 113, 114, 115, 116, 117, 118, 119, 120, 121, 122, 123, 124, 125, 126, 127, 128, 129, 130, 131, 132, 133, 134, 135, 136, 137, 138, 139, 140, 141, 142, 143, 144, 145, 146, 147, 148, 149, 150, 151, 152, 153, 154, 155, 156, 157, 158, 159, 160, 161, 162, 163, 164, 165, 166, 167, 168, 169, 170, 171, 172, 173, 174, 175, 176, 177, 178, 179, 180, 181, 182, 183, 184, 185, 186, 187, 188, 189, 190, 191, 192, 193, 194, 195, 196, 197, 198, 199, 200, 201, 202, 203, 204, 205, 206, 207, 208, 209, 210, 211, 212, 213, 214, 215, 216, 217, 218, 219, 220, 221, 222, 223, 224, 225, 226, 227, 228, 229, 230, 231, 232, 233, 234, 235, 236, 237, 238, 239, 240, 241, 242, 243, 244, 245, 246, 247, 248, 249, 250, 251, 252, 253, 254, 255, 256, 257, 258, 259, 260, 261, 262, 263, 264, 265, 266, 267, 268, 269, 270, 271, 272, 273, 274, 275, 276, 277, 278, 279, 280, 281, 282, 283, 284, 285, 286, 287, 288, 289, 290, 291, 292, 293, 294, 295, 296, 297, 298, 299, 300, 301, 302, 303, 304, 305, 306, 307, 308, 309, 310, 311, 312, 313, 314, 315, 316, 317, 318, 319, 320, 321, 322, 323, 324, 325, 326, 327, 328, 329, 330, 331, 332, 333, 334, 335, 336, 337, 338, 339, 340, 341, 342, 343, 344, 345, 346, 347, 348, 349, 350, 351, 352, 353, 354, 355, 356, 357, 358, 359, 360, 361, 362, 363, 364, 365, 366, 367, 368, 369, 370, 371, 372, 373, 374, 375, 376, 377, 378, 379, 380, 381, 382, 383, 384, 385, 386, 387, 388, 389, 390, 391, 392, 393, 394, 395, 396, 397, 398, 399, 400, 401, 402, 403, 404, 405, 406, 407, 408, 409, 410, 411, 412, 413, 414, 415, 416, 417, 418, 419, 420, 421, 422, 423, 424, 425, 426, 427, 428, 429, 430, 431, 432, 433, 434, 435, 436, 437, 438, 439, 440, 441, 442, 443, 444, 445, 446, 447, 448, 449, 450, 451, 452, 453, 454, 455, 456, 457, 458, 459, 460, 461, 462, 463, 464, 465, 466, 467, 468, 469, 470, 471, 472, 473, 474, 475, 476, 477, 478, 479, 480, 481, 482, 483, 484, 485, 486, 487, 488, 489, 490, 491, 492, 493, 494, 495, 496, 497, 498, 499, 500, 501, 502, 503, 504, 505, 506, 507, 508, 509, 510, 511, 512, 513, 514, 515, 516, 517, 518, 519, 520, 521, 522, 523, 524, 525, 526, 527, 528, 529, 530, 531, 532, 533, 534, 535, 536, 537, 538, 539, 540, 541, 542, 543, 544, 545, 546, 547, 548, 549, 550, 551, 552, 553, 554, 555, 556, 557, 558, 559, 560, 561, 562, 563, 564, 565, 566, 567, 568, 569, 570, 571, 572, 573, 574, 575, 576, 577, 578, 579, 580, 581],
      "AcquisitionTime": ["163403.662500", "163404.450000", "163405.237500", "163406.027500", "163406.815000", "163407.602500", "163408.390000", "163409.180000", "163409.967500", "163410.755000", "163411.542500", "163412.332500", "163413.120000", "163413.907500", "163414.695000", "163415.485000", "163416.272500", "163417.060000", "163417.850000", "163418.637500", "163419.425000", "163420.212500", "163421.002500", "163421.790000", "163422.577500", "163423.365000", "163424.155000", "163424.942500", "163425.730000", "163426.517500", "163427.307500", "163428.095000", "163428.882500", "163429.670000", "163430.460000", "163431.247500", "163432.035000", "163432.822500", "163433.612500", "163434.400000", "163435.187500", "163435.977500", "163436.765000", "163437.552500", "163438.340000", "163439.130000", "163439.917500", "163440.705000", "163441.492500", "163442.282500", "163443.070000", "163443.857500", "163444.645000", "163445.435000", "163446.222500", "163447.010000", "163447.797500", "163448.587500", "163449.375000", "163450.162500", "163450.952500", "163451.740000", "163452.527500", "163453.315000", "163454.105000", "163454.892500", "163455.680000", "163456.467500", "163457.257500", "163458.045000", "163458.832500", "163459.620000", "163500.410000", "163501.197500", "163501.985000", "163502.772500", "163503.562500", "163504.350000", "163505.137500", "163505.925000", "163506.715000", "163507.502500", "163508.290000", "163509.080000", "163509.867500", "163510.655000", "163511.442500", "163512.232500", "163513.020000", "163513.807500", "163514.595000", "163515.385000", "163516.172500", "163516.960000", "163517.747500", "163518.537500", "163519.325000", "163520.112500", "163520.900000", "163521.690000", "163522.477500", "163523.265000", "163524.052500", "163524.842500", "163525.630000", "163526.417500", "163527.207500", "163527.995000", "163528.782500", "163529.570000", "163530.360000", "163531.147500", "163531.935000", "163532.722500", "163533.512500", "163534.300000", "163535.087500", "163535.875000", "163536.665000", "163537.452500", "163538.240000", "163539.027500", "163539.817500", "163540.605000", "163541.392500", "163542.180000", "163542.970000", "163543.757500", "163544.545000", "163545.335000", "163546.122500", "163546.910000", "163547.697500", "163548.487500", "163549.275000", "163550.062500", "163550.850000", "163551.640000", "163552.427500", "163553.215000", "163554.002500", "163554.792500", "163555.580000", "163556.367500", "163557.155000", "163557.945000", "163558.732500", "163559.520000", "163600.307500", "163601.097500", "163601.885000", "163602.672500", "163603.462500", "163604.250000", "163605.037500", "163605.825000", "163606.615000", "163607.402500", "163608.190000", "163608.977500", "163609.767500", "163610.555000", "163611.342500", "163612.130000", "163612.920000", "163613.707500", "163614.495000", "163615.282500", "163616.072500", "163616.860000", "163617.647500", "163618.435000", "163619.225000", "163620.012500", "163620.800000", "163621.590000", "163622.377500", "163623.165000", "163623.952500", "163624.742500", "163625.530000", "163626.317500", "163627.105000", "163627.895000", "163628.682500", "163629.470000", "163630.257500", "163631.047500", "163631.835000", "163632.622500", "163633.410000", "163634.200000", "163634.987500", "163635.775000", "163636.562500", "163637.352500", "163638.140000", "163638.927500", "163639.717500", "163640.505000", "163641.292500", "163642.080000", "163642.870000", "163643.657500", "163644.445000", "163645.232500", "163646.022500", "163646.810000", "163647.597500", "163648.385000", "163649.175000", "163649.962500", "163650.750000", "163651.537500", "163652.327500", "163653.115000", "163653.902500", "163654.690000", "163655.480000", "163656.267500", "163657.055000", "163657.845000", "163658.632500", "163659.420000", "163700.207500", "163700.997500", "163701.785000", "163702.572500", "163703.360000", "163704.150000", "163704.937500", "163705.725000", "163706.512500", "163707.302500", "163708.090000", "163708.877500", "163709.665000", "163710.455000", "163711.242500", "163712.030000", "163712.817500", "163713.607500", "163714.395000", "163715.182500", "163715.972500", "163716.760000", "163717.547500", "163718.335000", "163719.125000", "163719.912500", "163720.700000", "163721.487500", "163722.277500", "163723.065000", "163723.852500", "163724.640000", "163725.430000", "163726.217500", "163727.005000", "163727.792500", "163728.582500", "163729.370000", "163730.157500", "163730.945000", "163731.735000", "163732.522500", "163733.310000", "163734.100000", "163734.887500", "163735.675000", "163736.462500", "163737.252500", "163738.040000", "163738.827500", "163739.615000", "163740.405000", "163741.192500", "163741.980000", "163742.767500", "163743.557500", "163744.345000", "163745.132500", "163745.920000", "163746.710000", "163747.497500", "163748.285000", "163749.072500", "163749.862500", "163750.650000", "163751.437500", "163752.227500", "163753.015000", "163753.802500", "163754.590000", "163755.380000", "163756.167500", "163756.955000", "163757.742500", "163758.532500", "163759.320000", "163800.107500", "163800.895000", "163801.685000", "163802.472500", "163803.260000", "163804.047500", "163804.837500", "163805.625000", "163806.412500", "163807.202500", "163807.990000", "163808.777500", "163809.565000", "163810.355000", "163811.142500", "163811.930000", "163812.717500", "163813.507500", "163814.295000", "163815.082500", "163815.870000", "163816.660000", "163817.447500", "163818.235000", "163819.022500", "163819.812500", "163820.600000", "163821.387500", "163822.175000", "163822.965000", "163823.752500", "163824.540000", "163825.330000", "163826.117500", "163826.905000", "163827.692500", "163828.482500", "163829.270000", "163830.057500", "163830.845000", "163831.635000", "163832.422500", "163833.210000", "163833.997500", "163834.787500", "163835.575000", "163836.362500", "163837.150000", "163837.940000", "163838.727500", "163839.515000", "163840.302500", "163841.092500", "163841.880000", "163842.667500", "163843.457500", "163844.245000", "163845.032500", "163845.820000", "163846.610000", "163847.397500", "163848.185000", "163848.972500", "163849.762500", "163850.550000", "163851.337500", "163852.125000", "163852.915000", "163853.702500", "163854.490000", "163855.277500", "163856.067500", "163856.855000", "163857.642500", "163858.430000", "163859.220000", "163900.007500", "163900.795000", "163901.585000", "163902.372500", "163903.160000", "163903.947500", "163904.737500", "163905.525000", "163906.312500", "163907.100000", "163907.890000", "163908.677500", "163909.465000", "163910.252500", "163911.042500", "163911.830000", "163912.617500", "163913.405000", "163914.195000", "163914.982500", "163915.770000", "163916.557500", "163917.347500", "163918.135000", "163918.922500", "163919.712500", "163920.500000", "163921.287500", "163922.075000", "163922.865000", "163923.652500", "163924.440000", "163925.227500", "163926.017500", "163926.805000", "163927.592500", "163928.380000", "163929.170000", "163929.957500", "163930.745000", "163931.532500", "163932.322500", "163933.110000", "163933.897500", "163934.685000", "163935.475000", "163936.262500", "163937.050000", "163937.840000", "163938.627500", "163939.415000", "163940.202500", "163940.992500", "163941.780000", "163942.567500", "163943.355000", "163944.145000", "163944.932500", "163945.720000", "163946.507500", "163947.297500", "163948.085000", "163948.872500", "163949.660000", "163950.450000", "163951.237500", "163952.025000", "163952.812500", "163953.602500", "163954.390000", "163955.177500", "163955.967500", "163956.755000", "163957.542500", "163958.330000", "163959.120000", "163959.907500", "164000.695000", "164001.482500", "164002.272500", "164003.060000", "164003.847500", "164004.635000", "164005.425000", "164006.212500", "164007.000000", "164007.787500", "164008.577500", "164009.365000", "164010.152500", "164010.940000", "164011.730000", "164012.517500", "164013.305000", "164014.095000", "164014.882500", "164015.670000", "164016.457500", "164017.247500", "164018.035000", "164018.822500", "164019.610000", "164020.400000", "164021.187500", "164021.975000", "164022.762500", "164023.552500", "164024.340000", "164025.127500", "164025.915000", "164026.705000", "164027.492500", "164028.280000", "164029.067500", "164029.857500", "164030.645000", "164031.432500", "164032.222500", "164033.010000", "164033.797500", "164034.585000", "164035.375000", "164036.162500", "164036.950000", "164037.737500", "164038.527500", "164039.315000", "164040.102500", "164040.890000", "164041.680000", "164042.467500", "164043.255000", "164044.042500", "164044.832500", "164045.620000", "164046.407500", "164047.195000", "164047.985000", "164048.772500", "164049.560000", "164050.350000", "164051.137500", "164051.925000", "164052.712500", "164053.502500", "164054.290000", "164055.077500", "164055.865000", "164056.655000", "164057.442500", "164058.230000", "164059.017500", "164059.807500", "164100.595000", "164101.382500", "164102.170000", "164102.960000", "164103.747500", "164104.535000", "164105.322500", "164106.112500", "164106.900000", "164107.687500", "164108.477500", "164109.265000", "164110.052500", "164110.840000", "164111.630000", "164112.417500", "164113.205000", "164113.992500", "164114.782500", "164115.570000", "164116.357500", "164117.145000", "164117.935000", "164118.722500", "164119.510000", "164120.297500", "164121.087500", "164121.875000", "164122.662500", "164123.452500", "164124.240000", "164125.027500", "164125.815000", "164126.605000", "164127.392500", "164128.180000", "164128.967500", "164129.757500", "164130.545000", "164131.332500", "164132.120000", "164132.910000", "164133.697500", "164134.485000", "164135.272500", "164136.062500", "164136.850000", "164137.637500", "164138.425000", "164139.215000", "164140.002500", "164140.790000"],
      "ContentTime": ["183440.031000", "183440.031000", "183440.031000", "183440.031000", "183440.031000", "183440.031000", "183540.000000", "183540.000000", "183540.000000", "183540.000000", "183540.000000", "183540.000000", "183540.015000", "183540.015000", "183540.015000", "183540.015000", "183540.015000", "183540.015000", "183540.015000", "183540.031000", "183540.031000", "183540.031000", "183540.031000", "183540.031000", "183540.031000", "183540.046000", "183540.046000", "183540.046000", "183540.046000", "183540.046000", "183540.046000", "183540.062000", "183540.062000", "183540.062000", "183640.000000", "183640.000000", "183640.000000", "183640.000000", "183640.000000", "183640.000000", "183640.015000", "183640.015000", "183640.015000", "183640.015000", "183640.015000", "183640.015000", "183640.015000", "183640.031000", "183640.031000", "183640.031000", "183640.031000", "183640.031000", "183640.031000", "183640.031000", "183640.046000", "183640.046000", "183640.046000", "183640.046000", "183640.046000", "183640.062000", "183640.062000", "183640.062000", "183640.062000", "183740.000000", "183740.000000", "183740.000000", "183740.000000", "183740.000000", "183740.000000", "183740.015000", "183740.015000", "183740.015000", "183740.015000", "183740.015000", "183740.015000", "183740.015000", "183740.031000", "183740.031000", "183740.031000", "183740.031000", "183740.031000", "183740.031000", "183740.031000", "183740.046000", "183740.046000", "183740.046000", "183740.046000", "183740.046000", "183740.046000", "183740.062000", "183740.062000", "183800.000000", "183800.000000", "183800.000000", "183800.000000", "183800.000000", "183800.000000", "183800.015000", "183800.015000", "183800.015000", "183900.000000", "183900.000000", "183900.000000", "183900.000000", "183900.000000", "183900.000000", "183900.015000", "183900.015000", "183900.015000", "183900.015000", "183900.015000", "183900.015000", "183900.015000", "183900.031000", "183900.031000", "183900.031000", "183900.031000", "183900.031000", "183900.046000", "183900.046000", "183900.046000", "183900.046000", "183900.046000", "183900.046000", "183900.046000", "183900.062000", "183900.062000", "183900.062000", "184000.000000", "184000.000000", "184000.000000", "184000.000000", "184000.000000", "184000.000000", "184000.015000", "184000.015000", "184000.015000", "184000.015000", "184000.015000", "184000.015000", "184000.015000", "184000.031000", "184000.031000", "184000.031000", "184000.031000", "184000.031000", "184000.046000", "184000.046000", "184000.046000", "184000.046000", "184000.046000", "184000.046000", "184000.046000", "184000.062000", "184000.062000", "184000.062000", "184000.078000", "184100.000000", "184100.000000", "184100.000000", "184100.000000", "184100.000000", "184100.000000", "184100.015000", "184100.015000", "184100.015000", "184100.015000", "184100.015000", "184100.015000", "184100.015000", "184100.031000", "184100.031000", "184100.031000", "184100.031000", "184100.031000", "184100.031000", "184100.031000", "184100.046000", "184100.046000", "184100.046000", "184100.046000", "184100.046000", "184100.046000", "184100.046000", "184100.062000", "184200.000000", "184200.000000", "184200.000000", "184200.000000", "184200.000000", "184200.000000", "184200.015000", "184200.015000", "184200.015000", "184200.015000", "184200.031000", "184200.031000", "184200.031000", "184200.031000", "184200.031000", "184200.031000", "184200.031000", "184200.046000", "184200.046000", "184200.046000", "184200.046000", "184200.046000", "184200.046000", "184200.046000", "184200.062000", "184200.062000", "184200.062000", "184200.062000", "184300.000000", "184300.000000", "184300.000000", "184300.000000", "184300.000000", "184300.000000", "184300.015000", "184300.015000", "184300.015000", "184300.015000", "184300.015000", "184300.015000", "184300.015000", "184300.031000", "184300.031000", "184300.031000", "184300.031000", "184300.031000", "184300.031000", "184300.031000", "184300.046000", "184300.046000", "184300.046000", "184300.046000", "184300.046000", "184300.046000", "184300.046000", "184300.062000", "184400.000000", "184400.000000", "184400.000000", "184400.000000", "184400.000000", "184400.000000", "184400.015000", "184400.015000", "184400.015000", "184400.015000", "184400.015000", "184400.015000", "184400.015000", "184400.031000", "184400.031000", "184400.031000", "184400.031000", "184400.031000", "184400.031000", "184400.031000", "184400.046000", "184400.046000", "184400.046000", "184400.046000", "184400.046000", "184400.046000", "184400.046000", "184400.062000", "184500.000000", "184500.000000", "184500.000000", "184500.000000", "184500.000000", "184500.000000", "184500.015000", "184500.015000", "184500.015000", "184500.015000", "184500.015000", "184500.015000", "184500.015000", "184500.031000", "184500.031000", "184500.031000", "184500.031000", "184500.031000", "184500.031000", "184500.031000", "184500.046000", "184500.046000", "184500.046000", "184500.046000", "184500.046000", "184500.046000", "184500.046000", "184500.062000", "184500.062000", "184600.000000", "184600.000000", "184600.000000", "184600.000000", "184600.000000", "184600.000000", "184600.015000", "184600.015000", "184600.015000", "184600.015000", "184600.015000", "184600.015000", "184600.015000", "184600.031000", "184600.031000", "184600.031000", "184600.031000", "184600.031000", "184600.046000", "184600.046000", "184600.046000", "184600.046000", "184600.046000", "184600.046000", "184600.046000", "184600.062000", "184600.062000", "184600.062000", "184700.000000", "184700.000000", "184700.000000", "184700.000000", "184700.000000", "184700.000000", "184700.015000", "184700.015000", "184700.015000", "184700.015000", "184700.015000", "184700.015000", "184700.015000", "184700.031000", "184700.031000", "184700.031000", "184700.031000", "184700.031000", "184700.031000", "184700.031000", "184700.046000", "184700.046000", "184700.046000", "184700.046000", "184700.046000", "184700.046000", "184700.046000", "184700.062000", "184800.000000", "184800.000000", "184800.000000", "184800.000000", "184800.000000", "184800.000000", "184800.015000", "184800.015000", "184800.015000", "184800.015000", "184800.015000", "184800.015000", "184800.031000", "184800.031000", "184800.031000", "184800.031000", "184800.031000", "184800.046000", "184800.046000", "184800.046000", "184800.046000", "184800.046000", "184800.046000", "184800.046000", "184800.062000", "184800.062000", "184800.062000", "184800.062000", "184900.000000", "184900.000000", "184900.000000", "184900.000000", "184900.000000", "184900.000000", "184900.015000", "184900.015000", "184900.015000", "184900.015000", "184900.015000", "184900.015000", "184900.031000", "184900.031000", "184900.031000", "184900.031000", "184900.031000", "184900.031000", "184900.031000", "184900.046000", "184900.046000", "184900.046000", "184900.046000", "184900.046000", "184900.062000", "184900.062000", "184900.062000", "184900.062000", "185000.000000", "185000.000000", "185000.000000", "185000.000000", "185000.000000", "185000.000000", "185000.015000", "185000.015000", "185000.015000", "185000.015000", "185000.015000", "185000.031000", "185000.031000", "185000.031000", "185000.031000", "185000.031000", "185000.031000", "185000.031000", "185000.046000", "185000.046000", "185000.046000", "185000.046000", "185000.046000", "185000.046000", "185000.046000", "185000.062000", "185000.062000", "185000.062000", "185000.062000", "185100.000000", "185100.000000", "185100.000000", "185100.000000", "185100.000000", "185100.000000", "185100.015000", "185100.015000", "185100.015000", "185100.015000", "185100.015000", "185100.015000", "185100.015000", "185100.031000", "185100.031000", "185100.031000", "185100.031000", "185100.031000", "185100.031000", "185100.031000", "185100.046000", "185100.046000", "185100.046000", "185100.046000", "185100.046000", "185100.046000", "185100.062000", "185100.062000", "185200.000000", "185200.000000", "185200.000000", "185200.000000", "185200.000000", "185200.000000", "185200.015000", "185200.015000", "185200.015000", "185200.015000", "185200.015000", "185200.015000", "185200.015000", "185200.031000", "185200.031000", "185200.031000", "185200.031000", "185200.031000", "185200.031000", "185200.031000", "185200.046000", "185200.046000", "185200.046000", "185200.046000", "185200.046000", "185200.062000", "185200.062000", "185200.062000", "185300.000000", "185300.000000", "185300.000000", "185300.000000", "185300.000000", "185300.000000", "185300.015000", "185300.015000", "185300.015000", "185300.015000", "185300.015000", "185300.015000", "185300.015000", "185300.031000", "185300.031000", "185300.031000", "185300.031000", "185300.031000", "185300.031000", "185300.031000", "185300.046000", "185300.046000", "185300.046000", "185300.046000", "185300.046000", "185300.046000", "185300.046000", "185300.062000", "185400.000000", "185400.000000", "185400.000000", "185400.000000", "185400.000000", "185400.000000", "185400.015000", "185400.015000", "185400.015000", "185400.015000", "185400.015000", "185400.031000", "185400.031000", "185400.031000", "185400.031000", "185400.031000", "185400.031000", "185400.031000", "185400.046000", "185400.046000", "185400.046000", "185400.046000", "185400.046000", "185400.046000", "185400.046000", "185400.062000", "185400.062000", "185400.062000", "185500.000000", "185500.000000", "185500.000000", "185500.000000", "185500.000000", "185500.000000", "185500.015000", "185500.015000", "185500.015000", "185500.015000", "185500.015000", "185500.015000", "185500.015000", "185500.031000", "185500.031000", "185500.031000", "185500.031000", "185500.031000", "185500.031000", "185500.031000", "185500.046000", "185500.046000", "185500.046000", "185500.046000", "185500.046000", "185500.046000", "185500.046000", "185500.062000", "185500.062000", "185501.421000"],
      "DataSetTrailingPadding": [
        "\u0000\u0000\u0000\u0000\u0000\u0000\u0000\u0000\u0000\u0000\u0000\u0000\u0000\u0000\u0000\u0000\u0000\u0000\u0000\u0000\u0000\u0000\u0000\u0000\u0000\u0000\u0000\u0000\u0000\u0000\u0000\u0000\u0000\u0000\u0000\u0000\u0000\u0000\u0000\u0000\u0000\u0000\u0000\u0000\u0000\u0000\u0000\u0000\u0000\u0000\u0000\u0000\u0000\u0000\u0000\u0000",
        "\u0000\u0000\u0000\u0000\u0000\u0000\u0000\u0000\u0000\u0000\u0000\u0000\u0000\u0000\u0000\u0000\u0000\u0000\u0000\u0000\u0000\u0000\u0000\u0000\u0000\u0000\u0000\u0000\u0000\u0000\u0000\u0000\u0000\u0000\u0000\u0000\u0000\u0000\u0000\u0000\u0000\u0000\u0000\u0000\u0000\u0000\u0000\u0000\u0000\u0000\u0000\u0000\u0000\u0000\u0000\u0000\u0000\u0000\u0000\u0000",
        "\u0000\u0000\u0000\u0000\u0000\u0000\u0000\u0000\u0000\u0000\u0000\u0000\u0000\u0000\u0000\u0000\u0000\u0000\u0000\u0000\u0000\u0000\u0000\u0000\u0000\u0000\u0000\u0000\u0000\u0000\u0000\u0000\u0000\u0000\u0000\u0000\u0000\u0000\u0000\u0000\u0000\u0000\u0000\u0000\u0000\u0000\u0000\u0000\u0000\u0000\u0000\u0000\u0000\u0000",
        "\u0000\u0000\u0000\u0000\u0000\u0000\u0000\u0000\u0000\u0000\u0000\u0000\u0000\u0000\u0000\u0000\u0000\u0000\u0000\u0000\u0000\u0000\u0000\u0000\u0000\u0000\u0000\u0000\u0000\u0000\u0000\u0000\u0000\u0000\u0000\u0000\u0000\u0000\u0000\u0000\u0000\u0000\u0000\u0000\u0000\u0000\u0000\u0000\u0000\u0000\u0000\u0000\u0000\u0000",
        "\u0000\u0000\u0000\u0000\u0000\u0000\u0000\u0000\u0000\u0000\u0000\u0000\u0000\u0000\u0000\u0000\u0000\u0000\u0000\u0000\u0000\u0000\u0000\u0000\u0000\u0000\u0000\u0000\u0000\u0000\u0000\u0000\u0000\u0000\u0000\u0000\u0000\u0000\u0000\u0000\u0000\u0000\u0000\u0000\u0000\u0000\u0000\u0000\u0000\u0000\u0000\u0000\u0000\u0000\u0000\u0000",
