{
  "AcquisitionMatrixPE": 104,
  "AcquisitionNumber": 1,
  "AcquisitionTime": "16:01:11.792500",
  "BandwidthPerPixelPhaseEncode": 13.935,
  "BaseResolution": 104,
  "CoilString": "C:HEA;HEP",
  "ConversionSoftware": "dcm2niix",
  "ConversionSoftwareVersion": "v1.0.20210317",
  "DerivedVendorReportedEchoSpacing": 0.000690017,
  "DeviceSerialNumber": "35450",
  "DwellTime": 2.5e-06,
  "EchoTime": 0.0348,
  "EffectiveEchoSpacing": 0.000690017,
  "FlipAngle": 55,
  "ImageComments": "Unaliased MB8/PE3",
  "ImageOrientationPatientDICOM": [0.999877, 0.00139631, 0.0156451, -2.00762e-08, 0.996041, -0.0888943],
  "ImageType": [
    "ORIGINAL",
    "PRIMARY",
    "M",
    "MB",
    "ND",
    "MOSAIC"
],
  "ImagingFrequency": 123.235,
  "InPlanePhaseEncodingDirectionDICOM": "COL",
  "InstitutionAddress": "Univeristy Ave. 197,Newark,North East,US,07102-1814",
  "InstitutionName": "RUBIC",
  "InstitutionalDepartmentName": "Department",
  "MRAcquisitionType": "2D",
  "MagneticFieldStrength": 3,
  "Manufacturer": "Siemens",
  "ManufacturersModelName": "TrioTim",
  "Modality": "MR",
  "MultibandAccelerationFactor": 8,
  "PartialFourier": 0.875,
  "PatientPosition": "HFS",
  "PercentPhaseFOV": 100,
  "PercentSampling": 100,
  "PhaseEncodingDirection": "j-",
  "PhaseEncodingSteps": 91,
  "PhaseResolution": 1,
  "PixelBandwidth": 1923,
  "ProcedureStepDescription": "Cole^Michael",
  "ProtocolName": "cmrr_mbep2d_bold_2mm_MB8_Task_8x",
  "PulseSequenceDetails": "%CustomerSeq%\\cmrr_mbep2d_bold",
  "ReceiveCoilName": "32Ch_Head",
  "ReconMatrixPE": 104,
  "RepetitionTime": 0.785,
  "SAR": 0.118804,
  "ScanOptions": "PFP\\FS",
  "ScanningSequence": "EP",
  "SequenceName": "epfid2d1_104",
  "SequenceVariant": "SK\\SS",
  "SeriesDescription": "cmrr_mbep2d_bold_2mm_MB8_Task_8x",
  "SeriesNumber": 19,
  "ShimSetting": [2132, -540, -7396, 565, 272, -374, -445, 77],
  "SliceThickness": 2,
  "SliceTiming": [0, 0.4375, 0.0875, 0.525, 0.175, 0.6125, 0.2625, 0.7, 0.35, 0, 0.4375, 0.0875, 0.525, 0.175, 0.6125, 0.2625, 0.7, 0.35, 0, 0.4375, 0.0875, 0.525, 0.175, 0.6125, 0.2625, 0.7, 0.35, 0, 0.4375, 0.0875, 0.525, 0.175, 0.6125, 0.2625, 0.7, 0.35, 0, 0.4375, 0.0875, 0.525, 0.175, 0.6125, 0.2625, 0.7, 0.35, 0, 0.4375, 0.0875, 0.525, 0.175, 0.6125, 0.2625, 0.7, 0.35, 0, 0.4375, 0.0875, 0.525, 0.175, 0.6125, 0.2625, 0.7, 0.35, 0, 0.4375, 0.0875, 0.525, 0.175, 0.6125, 0.2625, 0.7, 0.35],
  "SoftwareVersions": "syngo MR B19",
  "SpacingBetweenSlices": 2,
  "StationName": "MRC35450",
  "TaskName": "cpro",
  "TotalReadoutTime": 0.0710717,
  "TxRefAmp": 330.216,
  "dcmmeta_affine": [
    [-1.9997532367706299, -4.0152379199298593e-08, 0.03141463175415993, 104.2278823852539],
    [-0.0027926217298954725, 1.992082118988037, -0.17776665091514587, -76.58936309814453],
    [0.031290262937545776, 0.17778858542442322, 1.9918363094329834, -111.09686279296875],
    [0.0, 0.0, 0.0, 1.0]
],
  "dcmmeta_reorient_transform": [
    [0.0, -1.0, 0.0, 103.0],
    [1.0, 0.0, 0.0, 0.0],
    [0.0, 0.0, 1.0, 0.0],
    [0.0, 0.0, 0.0, 1.0]
],
  "dcmmeta_shape": [104, 104, 72, 581],
  "dcmmeta_slice_dim": 2,
  "dcmmeta_version": 0.6,
  "global": {
    "const": {
      "AcquisitionMatrix": [104, 0, 0, 104],
      "AngioFlag": "N",
      "BitsAllocated": 16,
      "BitsStored": 12,
      "Columns": 936,
      "EchoNumbers": 1,
      "EchoTime": 34.8,
      "EchoTrainLength": 1,
      "FlipAngle": 55.0,
      "HighBit": 11,
      "ImageOrientationPatient": [0.99987663248909, 0.00139631083141, 0.01564513081859, -2.007619e-08, 0.99604106568838, -0.0888942937559],
      "ImagePositionPatient": [-936.12522193565, -958.46299483512, -31.841333234354],
      "ImageType": [
        "ORIGINAL",
        "PRIMARY",
        "M",
        "MB",
        "ND",
        "MOSAIC"
],
      "ImagedNucleus": "1H",
      "ImagingFrequency": 123.234503,
      "InPlanePhaseEncodingDirection": "COL",
      "MRAcquisitionType": "2D",
      "MagneticFieldStrength": 3.0,
      "Manufacturer": "SIEMENS",
      "ManufacturerModelName": "TrioTim",
      "Modality": "MR",
      "NumberOfAverages": 1.0,
      "NumberOfPhaseEncodingSteps": 91,
      "PercentPhaseFieldOfView": 100.0,
      "PercentSampling": 100.0,
      "PerformedProcedureStepStartTime": "143429.375000",
      "PhotometricInterpretation": "MONOCHROME2",
      "PixelBandwidth": 1923.0,
      "PixelRepresentation": 0,
      "PixelSpacing": [2.0, 2.0],
      "ProtocolName": "cmrr_mbep2d_bold_2mm_MB8_Task_8x",
      "RepetitionTime": 785.0,
      "Rows": 936,
      "SAR": 0.11880362850658,
      "SamplesPerPixel": 1,
      "ScanOptions": [
        "PFP",
        "FS"
],
      "ScanningSequence": "EP",
      "SequenceName": "epfid2d1_104",
      "SequenceVariant": [
        "SK",
        "SS"
],
      "SeriesDescription": "cmrr_mbep2d_bold_2mm_MB8_Task_8x",
      "SeriesNumber": 19,
      "SeriesTime": "171122.390000",
      "SliceLocation": -102.19872696317,
      "SliceThickness": 2.0,
      "SmallestImagePixelValue": 0,
      "SoftwareVersions": "syngo MR B19",
      "SpacingBetweenSlices": 1.9999999597893,
      "SpecificCharacterSet": "ISO_IR 100",
      "StudyID": "1",
      "StudyTime": "143429.203000",
      "TransmitCoilName": "Body",
      "VariableFlipAngleFlag": "N",
      "WindowCenterWidthExplanation": "Algo1",
      "dBdt": 0.0},
    "slices": {}
  },
  "time": {
    "samples": {
      "AcquisitionNumber": [1, 2, 3, 4, 5, 6, 7, 8, 9, 10, 11, 12, 13, 14, 15, 16, 17, 18, 19, 20, 21, 22, 23, 24, 25, 26, 27, 28, 29, 30, 31, 32, 33, 34, 35, 36, 37, 38, 39, 40, 41, 42, 43, 44, 45, 46, 47, 48, 49, 50, 51, 52, 53, 54, 55, 56, 57, 58, 59, 60, 61, 62, 63, 64, 65, 66, 67, 68, 69, 70, 71, 72, 73, 74, 75, 76, 77, 78, 79, 80, 81, 82, 83, 84, 85, 86, 87, 88, 89, 90, 91, 92, 93, 94, 95, 96, 97, 98, 99, 100, 101, 102, 103, 104, 105, 106, 107, 108, 109, 110, 111, 112, 113, 114, 115, 116, 117, 118, 119, 120, 121, 122, 123, 124, 125, 126, 127, 128, 129, 130, 131, 132, 133, 134, 135, 136, 137, 138, 139, 140, 141, 142, 143, 144, 145, 146, 147, 148, 149, 150, 151, 152, 153, 154, 155, 156, 157, 158, 159, 160, 161, 162, 163, 164, 165, 166, 167, 168, 169, 170, 171, 172, 173, 174, 175, 176, 177, 178, 179, 180, 181, 182, 183, 184, 185, 186, 187, 188, 189, 190, 191, 192, 193, 194, 195, 196, 197, 198, 199, 200, 201, 202, 203, 204, 205, 206, 207, 208, 209, 210, 211, 212, 213, 214, 215, 216, 217, 218, 219, 220, 221, 222, 223, 224, 225, 226, 227, 228, 229, 230, 231, 232, 233, 234, 235, 236, 237, 238, 239, 240, 241, 242, 243, 244, 245, 246, 247, 248, 249, 250, 251, 252, 253, 254, 255, 256, 257, 258, 259, 260, 261, 262, 263, 264, 265, 266, 267, 268, 269, 270, 271, 272, 273, 274, 275, 276, 277, 278, 279, 280, 281, 282, 283, 284, 285, 286, 287, 288, 289, 290, 291, 292, 293, 294, 295, 296, 297, 298, 299, 300, 301, 302, 303, 304, 305, 306, 307, 308, 309, 310, 311, 312, 313, 314, 315, 316, 317, 318, 319, 320, 321, 322, 323, 324, 325, 326, 327, 328, 329, 330, 331, 332, 333, 334, 335, 336, 337, 338, 339, 340, 341, 342, 343, 344, 345, 346, 347, 348, 349, 350, 351, 352, 353, 354, 355, 356, 357, 358, 359, 360, 361, 362, 363, 364, 365, 366, 367, 368, 369, 370, 371, 372, 373, 374, 375, 376, 377, 378, 379, 380, 381, 382, 383, 384, 385, 386, 387, 388, 389, 390, 391, 392, 393, 394, 395, 396, 397, 398, 399, 400, 401, 402, 403, 404, 405, 406, 407, 408, 409, 410, 411, 412, 413, 414, 415, 416, 417, 418, 419, 420, 421, 422, 423, 424, 425, 426, 427, 428, 429, 430, 431, 432, 433, 434, 435, 436, 437, 438, 439, 440, 441, 442, 443, 444, 445, 446, 447, 448, 449, 450, 451, 452, 453, 454, 455, 456, 457, 458, 459, 460, 461, 462, 463, 464, 465, 466, 467, 468, 469, 470, 471, 472, 473, 474, 475, 476, 477, 478, 479, 480, 481, 482, 483, 484, 485, 486, 487, 488, 489, 490, 491, 492, 493, 494, 495, 496, 497, 498, 499, 500, 501, 502, 503, 504, 505, 506, 507, 508, 509, 510, 511, 512, 513, 514, 515, 516, 517, 518, 519, 520, 521, 522, 523, 524, 525, 526, 527, 528, 529, 530, 531, 532, 533, 534, 535, 536, 537, 538, 539, 540, 541, 542, 543, 544, 545, 546, 547, 548, 549, 550, 551, 552, 553, 554, 555, 556, 557, 558, 559, 560, 561, 562, 563, 564, 565, 566, 567, 568, 569, 570, 571, 572, 573, 574, 575, 576, 577, 578, 579, 580, 581],
      "AcquisitionTime": ["160111.792500", "160112.580000", "160113.367500", "160114.157500", "160114.945000", "160115.732500", "160116.520000", "160117.310000", "160118.097500", "160118.885000", "160119.675000", "160120.462500", "160121.250000", "160122.037500", "160122.827500", "160123.615000", "160124.402500", "160125.190000", "160125.980000", "160126.767500", "160127.555000", "160128.342500", "160129.132500", "160129.920000", "160130.707500", "160131.495000", "160132.285000", "160133.072500", "160133.860000", "160134.647500", "160135.437500", "160136.225000", "160137.012500", "160137.802500", "160138.590000", "160139.377500", "160140.165000", "160140.955000", "160141.742500", "160142.530000", "160143.317500", "160144.107500", "160144.895000", "160145.682500", "160146.470000", "160147.260000", "160148.047500", "160148.835000", "160149.622500", "160150.412500", "160151.200000", "160151.987500", "160152.775000", "160153.565000", "160154.352500", "160155.140000", "160155.930000", "160156.717500", "160157.505000", "160158.292500", "160159.082500", "160159.870000", "160200.657500", "160201.445000", "160202.235000", "160203.022500", "160203.810000", "160204.597500", "160205.387500", "160206.175000", "160206.962500", "160207.750000", "160208.540000", "160209.327500", "160210.115000", "160210.902500", "160211.692500", "160212.480000", "160213.267500", "160214.057500", "160214.845000", "160215.632500", "160216.420000", "160217.210000", "160217.997500", "160218.785000", "160219.572500", "160220.362500", "160221.150000", "160221.937500", "160222.725000", "160223.515000", "160224.302500", "160225.090000", "160225.877500", "160226.667500", "160227.455000", "160228.242500", "160229.030000", "160229.820000", "160230.607500", "160231.395000", "160232.185000", "160232.972500", "160233.760000", "160234.547500", "160235.337500", "160236.125000", "160236.912500", "160237.700000", "160238.490000", "160239.277500", "160240.065000", "160240.852500", "160241.642500", "160242.430000", "160243.217500", "160244.005000", "160244.795000", "160245.582500", "160246.370000", "160247.157500", "160247.947500", "160248.735000", "160249.522500", "160250.312500", "160251.100000", "160251.887500", "160252.675000", "160253.465000", "160254.252500", "160255.040000", "160255.827500", "160256.617500", "160257.405000", "160258.192500", "160258.980000", "160259.770000", "160300.557500", "160301.345000", "160302.132500", "160302.922500", "160303.710000", "160304.497500", "160305.287500", "160306.075000", "160306.862500", "160307.650000", "160308.440000", "160309.227500", "160310.015000", "160310.802500", "160311.592500", "160312.380000", "160313.167500", "160313.955000", "160314.745000", "160315.532500", "160316.320000", "160317.107500", "160317.897500", "160318.685000", "160319.472500", "160320.260000", "160321.050000", "160321.837500", "160322.625000", "160323.415000", "160324.202500", "160324.990000", "160325.777500", "160326.567500", "160327.355000", "160328.142500", "160328.930000", "160329.720000", "160330.507500", "160331.295000", "160332.082500", "160332.872500", "160333.660000", "160334.447500", "160335.235000", "160336.025000", "160336.812500", "160337.600000", "160338.387500", "160339.177500", "160339.965000", "160340.752500", "160341.542500", "160342.330000", "160343.117500", "160343.905000", "160344.695000", "160345.482500", "160346.270000", "160347.057500", "160347.847500", "160348.635000", "160349.422500", "160350.210000", "160351.000000", "160351.787500", "160352.575000", "160353.362500", "160354.152500", "160354.940000", "160355.727500", "160356.515000", "160357.305000", "160358.092500", "160358.880000", "160359.670000", "160400.457500", "160401.245000", "160402.032500", "160402.822500", "160403.610000", "160404.397500", "160405.185000", "160405.975000", "160406.762500", "160407.550000", "160408.337500", "160409.127500", "160409.915000", "160410.702500", "160411.490000", "160412.280000", "160413.067500", "160413.855000", "160414.642500", "160415.432500", "160416.220000", "160417.007500", "160417.797500", "160418.585000", "160419.372500", "160420.160000", "160420.950000", "160421.737500", "160422.525000", "160423.312500", "160424.102500", "160424.890000", "160425.677500", "160426.465000", "160427.255000", "160428.042500", "160428.830000", "160429.617500", "160430.407500", "160431.195000", "160431.982500", "160432.770000", "160433.560000", "160434.347500", "160435.135000", "160435.925000", "160436.712500", "160437.500000", "160438.287500", "160439.077500", "160439.865000", "160440.652500", "160441.440000", "160442.230000", "160443.017500", "160443.805000", "160444.592500", "160445.382500", "160446.170000", "160446.957500", "160447.745000", "160448.535000", "160449.322500", "160450.110000", "160450.897500", "160451.687500", "160452.475000", "160453.262500", "160454.052500", "160454.840000", "160455.627500", "160456.415000", "160457.205000", "160457.992500", "160458.780000", "160459.567500", "160500.357500", "160501.145000", "160501.932500", "160502.720000", "160503.510000", "160504.297500", "160505.085000", "160505.872500", "160506.662500", "160507.450000", "160508.237500", "160509.025000", "160509.815000", "160510.602500", "160511.390000", "160512.180000", "160512.967500", "160513.755000", "160514.542500", "160515.332500", "160516.120000", "160516.907500", "160517.695000", "160518.485000", "160519.272500", "160520.060000", "160520.847500", "160521.637500", "160522.425000", "160523.212500", "160524.000000", "160524.790000", "160525.577500", "160526.365000", "160527.152500", "160527.942500", "160528.730000", "160529.517500", "160530.307500", "160531.095000", "160531.882500", "160532.670000", "160533.460000", "160534.247500", "160535.035000", "160535.822500", "160536.612500", "160537.400000", "160538.187500", "160538.975000", "160539.765000", "160540.552500", "160541.340000", "160542.127500", "160542.917500", "160543.705000", "160544.492500", "160545.280000", "160546.070000", "160546.857500", "160547.645000", "160548.435000", "160549.222500", "160550.010000", "160550.797500", "160551.587500", "160552.375000", "160553.162500", "160553.950000", "160554.740000", "160555.527500", "160556.315000", "160557.102500", "160557.892500", "160558.680000", "160559.467500", "160600.255000", "160601.045000", "160601.832500", "160602.620000", "160603.407500", "160604.197500", "160604.985000", "160605.772500", "160606.562500", "160607.350000", "160608.137500", "160608.925000", "160609.715000", "160610.502500", "160611.290000", "160612.077500", "160612.867500", "160613.655000", "160614.442500", "160615.230000", "160616.020000", "160616.807500", "160617.595000", "160618.382500", "160619.172500", "160619.960000", "160620.747500", "160621.537500", "160622.325000", "160623.112500", "160623.900000", "160624.690000", "160625.477500", "160626.265000", "160627.052500", "160627.842500", "160628.630000", "160629.417500", "160630.205000", "160630.995000", "160631.782500", "160632.570000", "160633.357500", "160634.147500", "160634.935000", "160635.722500", "160636.510000", "160637.300000", "160638.087500", "160638.875000", "160639.665000", "160640.452500", "160641.240000", "160642.027500", "160642.817500", "160643.605000", "160644.392500", "160645.180000", "160645.970000", "160646.757500", "160647.545000", "160648.332500", "160649.122500", "160649.910000", "160650.697500", "160651.485000", "160652.275000", "160653.062500", "160653.850000", "160654.637500", "160655.427500", "160656.215000", "160657.002500", "160657.792500", "160658.580000", "160659.367500", "160700.155000", "160700.945000", "160701.732500", "160702.520000", "160703.307500", "160704.097500", "160704.885000", "160705.672500", "160706.460000", "160707.250000", "160708.037500", "160708.825000", "160709.612500", "160710.402500", "160711.190000", "160711.977500", "160712.765000", "160713.555000", "160714.342500", "160715.130000", "160715.920000", "160716.707500", "160717.495000", "160718.282500", "160719.072500", "160719.860000", "160720.647500", "160721.435000", "160722.225000", "160723.012500", "160723.800000", "160724.587500", "160725.377500", "160726.165000", "160726.952500", "160727.740000", "160728.530000", "160729.317500", "160730.105000", "160730.892500", "160731.682500", "160732.470000", "160733.257500", "160734.047500", "160734.835000", "160735.622500", "160736.410000", "160737.200000", "160737.987500", "160738.775000", "160739.562500", "160740.352500", "160741.140000", "160741.927500", "160742.715000", "160743.505000", "160744.292500", "160745.080000", "160745.867500", "160746.657500", "160747.445000", "160748.232500", "160749.020000", "160749.810000", "160750.597500", "160751.385000", "160752.175000", "160752.962500", "160753.750000", "160754.537500", "160755.327500", "160756.115000", "160756.902500", "160757.690000", "160758.480000", "160759.267500", "160800.055000", "160800.842500", "160801.632500", "160802.420000", "160803.207500", "160803.995000", "160804.785000", "160805.572500", "160806.360000", "160807.147500", "160807.937500", "160808.725000", "160809.512500", "160810.302500", "160811.090000", "160811.877500", "160812.665000", "160813.455000", "160814.242500", "160815.030000", "160815.817500", "160816.607500", "160817.395000", "160818.182500", "160818.970000", "160819.760000", "160820.547500", "160821.335000", "160822.122500", "160822.912500", "160823.700000", "160824.487500", "160825.275000", "160826.065000", "160826.852500", "160827.640000", "160828.430000", "160829.217500", "160830.005000", "160830.792500", "160831.582500", "160832.370000", "160833.157500", "160833.945000", "160834.735000", "160835.522500", "160836.310000", "160837.097500", "160837.887500", "160838.675000", "160839.462500", "160840.250000", "160841.040000", "160841.827500", "160842.615000", "160843.402500", "160844.192500", "160844.980000", "160845.767500", "160846.557500", "160847.345000", "160848.132500", "160848.920000"],
      "ContentTime": ["171122.390000", "171122.406000", "171122.406000", "171122.406000", "171122.406000", "171122.406000", "171122.406000", "171122.406000", "171122.421000", "171222.375000", "171222.375000", "171222.375000", "171222.375000", "171222.375000", "171222.375000", "171222.390000", "171222.390000", "171222.390000", "171222.390000", "171222.390000", "171222.390000", "171222.390000", "171222.406000", "171222.406000", "171222.406000", "171222.406000", "171222.406000", "171222.406000", "171222.406000", "171222.421000", "171222.421000", "171222.421000", "171222.421000", "171222.421000", "171222.421000", "171222.421000", "171222.437000", "171322.375000", "171322.375000", "171322.375000", "171322.375000", "171322.375000", "171322.375000", "171322.390000", "171322.390000", "171322.390000", "171322.390000", "171322.390000", "171322.406000", "171322.406000", "171322.406000", "171322.406000", "171322.406000", "171322.406000", "171322.406000", "171322.421000", "171322.421000", "171322.421000", "171322.421000", "171322.421000", "171322.437000", "171322.437000", "171322.437000", "171322.437000", "171322.437000", "171322.437000", "171422.375000", "171422.375000", "171422.375000", "171422.375000", "171422.375000", "171422.390000", "171422.390000", "171422.390000", "171422.390000", "171422.390000", "171422.390000", "171422.390000", "171422.406000", "171422.406000", "171422.406000", "171422.406000", "171422.406000", "171422.406000", "171422.406000", "171422.421000", "171422.421000", "171422.421000", "171422.421000", "171422.421000", "171422.421000", "171422.437000", "171422.437000", "171422.437000", "171522.375000", "171522.375000", "171522.375000", "171522.375000", "171522.375000", "171522.375000", "171522.390000", "171522.390000", "171522.390000", "171522.390000", "171522.390000", "171522.390000", "171522.390000", "171522.406000", "171522.406000", "171522.406000", "171522.406000", "171522.406000", "171522.406000", "171522.406000", "171522.421000", "171522.421000", "171522.421000", "171522.421000", "171522.421000", "171522.421000", "171522.421000", "171522.437000", "171622.375000", "171622.375000", "171622.375000", "171622.375000", "171622.375000", "171622.375000", "171622.390000", "171622.390000", "171622.390000", "171622.390000", "171622.390000", "171622.390000", "171622.390000", "171622.406000", "171622.406000", "171622.406000", "171622.406000", "171622.406000", "171622.406000", "171622.406000", "171622.421000", "171622.421000", "171622.421000", "171622.421000", "171622.421000", "171622.421000", "171622.437000", "171622.437000", "171722.375000", "171722.375000", "171722.375000", "171722.375000", "171722.375000", "171722.375000", "171722.390000", "171722.390000", "171722.390000", "171722.390000", "171722.390000", "171722.390000", "171722.390000", "171722.406000", "171722.406000", "171722.406000", "171722.406000", "171722.406000", "171722.406000", "171722.406000", "171722.421000", "171722.421000", "171722.421000", "171722.421000", "171722.421000", "171722.421000", "171722.437000", "171722.437000", "171822.375000", "171822.375000", "171822.375000", "171822.375000", "171822.375000", "171822.375000", "171822.390000", "171822.390000", "171822.390000", "171822.390000", "171822.390000", "171822.390000", "171822.390000", "171822.406000", "171822.406000", "171822.406000", "171822.406000", "171822.406000", "171822.406000", "171822.406000", "171822.421000", "171822.421000", "171822.421000", "171822.421000", "171822.421000", "171822.421000", "171822.437000", "171822.437000", "171922.375000", "171922.375000", "171922.375000", "171922.375000", "171922.375000", "171922.375000", "171922.390000", "171922.390000", "171922.390000", "171922.390000", "171922.390000", "171922.390000", "171922.390000", "171922.406000", "171922.406000", "171922.406000", "171922.406000", "171922.406000", "171922.406000", "171922.421000", "171922.421000", "171922.421000", "171922.421000", "171922.421000", "171922.421000", "171922.437000", "171922.437000", "171922.437000", "172022.375000", "172022.375000", "172022.375000", "172022.375000", "172022.375000", "172022.375000", "172022.390000", "172022.390000", "172022.390000", "172022.390000", "172022.390000", "172022.390000", "172022.406000", "172022.406000", "172022.406000", "172022.406000", "172022.406000", "172022.406000", "172022.406000", "172022.421000", "172022.421000", "172022.421000", "172022.421000", "172022.421000", "172022.421000", "172022.421000", "172022.437000", "172022.437000", "172022.437000", "172102.375000", "172102.375000", "172102.375000", "172102.375000", "172102.375000", "172102.375000", "172102.390000", "172102.390000", "172102.390000", "172102.390000", "172102.390000", "172102.390000", "172102.406000", "172102.406000", "172102.406000", "172102.406000", "172102.406000", "172102.406000", "172202.375000", "172202.375000", "172202.375000", "172202.375000", "172202.375000", "172202.390000", "172202.390000", "172202.390000", "172202.390000", "172202.390000", "172202.390000", "172202.390000", "172202.406000", "172202.406000", "172202.406000", "172202.406000", "172202.406000", "172202.406000", "172202.406000", "172202.421000", "172202.421000", "172202.421000", "172202.421000", "172202.421000", "172202.421000", "172202.421000", "172202.437000", "172202.437000", "172202.437000", "172302.375000", "172302.375000", "172302.375000", "172302.375000", "172302.375000", "172302.390000", "172302.390000", "172302.390000", "172302.390000", "172302.390000", "172302.390000", "172302.390000", "172302.406000", "172302.406000", "172302.406000", "172302.406000", "172302.406000", "172302.406000", "172302.406000", "172302.421000", "172302.421000", "172302.421000", "172302.421000", "172302.421000", "172302.421000", "172302.421000", "172302.437000", "172302.437000", "172402.375000", "172402.375000", "172402.375000", "172402.375000", "172402.375000", "172402.375000", "172402.390000", "172402.390000", "172402.390000", "172402.390000", "172402.390000", "172402.390000", "172402.406000", "172402.406000", "172402.406000", "172402.406000", "172402.406000", "172402.406000", "172402.406000", "172402.421000", "172402.421000", "172402.421000", "172402.421000", "172402.421000", "172402.421000", "172402.421000", "172402.437000", "172402.437000", "172502.375000", "172502.375000", "172502.375000", "172502.375000", "172502.375000", "172502.375000", "172502.390000", "172502.390000", "172502.390000", "172502.390000", "172502.390000", "172502.390000", "172502.406000", "172502.406000", "172502.406000", "172502.406000", "172502.406000", "172502.406000", "172502.406000", "172502.421000", "172502.421000", "172502.421000", "172502.421000", "172502.421000", "172502.421000", "172502.421000", "172502.437000", "172502.437000", "172602.375000", "172602.375000", "172602.375000", "172602.375000", "172602.375000", "172602.375000", "172602.390000", "172602.390000", "172602.390000", "172602.390000", "172602.390000", "172602.390000", "172602.406000", "172602.406000", "172602.406000", "172602.406000", "172602.406000", "172602.406000", "172602.406000", "172602.421000", "172602.421000", "172602.421000", "172602.421000", "172602.421000", "172602.437000", "172602.437000", "172602.437000", "172602.437000", "172702.375000", "172702.375000", "172702.375000", "172702.390000", "172702.390000", "172702.390000", "172702.390000", "172702.390000", "172702.390000", "172702.390000", "172702.406000", "172702.406000", "172702.406000", "172702.406000", "172702.406000", "172702.406000", "172702.421000", "172702.421000", "172702.421000", "172702.421000", "172702.421000", "172702.421000", "172702.437000", "172702.437000", "172702.437000", "172702.437000", "172702.437000", "172702.437000", "172802.375000", "172802.375000", "172802.375000", "172802.375000", "172802.375000", "172802.375000", "172802.390000", "172802.390000", "172802.390000", "172802.390000", "172802.390000", "172802.390000", "172802.390000", "172802.406000", "172802.406000", "172802.406000", "172802.406000", "172802.406000", "172802.406000", "172802.421000", "172802.421000", "172802.421000", "172802.421000", "172802.421000", "172802.421000", "172802.421000", "172802.437000", "172802.437000", "172802.437000", "172902.375000", "172902.375000", "172902.375000", "172902.375000", "172902.375000", "172902.375000", "172902.390000", "172902.390000", "172902.390000", "172902.390000", "172902.390000", "172902.390000", "172902.406000", "172902.406000", "172902.406000", "172902.406000", "172902.406000", "172902.421000", "172902.421000", "172902.421000", "172902.421000", "172902.421000", "172902.437000", "172902.437000", "172902.437000", "172902.437000", "172902.437000", "172902.453000", "173002.375000", "173002.375000", "173002.375000", "173002.375000", "173002.375000", "173002.390000", "173002.390000", "173002.390000", "173002.390000", "173002.390000", "173002.390000", "173002.390000", "173002.406000", "173002.406000", "173002.406000", "173002.406000", "173002.406000", "173002.421000", "173002.421000", "173002.421000", "173002.421000", "173002.421000", "173002.421000", "173002.421000", "173002.437000", "173002.437000", "173002.437000", "173002.437000", "173102.375000", "173102.375000", "173102.375000", "173102.375000", "173102.375000", "173102.375000", "173102.390000", "173102.390000", "173102.390000", "173102.390000", "173102.390000", "173102.390000", "173102.406000", "173102.406000", "173102.406000", "173102.406000", "173102.406000", "173102.406000", "173102.406000", "173102.421000", "173102.421000", "173102.421000", "173102.421000", "173102.421000", "173102.421000", "173102.421000", "173102.437000", "173102.437000", "173138.750000", "173138.765000", "173138.765000", "173138.765000", "173138.765000", "173138.765000", "173138.781000", "173138.781000", "173138.781000", "173138.781000", "173138.781000", "173138.781000", "173138.781000", "173138.796000", "173138.796000", "173138.796000", "173138.796000", "173138.796000"],
      "DataSetTrailingPadding": [
        "\u0000\u0000\u0000\u0000\u0000\u0000\u0000\u0000\u0000\u0000\u0000\u0000\u0000\u0000\u0000\u0000\u0000\u0000\u0000\u0000\u0000\u0000\u0000\u0000\u0000\u0000\u0000\u0000\u0000\u0000\u0000\u0000\u0000\u0000\u0000\u0000\u0000\u0000\u0000\u0000\u0000\u0000\u0000\u0000\u0000\u0000\u0000\u0000\u0000\u0000\u0000\u0000\u0000\u0000\u0000\u0000",
        "\u0000\u0000\u0000\u0000\u0000\u0000\u0000\u0000\u0000\u0000\u0000\u0000\u0000\u0000\u0000\u0000\u0000\u0000\u0000\u0000\u0000\u0000\u0000\u0000\u0000\u0000\u0000\u0000\u0000\u0000\u0000\u0000\u0000\u0000\u0000\u0000\u0000\u0000\u0000\u0000\u0000\u0000\u0000\u0000\u0000\u0000\u0000\u0000\u0000\u0000\u0000\u0000\u0000\u0000\u0000\u0000",
        "\u0000\u0000\u0000\u0000\u0000\u0000\u0000\u0000\u0000\u0000\u0000\u0000\u0000\u0000\u0000\u0000\u0000\u0000\u0000\u0000\u0000\u0000\u0000\u0000\u0000\u0000\u0000\u0000\u0000\u0000\u0000\u0000\u0000\u0000\u0000\u0000\u0000\u0000\u0000\u0000\u0000\u0000\u0000\u0000\u0000\u0000\u0000\u0000\u0000\u0000\u0000\u0000\u0000\u0000",
        "\u0000\u0000\u0000\u0000\u0000\u0000\u0000\u0000\u0000\u0000\u0000\u0000\u0000\u0000\u0000\u0000\u0000\u0000\u0000\u0000\u0000\u0000\u0000\u0000\u0000\u0000\u0000\u0000\u0000\u0000\u0000\u0000\u0000\u0000\u0000\u0000\u0000\u0000\u0000\u0000\u0000\u0000\u0000\u0000\u0000\u0000\u0000\u0000\u0000\u0000\u0000\u0000\u0000\u0000",
        "\u0000\u0000\u0000\u0000\u0000\u0000\u0000\u0000\u0000\u0000\u0000\u0000\u0000\u0000\u0000\u0000\u0000\u0000\u0000\u0000\u0000\u0000\u0000\u0000\u0000\u0000\u0000\u0000\u0000\u0000\u0000\u0000\u0000\u0000\u0000\u0000\u0000\u0000\u0000\u0000\u0000\u0000\u0000\u0000\u0000\u0000\u0000\u0000\u0000\u0000\u0000\u0000\u0000\u0000\u0000\u0000",
