{
  "AcquisitionMatrixPE": 104,
  "AcquisitionNumber": 1,
  "AcquisitionTime": "15:53:8.707500",
  "BandwidthPerPixelPhaseEncode": 13.935,
  "BaseResolution": 104,
  "CoilString": "C:HEA;HEP",
  "ConversionSoftware": "dcm2niix",
  "ConversionSoftwareVersion": "v1.0.20210317",
  "DerivedVendorReportedEchoSpacing": 0.000690017,
  "DeviceSerialNumber": "35450",
  "DwellTime": 2.5e-06,
  "EchoTime": 0.0348,
  "EffectiveEchoSpacing": 0.000690017,
  "FlipAngle": 55,
  "ImageComments": "Unaliased MB8/PE3",
  "ImageOrientationPatientDICOM": [0.999877, 0.00139631, 0.0156451, -2.00762e-08, 0.996041, -0.0888943],
  "ImageType": [
    "ORIGINAL",
    "PRIMARY",
    "M",
    "MB",
    "ND",
    "MOSAIC"
],
  "ImagingFrequency": 123.235,
  "InPlanePhaseEncodingDirectionDICOM": "COL",
  "InstitutionAddress": "Univeristy Ave. 197,Newark,North East,US,07102-1814",
  "InstitutionName": "RUBIC",
  "InstitutionalDepartmentName": "Department",
  "MRAcquisitionType": "2D",
  "MagneticFieldStrength": 3,
  "Manufacturer": "Siemens",
  "ManufacturersModelName": "TrioTim",
  "Modality": "MR",
  "MultibandAccelerationFactor": 8,
  "PartialFourier": 0.875,
  "PatientPosition": "HFS",
  "PercentPhaseFOV": 100,
  "PercentSampling": 100,
  "PhaseEncodingDirection": "j-",
  "PhaseEncodingSteps": 91,
  "PhaseResolution": 1,
  "PixelBandwidth": 1923,
  "ProcedureStepDescription": "Cole^Michael",
  "ProtocolName": "cmrr_mbep2d_bold_2mm_MB8_Task_8x",
  "PulseSequenceDetails": "%CustomerSeq%\\cmrr_mbep2d_bold",
  "ReceiveCoilName": "32Ch_Head",
  "ReconMatrixPE": 104,
  "RepetitionTime": 0.785,
  "SAR": 0.118804,
  "ScanOptions": "PFP\\FS",
  "ScanningSequence": "EP",
  "SequenceName": "epfid2d1_104",
  "SequenceVariant": "SK\\SS",
  "SeriesDescription": "cmrr_mbep2d_bold_2mm_MB8_Task_8x",
  "SeriesNumber": 17,
  "ShimSetting": [2132, -540, -7396, 565, 272, -374, -445, 77],
  "SliceThickness": 2,
  "SliceTiming": [0, 0.4375, 0.0875, 0.525, 0.175, 0.6125, 0.2625, 0.7, 0.35, 0, 0.4375, 0.0875, 0.525, 0.175, 0.6125, 0.2625, 0.7, 0.35, 0, 0.4375, 0.0875, 0.525, 0.175, 0.6125, 0.2625, 0.7, 0.35, 0, 0.4375, 0.0875, 0.525, 0.175, 0.6125, 0.2625, 0.7, 0.35, 0, 0.4375, 0.0875, 0.525, 0.175, 0.6125, 0.2625, 0.7, 0.35, 0, 0.4375, 0.0875, 0.525, 0.175, 0.6125, 0.2625, 0.7, 0.35, 0, 0.4375, 0.0875, 0.525, 0.175, 0.6125, 0.2625, 0.7, 0.35, 0, 0.4375, 0.0875, 0.525, 0.175, 0.6125, 0.2625, 0.7, 0.35],
  "SoftwareVersions": "syngo MR B19",
  "SpacingBetweenSlices": 2,
  "StationName": "MRC35450",
  "TaskName": "cpro",
  "TotalReadoutTime": 0.0710717,
  "TxRefAmp": 330.216,
  "dcmmeta_affine": [
    [-1.9997532367706299, -4.0152379199298593e-08, 0.03141463175415993, 104.2278823852539],
    [-0.0027926217298954725, 1.992082118988037, -0.17776665091514587, -76.58936309814453],
    [0.031290262937545776, 0.17778858542442322, 1.9918363094329834, -111.09686279296875],
    [0.0, 0.0, 0.0, 1.0]
],
  "dcmmeta_reorient_transform": [
    [0.0, -1.0, 0.0, 103.0],
    [1.0, 0.0, 0.0, 0.0],
    [0.0, 0.0, 1.0, 0.0],
    [0.0, 0.0, 0.0, 1.0]
],
  "dcmmeta_shape": [104, 104, 72, 581],
  "dcmmeta_slice_dim": 2,
  "dcmmeta_version": 0.6,
  "global": {
    "const": {
      "AcquisitionMatrix": [104, 0, 0, 104],
      "AngioFlag": "N",
      "BitsAllocated": 16,
      "BitsStored": 12,
      "Columns": 936,
      "EchoNumbers": 1,
      "EchoTime": 34.8,
      "EchoTrainLength": 1,
      "FlipAngle": 55.0,
      "HighBit": 11,
      "ImageOrientationPatient": [0.99987663248909, 0.00139631083141, 0.01564513081859, -2.007619e-08, 0.99604106568838, -0.0888942937559],
      "ImagePositionPatient": [-936.12522193565, -958.46299483512, -31.841333234354],
      "ImageType": [
        "ORIGINAL",
        "PRIMARY",
        "M",
        "MB",
        "ND",
        "MOSAIC"
],
      "ImagedNucleus": "1H",
      "ImagingFrequency": 123.234503,
      "InPlanePhaseEncodingDirection": "COL",
      "MRAcquisitionType": "2D",
      "MagneticFieldStrength": 3.0,
      "Manufacturer": "SIEMENS",
      "ManufacturerModelName": "TrioTim",
      "Modality": "MR",
      "NumberOfAverages": 1.0,
      "NumberOfPhaseEncodingSteps": 91,
      "PercentPhaseFieldOfView": 100.0,
      "PercentSampling": 100.0,
      "PerformedProcedureStepStartTime": "143429.375000",
      "PhotometricInterpretation": "MONOCHROME2",
      "PixelBandwidth": 1923.0,
      "PixelRepresentation": 0,
      "PixelSpacing": [2.0, 2.0],
      "ProtocolName": "cmrr_mbep2d_bold_2mm_MB8_Task_8x",
      "RepetitionTime": 785.0,
      "Rows": 936,
      "SAR": 0.11880362850658,
      "SamplesPerPixel": 1,
      "ScanOptions": [
        "PFP",
        "FS"
],
      "ScanningSequence": "EP",
      "SequenceName": "epfid2d1_104",
      "SequenceVariant": [
        "SK",
        "SS"
],
      "SeriesDescription": "cmrr_mbep2d_bold_2mm_MB8_Task_8x",
      "SeriesNumber": 17,
      "SeriesTime": "165019.234000",
      "SliceLocation": -102.19872696317,
      "SliceThickness": 2.0,
      "SmallestImagePixelValue": 0,
      "SoftwareVersions": "syngo MR B19",
      "SpacingBetweenSlices": 1.9999999597893,
      "SpecificCharacterSet": "ISO_IR 100",
      "StudyID": "1",
      "StudyTime": "143429.203000",
      "TransmitCoilName": "Body",
      "VariableFlipAngleFlag": "N",
      "WindowCenterWidthExplanation": "Algo1",
      "dBdt": 0.0},
    "slices": {}
  },
  "time": {
    "samples": {
      "AcquisitionNumber": [1, 2, 3, 4, 5, 6, 7, 8, 9, 10, 11, 12, 13, 14, 15, 16, 17, 18, 19, 20, 21, 22, 23, 24, 25, 26, 27, 28, 29, 30, 31, 32, 33, 34, 35, 36, 37, 38, 39, 40, 41, 42, 43, 44, 45, 46, 47, 48, 49, 50, 51, 52, 53, 54, 55, 56, 57, 58, 59, 60, 61, 62, 63, 64, 65, 66, 67, 68, 69, 70, 71, 72, 73, 74, 75, 76, 77, 78, 79, 80, 81, 82, 83, 84, 85, 86, 87, 88, 89, 90, 91, 92, 93, 94, 95, 96, 97, 98, 99, 100, 101, 102, 103, 104, 105, 106, 107, 108, 109, 110, 111, 112, 113, 114, 115, 116, 117, 118, 119, 120, 121, 122, 123, 124, 125, 126, 127, 128, 129, 130, 131, 132, 133, 134, 135, 136, 137, 138, 139, 140, 141, 142, 143, 144, 145, 146, 147, 148, 149, 150, 151, 152, 153, 154, 155, 156, 157, 158, 159, 160, 161, 162, 163, 164, 165, 166, 167, 168, 169, 170, 171, 172, 173, 174, 175, 176, 177, 178, 179, 180, 181, 182, 183, 184, 185, 186, 187, 188, 189, 190, 191, 192, 193, 194, 195, 196, 197, 198, 199, 200, 201, 202, 203, 204, 205, 206, 207, 208, 209, 210, 211, 212, 213, 214, 215, 216, 217, 218, 219, 220, 221, 222, 223, 224, 225, 226, 227, 228, 229, 230, 231, 232, 233, 234, 235, 236, 237, 238, 239, 240, 241, 242, 243, 244, 245, 246, 247, 248, 249, 250, 251, 252, 253, 254, 255, 256, 257, 258, 259, 260, 261, 262, 263, 264, 265, 266, 267, 268, 269, 270, 271, 272, 273, 274, 275, 276, 277, 278, 279, 280, 281, 282, 283, 284, 285, 286, 287, 288, 289, 290, 291, 292, 293, 294, 295, 296, 297, 298, 299, 300, 301, 302, 303, 304, 305, 306, 307, 308, 309, 310, 311, 312, 313, 314, 315, 316, 317, 318, 319, 320, 321, 322, 323, 324, 325, 326, 327, 328, 329, 330, 331, 332, 333, 334, 335, 336, 337, 338, 339, 340, 341, 342, 343, 344, 345, 346, 347, 348, 349, 350, 351, 352, 353, 354, 355, 356, 357, 358, 359, 360, 361, 362, 363, 364, 365, 366, 367, 368, 369, 370, 371, 372, 373, 374, 375, 376, 377, 378, 379, 380, 381, 382, 383, 384, 385, 386, 387, 388, 389, 390, 391, 392, 393, 394, 395, 396, 397, 398, 399, 400, 401, 402, 403, 404, 405, 406, 407, 408, 409, 410, 411, 412, 413, 414, 415, 416, 417, 418, 419, 420, 421, 422, 423, 424, 425, 426, 427, 428, 429, 430, 431, 432, 433, 434, 435, 436, 437, 438, 439, 440, 441, 442, 443, 444, 445, 446, 447, 448, 449, 450, 451, 452, 453, 454, 455, 456, 457, 458, 459, 460, 461, 462, 463, 464, 465, 466, 467, 468, 469, 470, 471, 472, 473, 474, 475, 476, 477, 478, 479, 480, 481, 482, 483, 484, 485, 486, 487, 488, 489, 490, 491, 492, 493, 494, 495, 496, 497, 498, 499, 500, 501, 502, 503, 504, 505, 506, 507, 508, 509, 510, 511, 512, 513, 514, 515, 516, 517, 518, 519, 520, 521, 522, 523, 524, 525, 526, 527, 528, 529, 530, 531, 532, 533, 534, 535, 536, 537, 538, 539, 540, 541, 542, 543, 544, 545, 546, 547, 548, 549, 550, 551, 552, 553, 554, 555, 556, 557, 558, 559, 560, 561, 562, 563, 564, 565, 566, 567, 568, 569, 570, 571, 572, 573, 574, 575, 576, 577, 578, 579, 580, 581],
      "AcquisitionTime": ["155308.707500", "155309.497500", "155310.285000", "155311.072500", "155311.860000", "155312.650000", "155313.437500", "155314.225000", "155315.012500", "155315.802500", "155316.590000", "155317.377500", "155318.165000", "155318.955000", "155319.742500", "155320.530000", "155321.317500", "155322.107500", "155322.895000", "155323.682500", "155324.472500", "155325.260000", "155326.047500", "155326.835000", "155327.625000", "155328.412500", "155329.200000", "155329.987500", "155330.777500", "155331.565000", "155332.352500", "155333.140000", "155333.930000", "155334.717500", "155335.505000", "155336.292500", "155337.082500", "155337.870000", "155338.657500", "155339.445000", "155340.235000", "155341.022500", "155341.810000", "155342.600000", "155343.387500", "155344.175000", "155344.962500", "155345.752500", "155346.540000", "155347.327500", "155348.115000", "155348.905000", "155349.692500", "155350.480000", "155351.267500", "155352.057500", "155352.845000", "155353.632500", "155354.420000", "155355.210000", "155355.997500", "155356.785000", "155357.572500", "155358.362500", "155359.150000", "155359.937500", "155400.727500", "155401.515000", "155402.302500", "155403.090000", "155403.880000", "155404.667500", "155405.455000", "155406.242500", "155407.032500", "155407.820000", "155408.607500", "155409.395000", "155410.185000", "155410.972500", "155411.760000", "155412.547500", "155413.337500", "155414.125000", "155414.912500", "155415.700000", "155416.490000", "155417.277500", "155418.065000", "155418.855000", "155419.642500", "155420.430000", "155421.217500", "155422.007500", "155422.795000", "155423.582500", "155424.370000", "155425.160000", "155425.947500", "155426.735000", "155427.522500", "155428.312500", "155429.100000", "155429.887500", "155430.675000", "155431.465000", "155432.252500", "155433.040000", "155433.827500", "155434.617500", "155435.405000", "155436.192500", "155436.982500", "155437.770000", "155438.557500", "155439.345000", "155440.135000", "155440.922500", "155441.710000", "155442.497500", "155443.287500", "155444.075000", "155444.862500", "155445.650000", "155446.440000", "155447.227500", "155448.015000", "155448.802500", "155449.592500", "155450.380000", "155451.167500", "155451.957500", "155452.745000", "155453.532500", "155454.320000", "155455.110000", "155455.897500", "155456.685000", "155457.472500", "155458.262500", "155459.050000", "155459.837500", "155500.625000", "155501.415000", "155502.202500", "155502.990000", "155503.777500", "155504.567500", "155505.355000", "155506.142500", "155506.930000", "155507.720000", "155508.507500", "155509.295000", "155510.085000", "155510.872500", "155511.660000", "155512.447500", "155513.237500", "155514.025000", "155514.812500", "155515.600000", "155516.390000", "155517.177500", "155517.965000", "155518.752500", "155519.542500", "155520.330000", "155521.117500", "155521.905000", "155522.695000", "155523.482500", "155524.270000", "155525.057500", "155525.847500", "155526.635000", "155527.422500", "155528.212500", "155529.000000", "155529.787500", "155530.575000", "155531.365000", "155532.152500", "155532.940000", "155533.727500", "155534.517500", "155535.305000", "155536.092500", "155536.880000", "155537.670000", "155538.457500", "155539.245000", "155540.032500", "155540.822500", "155541.610000", "155542.397500", "155543.185000", "155543.975000", "155544.762500", "155545.550000", "155546.340000", "155547.127500", "155547.915000", "155548.702500", "155549.492500", "155550.280000", "155551.067500", "155551.855000", "155552.645000", "155553.432500", "155554.220000", "155555.007500", "155555.797500", "155556.585000", "155557.372500", "155558.160000", "155558.950000", "155559.737500", "155600.525000", "155601.312500", "155602.102500", "155602.890000", "155603.677500", "155604.467500", "155605.255000", "155606.042500", "155606.830000", "155607.620000", "155608.407500", "155609.195000", "155609.982500", "155610.772500", "155611.560000", "155612.347500", "155613.135000", "155613.925000", "155614.712500", "155615.500000", "155616.287500", "155617.077500", "155617.865000", "155618.652500", "155619.440000", "155620.230000", "155621.017500", "155621.805000", "155622.595000", "155623.382500", "155624.170000", "155624.957500", "155625.747500", "155626.535000", "155627.322500", "155628.110000", "155628.900000", "155629.687500", "155630.475000", "155631.262500", "155632.052500", "155632.840000", "155633.627500", "155634.415000", "155635.205000", "155635.992500", "155636.780000", "155637.567500", "155638.357500", "155639.145000", "155639.932500", "155640.722500", "155641.510000", "155642.297500", "155643.085000", "155643.875000", "155644.662500", "155645.450000", "155646.237500", "155647.027500", "155647.815000", "155648.602500", "155649.390000", "155650.180000", "155650.967500", "155651.755000", "155652.542500", "155653.332500", "155654.120000", "155654.907500", "155655.695000", "155656.485000", "155657.272500", "155658.060000", "155658.850000", "155659.637500", "155700.425000", "155701.212500", "155702.002500", "155702.790000", "155703.577500", "155704.365000", "155705.155000", "155705.942500", "155706.730000", "155707.517500", "155708.307500", "155709.095000", "155709.882500", "155710.670000", "155711.460000", "155712.247500", "155713.035000", "155713.822500", "155714.612500", "155715.400000", "155716.187500", "155716.977500", "155717.765000", "155718.552500", "155719.340000", "155720.130000", "155720.917500", "155721.705000", "155722.492500", "155723.282500", "155724.070000", "155724.857500", "155725.645000", "155726.435000", "155727.222500", "155728.010000", "155728.797500", "155729.587500", "155730.375000", "155731.162500", "155731.950000", "155732.740000", "155733.527500", "155734.315000", "155735.105000", "155735.892500", "155736.680000", "155737.467500", "155738.257500", "155739.045000", "155739.832500", "155740.620000", "155741.410000", "155742.197500", "155742.985000", "155743.772500", "155744.562500", "155745.350000", "155746.137500", "155746.925000", "155747.715000", "155748.502500", "155749.290000", "155750.077500", "155750.867500", "155751.655000", "155752.442500", "155753.232500", "155754.020000", "155754.807500", "155755.595000", "155756.385000", "155757.172500", "155757.960000", "155758.747500", "155759.537500", "155800.325000", "155801.112500", "155801.900000", "155802.690000", "155803.477500", "155804.265000", "155805.052500", "155805.842500", "155806.630000", "155807.417500", "155808.207500", "155808.995000", "155809.782500", "155810.570000", "155811.360000", "155812.147500", "155812.935000", "155813.722500", "155814.512500", "155815.300000", "155816.087500", "155816.875000", "155817.665000", "155818.452500", "155819.240000", "155820.027500", "155820.817500", "155821.605000", "155822.392500", "155823.180000", "155823.970000", "155824.757500", "155825.545000", "155826.335000", "155827.122500", "155827.910000", "155828.697500", "155829.487500", "155830.275000", "155831.062500", "155831.850000", "155832.640000", "155833.427500", "155834.215000", "155835.002500", "155835.792500", "155836.580000", "155837.367500", "155838.155000", "155838.945000", "155839.732500", "155840.520000", "155841.307500", "155842.097500", "155842.885000", "155843.672500", "155844.462500", "155845.250000", "155846.037500", "155846.825000", "155847.615000", "155848.402500", "155849.190000", "155849.977500", "155850.767500", "155851.555000", "155852.342500", "155853.130000", "155853.920000", "155854.707500", "155855.495000", "155856.282500", "155857.072500", "155857.860000", "155858.647500", "155859.435000", "155900.225000", "155901.012500", "155901.800000", "155902.590000", "155903.377500", "155904.165000", "155904.952500", "155905.742500", "155906.530000", "155907.317500", "155908.105000", "155908.895000", "155909.682500", "155910.470000", "155911.257500", "155912.047500", "155912.835000", "155913.622500", "155914.410000", "155915.200000", "155915.987500", "155916.775000", "155917.562500", "155918.352500", "155919.140000", "155919.927500", "155920.717500", "155921.505000", "155922.292500", "155923.080000", "155923.870000", "155924.657500", "155925.445000", "155926.232500", "155927.022500", "155927.810000", "155928.597500", "155929.385000", "155930.175000", "155930.962500", "155931.750000", "155932.537500", "155933.327500", "155934.115000", "155934.902500", "155935.690000", "155936.480000", "155937.267500", "155938.055000", "155938.845000", "155939.632500", "155940.420000", "155941.207500", "155941.997500", "155942.785000", "155943.572500", "155944.360000", "155945.150000", "155945.937500", "155946.725000", "155947.512500", "155948.302500", "155949.090000", "155949.877500", "155950.665000", "155951.455000", "155952.242500", "155953.030000", "155953.817500", "155954.607500", "155955.395000", "155956.182500", "155956.972500", "155957.760000", "155958.547500", "155959.335000", "160000.125000", "160000.912500", "160001.700000", "160002.487500", "160003.277500", "160004.065000", "160004.852500", "160005.640000", "160006.430000", "160007.217500", "160008.005000", "160008.792500", "160009.582500", "160010.370000", "160011.157500", "160011.945000", "160012.735000", "160013.522500", "160014.310000", "160015.100000", "160015.887500", "160016.675000", "160017.462500", "160018.252500", "160019.040000", "160019.827500", "160020.615000", "160021.405000", "160022.192500", "160022.980000", "160023.767500", "160024.557500", "160025.345000", "160026.132500", "160026.920000", "160027.710000", "160028.497500", "160029.285000", "160030.072500", "160030.862500", "160031.650000", "160032.437500", "160033.227500", "160034.015000", "160034.802500", "160035.590000", "160036.380000", "160037.167500", "160037.955000", "160038.742500", "160039.532500", "160040.320000", "160041.107500", "160041.895000", "160042.685000", "160043.472500", "160044.260000", "160045.047500", "160045.837500"],
      "ContentTime": ["165019.234000", "165019.250000", "165019.250000", "165019.250000", "165119.203000", "165119.203000", "165119.203000", "165119.203000", "165119.203000", "165119.203000", "165119.218000", "165119.218000", "165119.218000", "165119.218000", "165119.218000", "165119.218000", "165119.234000", "165119.234000", "165119.234000", "165119.234000", "165119.234000", "165119.234000", "165119.234000", "165119.250000", "165119.250000", "165119.250000", "165119.250000", "165119.250000", "165119.250000", "165119.250000", "165119.265000", "165119.265000", "165219.203000", "165219.203000", "165219.203000", "165219.203000", "165219.203000", "165219.203000", "165219.218000", "165219.218000", "165219.218000", "165219.218000", "165219.218000", "165219.218000", "165219.218000", "165219.234000", "165219.234000", "165219.234000", "165219.234000", "165219.234000", "165219.234000", "165219.234000", "165219.250000", "165219.250000", "165219.250000", "165219.250000", "165219.250000", "165219.250000", "165219.250000", "165219.265000", "165319.203000", "165319.203000", "165319.203000", "165319.203000", "165319.203000", "165319.203000", "165319.218000", "165319.218000", "165319.218000", "165319.218000", "165319.218000", "165319.218000", "165319.218000", "165319.234000", "165319.234000", "165319.234000", "165319.234000", "165319.234000", "165319.234000", "165319.250000", "165319.250000", "165319.250000", "165319.250000", "165319.250000", "165319.250000", "165319.250000", "165319.265000", "165319.265000", "165419.203000", "165419.203000", "165419.203000", "165419.203000", "165419.203000", "165419.203000", "165419.218000", "165419.218000", "165419.218000", "165419.218000", "165419.218000", "165419.218000", "165419.218000", "165419.234000", "165419.234000", "165419.234000", "165419.234000", "165419.234000", "165419.234000", "165419.234000", "165419.250000", "165419.250000", "165419.250000", "165419.250000", "165419.250000", "165419.250000", "165419.250000", "165419.265000", "165419.265000", "165519.203000", "165519.203000", "165519.203000", "165519.203000", "165519.203000", "165519.203000", "165519.218000", "165519.218000", "165519.218000", "165519.218000", "165519.218000", "165519.218000", "165519.218000", "165519.234000", "165519.234000", "165519.234000", "165519.234000", "165519.234000", "165519.234000", "165519.234000", "165519.250000", "165519.250000", "165519.250000", "165519.250000", "165519.250000", "165519.250000", "165519.250000", "165519.265000", "165619.203000", "165619.203000", "165619.203000", "165619.203000", "165619.203000", "165619.203000", "165619.218000", "165619.218000", "165619.218000", "165619.218000", "165619.218000", "165619.218000", "165619.218000", "165619.234000", "165619.234000", "165619.234000", "165619.234000", "165619.234000", "165619.234000", "165619.234000", "165619.250000", "165619.250000", "165619.250000", "165619.250000", "165619.250000", "165619.250000", "165619.250000", "165619.265000", "165719.203000", "165719.203000", "165719.203000", "165719.203000", "165719.203000", "165719.203000", "165719.218000", "165719.218000", "165719.218000", "165719.218000", "165719.218000", "165719.218000", "165719.218000", "165719.234000", "165719.234000", "165719.234000", "165719.234000", "165719.234000", "165719.234000", "165719.234000", "165719.250000", "165719.250000", "165719.250000", "165719.250000", "165719.250000", "165719.250000", "165719.250000", "165719.265000", "165819.203000", "165819.203000", "165819.203000", "165819.203000", "165819.203000", "165819.203000", "165819.218000", "165819.218000", "165819.218000", "165819.218000", "165819.218000", "165819.218000", "165819.218000", "165819.234000", "165819.234000", "165819.234000", "165819.234000", "165819.234000", "165819.234000", "165819.234000", "165819.250000", "165819.250000", "165819.250000", "165819.250000", "165819.250000", "165819.250000", "165819.250000", "165819.265000", "165919.203000", "165919.203000", "165919.203000", "165919.203000", "165919.203000", "165919.203000", "165919.218000", "165919.218000", "165919.218000", "165919.218000", "165919.218000", "165919.218000", "165919.218000", "165919.234000", "165919.234000", "165919.234000", "165919.234000", "165919.234000", "165919.250000", "165919.250000", "165919.250000", "165919.250000", "165919.250000", "165919.250000", "165919.250000", "165919.265000", "165919.265000", "165919.265000", "165919.265000", "170019.203000", "170019.203000", "170019.203000", "170019.203000", "170019.203000", "170019.203000", "170019.218000", "170019.218000", "170019.218000", "170019.218000", "170019.218000", "170019.218000", "170019.218000", "170019.234000", "170019.234000", "170019.234000", "170019.234000", "170019.234000", "170019.234000", "170019.234000", "170019.250000", "170019.250000", "170019.265000", "170019.265000", "170019.265000", "170019.265000", "170019.265000", "170019.265000", "170119.203000", "170119.203000", "170119.203000", "170119.203000", "170119.203000", "170119.218000", "170119.218000", "170119.218000", "170119.218000", "170119.218000", "170119.234000", "170119.234000", "170119.234000", "170119.234000", "170119.234000", "170119.234000", "170119.234000", "170119.250000", "170119.250000", "170119.250000", "170119.250000", "170119.250000", "170119.250000", "170119.265000", "170119.265000", "170119.265000", "170119.265000", "170119.265000", "170219.203000", "170219.203000", "170219.203000", "170219.203000", "170219.203000", "170219.203000", "170219.218000", "170219.218000", "170219.218000", "170219.218000", "170219.218000", "170219.218000", "170219.218000", "170219.234000", "170219.234000", "170219.234000", "170219.234000", "170219.234000", "170219.234000", "170219.234000", "170219.250000", "170219.250000", "170219.250000", "170219.250000", "170219.250000", "170219.250000", "170219.265000", "170219.265000", "170319.203000", "170319.203000", "170319.203000", "170319.203000", "170319.203000", "170319.203000", "170319.218000", "170319.218000", "170319.218000", "170319.218000", "170319.218000", "170319.218000", "170319.218000", "170319.234000", "170319.234000", "170319.234000", "170319.234000", "170319.250000", "170319.250000", "170319.250000", "170319.250000", "170319.250000", "170319.250000", "170319.265000", "170319.265000", "170319.265000", "170319.265000", "170319.265000", "170419.203000", "170419.203000", "170419.203000", "170419.203000", "170419.203000", "170419.218000", "170419.218000", "170419.218000", "170419.218000", "170419.218000", "170419.218000", "170419.234000", "170419.234000", "170419.234000", "170419.234000", "170419.234000", "170419.234000", "170419.234000", "170419.250000", "170419.250000", "170419.250000", "170419.250000", "170419.250000", "170419.250000", "170419.250000", "170419.265000", "170419.265000", "170419.265000", "170519.203000", "170519.203000", "170519.203000", "170519.203000", "170519.203000", "170519.203000", "170519.218000", "170519.218000", "170519.218000", "170519.218000", "170519.218000", "170519.218000", "170519.218000", "170519.234000", "170519.234000", "170519.234000", "170519.234000", "170519.234000", "170519.234000", "170519.234000", "170519.250000", "170519.250000", "170519.250000", "170519.250000", "170519.250000", "170519.250000", "170519.265000", "170519.265000", "170519.265000", "170619.203000", "170619.203000", "170619.203000", "170619.203000", "170619.203000", "170619.203000", "170619.218000", "170619.218000", "170619.218000", "170619.218000", "170619.218000", "170619.218000", "170619.218000", "170619.234000", "170619.234000", "170619.234000", "170619.234000", "170619.234000", "170619.234000", "170619.250000", "170619.250000", "170619.250000", "170619.250000", "170619.250000", "170619.250000", "170619.250000", "170619.265000", "170619.265000", "170719.203000", "170719.203000", "170719.203000", "170719.203000", "170719.203000", "170719.203000", "170719.218000", "170719.218000", "170719.218000", "170719.218000", "170719.218000", "170719.218000", "170719.218000", "170719.234000", "170719.234000", "170719.234000", "170719.234000", "170719.234000", "170719.250000", "170719.250000", "170719.250000", "170719.250000", "170719.250000", "170719.250000", "170719.250000", "170719.265000", "170719.265000", "170719.265000", "170819.203000", "170819.203000", "170819.203000", "170819.218000", "170819.218000", "170819.218000", "170819.218000", "170819.218000", "170819.218000", "170819.218000", "170819.234000", "170819.234000", "170819.234000", "170819.234000", "170819.234000", "170819.234000", "170819.234000", "170819.250000", "170819.250000", "170819.250000", "170819.250000", "170819.250000", "170819.250000", "170819.250000", "170819.265000", "170819.265000", "170819.265000", "170819.265000", "170919.203000", "170919.203000", "170919.203000", "170919.203000", "170919.203000", "170919.203000", "170919.218000", "170919.218000", "170919.218000", "170919.218000", "170919.218000", "170919.218000", "170919.218000", "170919.234000", "170919.234000", "170919.234000", "170919.234000", "170919.234000", "170919.234000", "170919.250000", "170919.250000", "170919.250000", "170919.250000", "170919.250000", "170919.250000", "170919.250000", "170919.265000", "170919.265000", "171019.203000", "171019.203000", "171019.203000", "171019.203000", "171019.203000", "171019.203000", "171019.218000", "171019.218000", "171019.218000", "171019.218000", "171019.218000", "171019.218000", "171019.218000", "171019.234000", "171019.234000", "171019.234000", "171019.234000", "171019.234000", "171019.234000", "171019.234000", "171019.250000", "171019.250000", "171019.250000", "171019.250000", "171019.250000", "171019.250000", "171019.250000", "171019.265000", "171019.265000", "171046.078000", "171046.078000", "171046.078000", "171046.078000", "171046.078000", "171046.093000", "171046.093000", "171046.093000", "171046.093000", "171046.093000", "171046.093000", "171046.093000", "171046.109000"],
      "DataSetTrailingPadding": [
        "\u0000\u0000\u0000\u0000\u0000\u0000\u0000\u0000\u0000\u0000\u0000\u0000\u0000\u0000\u0000\u0000\u0000\u0000\u0000\u0000\u0000\u0000\u0000\u0000\u0000\u0000\u0000\u0000\u0000\u0000\u0000\u0000\u0000\u0000\u0000\u0000\u0000\u0000\u0000\u0000\u0000\u0000\u0000\u0000\u0000\u0000\u0000\u0000\u0000\u0000\u0000\u0000\u0000\u0000\u0000\u0000",
        "\u0000\u0000\u0000\u0000\u0000\u0000\u0000\u0000\u0000\u0000\u0000\u0000\u0000\u0000\u0000\u0000\u0000\u0000\u0000\u0000\u0000\u0000\u0000\u0000\u0000\u0000\u0000\u0000\u0000\u0000\u0000\u0000\u0000\u0000\u0000\u0000\u0000\u0000\u0000\u0000\u0000\u0000\u0000\u0000\u0000\u0000\u0000\u0000\u0000\u0000\u0000\u0000\u0000\u0000\u0000\u0000",
        "\u0000\u0000\u0000\u0000\u0000\u0000\u0000\u0000\u0000\u0000\u0000\u0000\u0000\u0000\u0000\u0000\u0000\u0000\u0000\u0000\u0000\u0000\u0000\u0000\u0000\u0000\u0000\u0000\u0000\u0000\u0000\u0000\u0000\u0000\u0000\u0000\u0000\u0000\u0000\u0000\u0000\u0000\u0000\u0000\u0000\u0000\u0000\u0000\u0000\u0000\u0000\u0000\u0000\u0000\u0000\u0000",
        "\u0000\u0000\u0000\u0000\u0000\u0000\u0000\u0000\u0000\u0000\u0000\u0000\u0000\u0000\u0000\u0000\u0000\u0000\u0000\u0000\u0000\u0000\u0000\u0000\u0000\u0000\u0000\u0000\u0000\u0000\u0000\u0000\u0000\u0000\u0000\u0000\u0000\u0000\u0000\u0000\u0000\u0000\u0000\u0000\u0000\u0000\u0000\u0000\u0000\u0000\u0000\u0000\u0000\u0000",
        "\u0000\u0000\u0000\u0000\u0000\u0000\u0000\u0000\u0000\u0000\u0000\u0000\u0000\u0000\u0000\u0000\u0000\u0000\u0000\u0000\u0000\u0000\u0000\u0000\u0000\u0000\u0000\u0000\u0000\u0000\u0000\u0000\u0000\u0000\u0000\u0000\u0000\u0000\u0000\u0000\u0000\u0000\u0000\u0000\u0000\u0000\u0000\u0000\u0000\u0000\u0000\u0000\u0000\u0000\u0000\u0000",
