{
  "AcquisitionMatrixPE": 104,
  "AcquisitionNumber": 1,
  "AcquisitionTime": "15:56:1.742500",
  "BandwidthPerPixelPhaseEncode": 13.935,
  "BaseResolution": 104,
  "CoilString": "C:HEA;HEP",
  "ConversionSoftware": "dcm2niix",
  "ConversionSoftwareVersion": "v1.0.20210317",
  "DerivedVendorReportedEchoSpacing": 0.000690017,
  "DeviceSerialNumber": "35450",
  "DwellTime": 2.5e-06,
  "EchoTime": 0.0348,
  "EffectiveEchoSpacing": 0.000690017,
  "FlipAngle": 55,
  "ImageComments": "Unaliased MB8/PE3",
  "ImageOrientationPatientDICOM": [0.999777, 0.00176062, 0.0210307, 1.39433e-08, 0.996514, -0.0834255],
  "ImageType": [
    "ORIGINAL",
    "PRIMARY",
    "M",
    "MB",
    "ND",
    "MOSAIC"
],
  "ImagingFrequency": 123.234,
  "InPlanePhaseEncodingDirectionDICOM": "COL",
  "InstitutionAddress": "Univeristy Ave. 197,Newark,North East,US,07102-1814",
  "InstitutionName": "RUBIC",
  "InstitutionalDepartmentName": "Department",
  "MRAcquisitionType": "2D",
  "MagneticFieldStrength": 3,
  "Manufacturer": "Siemens",
  "ManufacturersModelName": "TrioTim",
  "Modality": "MR",
  "MultibandAccelerationFactor": 8,
  "PartialFourier": 0.875,
  "PatientPosition": "HFS",
  "PercentPhaseFOV": 100,
  "PercentSampling": 100,
  "PhaseEncodingDirection": "j-",
  "PhaseEncodingSteps": 91,
  "PhaseResolution": 1,
  "PixelBandwidth": 1923,
  "ProcedureStepDescription": "Cole^Michael",
  "ProtocolName": "cmrr_mbep2d_bold_2mm_MB8_Task_8x",
  "PulseSequenceDetails": "%CustomerSeq%\\cmrr_mbep2d_bold",
  "ReceiveCoilName": "32Ch_Head",
  "ReconMatrixPE": 104,
  "RepetitionTime": 0.785,
  "SAR": 0.13841,
  "ScanOptions": "PFP\\FS",
  "ScanningSequence": "EP",
  "SequenceName": "epfid2d1_104",
  "SequenceVariant": "SK\\SS",
  "SeriesDescription": "cmrr_mbep2d_bold_2mm_MB8_Task_8x",
  "SeriesNumber": 15,
  "ShimSetting": [2159, -336, -7299, 826, 166, -240, 90, -51],
  "SliceThickness": 2,
  "SliceTiming": [0, 0.4375, 0.0875, 0.525, 0.175, 0.6125, 0.2625, 0.7, 0.35, 0, 0.4375, 0.0875, 0.525, 0.175, 0.6125, 0.2625, 0.7, 0.35, 0, 0.4375, 0.0875, 0.525, 0.175, 0.6125, 0.2625, 0.7, 0.35, 0, 0.4375, 0.0875, 0.525, 0.175, 0.6125, 0.2625, 0.7, 0.35, 0, 0.4375, 0.0875, 0.525, 0.175, 0.6125, 0.2625, 0.7, 0.35, 0, 0.4375, 0.0875, 0.525, 0.175, 0.6125, 0.2625, 0.7, 0.35, 0, 0.4375, 0.0875, 0.525, 0.175, 0.6125, 0.2625, 0.7, 0.35, 0, 0.4375, 0.0875, 0.525, 0.175, 0.6125, 0.2625, 0.7, 0.35],
  "SoftwareVersions": "syngo MR B19",
  "SpacingBetweenSlices": 2,
  "StationName": "MRC35450",
  "TaskName": "cpro",
  "TotalReadoutTime": 0.0710717,
  "TxRefAmp": 327.821,
  "dcmmeta_affine": [
    [-1.9995545148849487, 2.7886626341455667e-08, 0.042208634316921234, 102.43126678466797],
    [-0.0035212470684200525, 1.9930280447006226, -0.16681377589702606, -77.25505828857422],
    [0.042061496526002884, 0.16685092449188232, 1.992584228515625, -107.58609771728516],
    [0.0, 0.0, 0.0, 1.0]
],
  "dcmmeta_reorient_transform": [
    [0.0, -1.0, 0.0, 103.0],
    [1.0, 0.0, 0.0, 0.0],
    [0.0, 0.0, 1.0, 0.0],
    [0.0, 0.0, 0.0, 1.0]
],
  "dcmmeta_shape": [104, 104, 72, 581],
  "dcmmeta_slice_dim": 2,
  "dcmmeta_version": 0.6,
  "global": {
    "const": {
      "AcquisitionMatrix": [104, 0, 0, 104],
      "AngioFlag": "N",
      "BitsAllocated": 16,
      "BitsStored": 12,
      "Columns": 936,
      "EchoNumbers": 1,
      "EchoTime": 34.8,
      "EchoTrainLength": 1,
      "FlipAngle": 55.0,
      "HighBit": 11,
      "ImageOrientationPatient": [0.99977727910647, 0.00176062353795, 0.02103074861289, 1.3943313e-08, 0.99651401987728, -0.0834254648654],
      "ImagePositionPatient": [-934.24597449055, -958.5913345472, -38.488049066617],
      "ImageType": [
        "ORIGINAL",
        "PRIMARY",
        "M",
        "MB",
        "ND",
        "MOSAIC"
],
      "ImagedNucleus": "1H",
      "ImagingFrequency": 123.234422,
      "InPlanePhaseEncodingDirection": "COL",
      "MRAcquisitionType": "2D",
      "MagneticFieldStrength": 3.0,
      "Manufacturer": "SIEMENS",
      "ManufacturerModelName": "TrioTim",
      "Modality": "MR",
      "NumberOfAverages": 1.0,
      "NumberOfPhaseEncodingSteps": 91,
      "PercentPhaseFieldOfView": 100.0,
      "PercentSampling": 100.0,
      "PerformedProcedureStepStartTime": "145545.781000",
      "PhotometricInterpretation": "MONOCHROME2",
      "PixelBandwidth": 1923.0,
      "PixelRepresentation": 0,
      "PixelSpacing": [2.0, 2.0],
      "ProtocolName": "cmrr_mbep2d_bold_2mm_MB8_Task_8x",
      "RepetitionTime": 785.0,
      "Rows": 936,
      "SAR": 0.13841048481297,
      "SamplesPerPixel": 1,
      "ScanOptions": [
        "PFP",
        "FS"
],
      "ScanningSequence": "EP",
      "SequenceName": "epfid2d1_104",
      "SequenceVariant": [
        "SK",
        "SS"
],
      "SeriesDescription": "cmrr_mbep2d_bold_2mm_MB8_Task_8x",
      "SeriesNumber": 15,
      "SeriesTime": "163853.343000",
      "SliceLocation": -98.581832165198,
      "SliceThickness": 2.0,
      "SmallestImagePixelValue": 0,
      "SoftwareVersions": "syngo MR B19",
      "SpacingBetweenSlices": 2.0000000251118,
      "SpecificCharacterSet": "ISO_IR 100",
      "StudyID": "1",
      "StudyTime": "145545.687000",
      "TransmitCoilName": "Body",
      "VariableFlipAngleFlag": "N",
      "WindowCenterWidthExplanation": "Algo1",
      "dBdt": 0.0},
    "slices": {}
  },
  "time": {
    "samples": {
      "AcquisitionNumber": [1, 2, 3, 4, 5, 6, 7, 8, 9, 10, 11, 12, 13, 14, 15, 16, 17, 18, 19, 20, 21, 22, 23, 24, 25, 26, 27, 28, 29, 30, 31, 32, 33, 34, 35, 36, 37, 38, 39, 40, 41, 42, 43, 44, 45, 46, 47, 48, 49, 50, 51, 52, 53, 54, 55, 56, 57, 58, 59, 60, 61, 62, 63, 64, 65, 66, 67, 68, 69, 70, 71, 72, 73, 74, 75, 76, 77, 78, 79, 80, 81, 82, 83, 84, 85, 86, 87, 88, 89, 90, 91, 92, 93, 94, 95, 96, 97, 98, 99, 100, 101, 102, 103, 104, 105, 106, 107, 108, 109, 110, 111, 112, 113, 114, 115, 116, 117, 118, 119, 120, 121, 122, 123, 124, 125, 126, 127, 128, 129, 130, 131, 132, 133, 134, 135, 136, 137, 138, 139, 140, 141, 142, 143, 144, 145, 146, 147, 148, 149, 150, 151, 152, 153, 154, 155, 156, 157, 158, 159, 160, 161, 162, 163, 164, 165, 166, 167, 168, 169, 170, 171, 172, 173, 174, 175, 176, 177, 178, 179, 180, 181, 182, 183, 184, 185, 186, 187, 188, 189, 190, 191, 192, 193, 194, 195, 196, 197, 198, 199, 200, 201, 202, 203, 204, 205, 206, 207, 208, 209, 210, 211, 212, 213, 214, 215, 216, 217, 218, 219, 220, 221, 222, 223, 224, 225, 226, 227, 228, 229, 230, 231, 232, 233, 234, 235, 236, 237, 238, 239, 240, 241, 242, 243, 244, 245, 246, 247, 248, 249, 250, 251, 252, 253, 254, 255, 256, 257, 258, 259, 260, 261, 262, 263, 264, 265, 266, 267, 268, 269, 270, 271, 272, 273, 274, 275, 276, 277, 278, 279, 280, 281, 282, 283, 284, 285, 286, 287, 288, 289, 290, 291, 292, 293, 294, 295, 296, 297, 298, 299, 300, 301, 302, 303, 304, 305, 306, 307, 308, 309, 310, 311, 312, 313, 314, 315, 316, 317, 318, 319, 320, 321, 322, 323, 324, 325, 326, 327, 328, 329, 330, 331, 332, 333, 334, 335, 336, 337, 338, 339, 340, 341, 342, 343, 344, 345, 346, 347, 348, 349, 350, 351, 352, 353, 354, 355, 356, 357, 358, 359, 360, 361, 362, 363, 364, 365, 366, 367, 368, 369, 370, 371, 372, 373, 374, 375, 376, 377, 378, 379, 380, 381, 382, 383, 384, 385, 386, 387, 388, 389, 390, 391, 392, 393, 394, 395, 396, 397, 398, 399, 400, 401, 402, 403, 404, 405, 406, 407, 408, 409, 410, 411, 412, 413, 414, 415, 416, 417, 418, 419, 420, 421, 422, 423, 424, 425, 426, 427, 428, 429, 430, 431, 432, 433, 434, 435, 436, 437, 438, 439, 440, 441, 442, 443, 444, 445, 446, 447, 448, 449, 450, 451, 452, 453, 454, 455, 456, 457, 458, 459, 460, 461, 462, 463, 464, 465, 466, 467, 468, 469, 470, 471, 472, 473, 474, 475, 476, 477, 478, 479, 480, 481, 482, 483, 484, 485, 486, 487, 488, 489, 490, 491, 492, 493, 494, 495, 496, 497, 498, 499, 500, 501, 502, 503, 504, 505, 506, 507, 508, 509, 510, 511, 512, 513, 514, 515, 516, 517, 518, 519, 520, 521, 522, 523, 524, 525, 526, 527, 528, 529, 530, 531, 532, 533, 534, 535, 536, 537, 538, 539, 540, 541, 542, 543, 544, 545, 546, 547, 548, 549, 550, 551, 552, 553, 554, 555, 556, 557, 558, 559, 560, 561, 562, 563, 564, 565, 566, 567, 568, 569, 570, 571, 572, 573, 574, 575, 576, 577, 578, 579, 580, 581],
      "AcquisitionTime": ["155601.742500", "155602.530000", "155603.320000", "155604.107500", "155604.895000", "155605.682500", "155606.472500", "155607.260000", "155608.047500", "155608.835000", "155609.625000", "155610.412500", "155611.200000", "155611.987500", "155612.777500", "155613.565000", "155614.352500", "155615.140000", "155615.930000", "155616.717500", "155617.505000", "155618.295000", "155619.082500", "155619.870000", "155620.657500", "155621.447500", "155622.235000", "155623.022500", "155623.810000", "155624.600000", "155625.387500", "155626.175000", "155626.962500", "155627.752500", "155628.540000", "155629.327500", "155630.115000", "155630.905000", "155631.692500", "155632.480000", "155633.267500", "155634.057500", "155634.845000", "155635.632500", "155636.422500", "155637.210000", "155637.997500", "155638.785000", "155639.575000", "155640.362500", "155641.150000", "155641.937500", "155642.727500", "155643.515000", "155644.302500", "155645.090000", "155645.880000", "155646.667500", "155647.455000", "155648.242500", "155649.032500", "155649.820000", "155650.607500", "155651.395000", "155652.185000", "155652.972500", "155653.760000", "155654.550000", "155655.337500", "155656.125000", "155656.912500", "155657.702500", "155658.490000", "155659.277500", "155700.065000", "155700.855000", "155701.642500", "155702.430000", "155703.217500", "155704.007500", "155704.795000", "155705.582500", "155706.370000", "155707.160000", "155707.947500", "155708.735000", "155709.522500", "155710.312500", "155711.100000", "155711.887500", "155712.677500", "155713.465000", "155714.252500", "155715.040000", "155715.830000", "155716.617500", "155717.405000", "155718.192500", "155718.982500", "155719.770000", "155720.557500", "155721.345000", "155722.135000", "155722.922500", "155723.710000", "155724.497500", "155725.287500", "155726.075000", "155726.862500", "155727.650000", "155728.440000", "155729.227500", "155730.015000", "155730.805000", "155731.592500", "155732.380000", "155733.167500", "155733.957500", "155734.745000", "155735.532500", "155736.320000", "155737.110000", "155737.897500", "155738.685000", "155739.472500", "155740.262500", "155741.050000", "155741.837500", "155742.625000", "155743.415000", "155744.202500", "155744.990000", "155745.777500", "155746.567500", "155747.355000", "155748.142500", "155748.932500", "155749.720000", "155750.507500", "155751.295000", "155752.085000", "155752.872500", "155753.660000", "155754.447500", "155755.237500", "155756.025000", "155756.812500", "155757.600000", "155758.390000", "155759.177500", "155759.965000", "155800.752500", "155801.542500", "155802.330000", "155803.117500", "155803.905000", "155804.695000", "155805.482500", "155806.270000", "155807.060000", "155807.847500", "155808.635000", "155809.422500", "155810.212500", "155811.000000", "155811.787500", "155812.575000", "155813.365000", "155814.152500", "155814.940000", "155815.727500", "155816.517500", "155817.305000", "155818.092500", "155818.880000", "155819.670000", "155820.457500", "155821.245000", "155822.032500", "155822.822500", "155823.610000", "155824.397500", "155825.187500", "155825.975000", "155826.762500", "155827.550000", "155828.340000", "155829.127500", "155829.915000", "155830.702500", "155831.492500", "155832.280000", "155833.067500", "155833.855000", "155834.645000", "155835.432500", "155836.220000", "155837.007500", "155837.797500", "155838.585000", "155839.372500", "155840.160000", "155840.950000", "155841.737500", "155842.525000", "155843.315000", "155844.102500", "155844.890000", "155845.677500", "155846.467500", "155847.255000", "155848.042500", "155848.830000", "155849.620000", "155850.407500", "155851.195000", "155851.982500", "155852.772500", "155853.560000", "155854.347500", "155855.135000", "155855.925000", "155856.712500", "155857.500000", "155858.290000", "155859.077500", "155859.865000", "155900.652500", "155901.442500", "155902.230000", "155903.017500", "155903.805000", "155904.595000", "155905.382500", "155906.170000", "155906.957500", "155907.747500", "155908.535000", "155909.322500", "155910.110000", "155910.900000", "155911.687500", "155912.475000", "155913.262500", "155914.052500", "155914.840000", "155915.627500", "155916.417500", "155917.205000", "155917.992500", "155918.780000", "155919.570000", "155920.357500", "155921.145000", "155921.932500", "155922.722500", "155923.510000", "155924.297500", "155925.085000", "155925.875000", "155926.662500", "155927.450000", "155928.237500", "155929.027500", "155929.815000", "155930.602500", "155931.390000", "155932.180000", "155932.967500", "155933.755000", "155934.545000", "155935.332500", "155936.120000", "155936.907500", "155937.697500", "155938.485000", "155939.272500", "155940.060000", "155940.850000", "155941.637500", "155942.425000", "155943.212500", "155944.002500", "155944.790000", "155945.577500", "155946.365000", "155947.155000", "155947.942500", "155948.730000", "155949.517500", "155950.307500", "155951.095000", "155951.882500", "155952.672500", "155953.460000", "155954.247500", "155955.035000", "155955.825000", "155956.612500", "155957.400000", "155958.187500", "155958.977500", "155959.765000", "160000.552500", "160001.340000", "160002.130000", "160002.917500", "160003.705000", "160004.492500", "160005.282500", "160006.070000", "160006.857500", "160007.645000", "160008.435000", "160009.222500", "160010.010000", "160010.800000", "160011.587500", "160012.375000", "160013.162500", "160013.952500", "160014.740000", "160015.527500", "160016.315000", "160017.105000", "160017.892500", "160018.680000", "160019.467500", "160020.257500", "160021.045000", "160021.832500", "160022.620000", "160023.410000", "160024.197500", "160024.985000", "160025.772500", "160026.562500", "160027.350000", "160028.137500", "160028.927500", "160029.715000", "160030.502500", "160031.290000", "160032.080000", "160032.867500", "160033.655000", "160034.442500", "160035.232500", "160036.020000", "160036.807500", "160037.595000", "160038.385000", "160039.172500", "160039.960000", "160040.747500", "160041.537500", "160042.325000", "160043.112500", "160043.900000", "160044.690000", "160045.477500", "160046.265000", "160047.055000", "160047.842500", "160048.630000", "160049.417500", "160050.207500", "160050.995000", "160051.782500", "160052.570000", "160053.360000", "160054.147500", "160054.935000", "160055.722500", "160056.512500", "160057.300000", "160058.087500", "160058.875000", "160059.665000", "160100.452500", "160101.240000", "160102.027500", "160102.817500", "160103.605000", "160104.392500", "160105.182500", "160105.970000", "160106.757500", "160107.545000", "160108.335000", "160109.122500", "160109.910000", "160110.697500", "160111.487500", "160112.275000", "160113.062500", "160113.850000", "160114.640000", "160115.427500", "160116.215000", "160117.002500", "160117.792500", "160118.580000", "160119.367500", "160120.155000", "160120.945000", "160121.732500", "160122.520000", "160123.310000", "160124.097500", "160124.885000", "160125.672500", "160126.462500", "160127.250000", "160128.037500", "160128.825000", "160129.615000", "160130.402500", "160131.190000", "160131.977500", "160132.767500", "160133.555000", "160134.342500", "160135.130000", "160135.920000", "160136.707500", "160137.495000", "160138.282500", "160139.072500", "160139.860000", "160140.647500", "160141.437500", "160142.225000", "160143.012500", "160143.800000", "160144.590000", "160145.377500", "160146.165000", "160146.952500", "160147.742500", "160148.530000", "160149.317500", "160150.105000", "160150.895000", "160151.682500", "160152.470000", "160153.257500", "160154.047500", "160154.835000", "160155.622500", "160156.410000", "160157.200000", "160157.987500", "160158.775000", "160159.565000", "160200.352500", "160201.140000", "160201.927500", "160202.717500", "160203.505000", "160204.292500", "160205.080000", "160205.870000", "160206.657500", "160207.445000", "160208.232500", "160209.022500", "160209.810000", "160210.597500", "160211.385000", "160212.175000", "160212.962500", "160213.750000", "160214.540000", "160215.327500", "160216.115000", "160216.902500", "160217.692500", "160218.480000", "160219.267500", "160220.055000", "160220.845000", "160221.632500", "160222.420000", "160223.207500", "160223.997500", "160224.785000", "160225.572500", "160226.360000", "160227.150000", "160227.937500", "160228.725000", "160229.512500", "160230.302500", "160231.090000", "160231.877500", "160232.667500", "160233.455000", "160234.242500", "160235.030000", "160235.820000", "160236.607500", "160237.395000", "160238.182500", "160238.972500", "160239.760000", "160240.547500", "160241.335000", "160242.125000", "160242.912500", "160243.700000", "160244.487500", "160245.277500", "160246.065000", "160246.852500", "160247.640000", "160248.430000", "160249.217500", "160250.005000", "160250.795000", "160251.582500", "160252.370000", "160253.157500", "160253.947500", "160254.735000", "160255.522500", "160256.310000", "160257.100000", "160257.887500", "160258.675000", "160259.462500", "160300.252500", "160301.040000", "160301.827500", "160302.615000", "160303.405000", "160304.192500", "160304.980000", "160305.767500", "160306.557500", "160307.345000", "160308.132500", "160308.922500", "160309.710000", "160310.497500", "160311.285000", "160312.075000", "160312.862500", "160313.650000", "160314.437500", "160315.227500", "160316.015000", "160316.802500", "160317.590000", "160318.380000", "160319.167500", "160319.955000", "160320.742500", "160321.532500", "160322.320000", "160323.107500", "160323.895000", "160324.685000", "160325.472500", "160326.260000", "160327.050000", "160327.837500", "160328.625000", "160329.412500", "160330.202500", "160330.990000", "160331.777500", "160332.565000", "160333.355000", "160334.142500", "160334.930000", "160335.717500", "160336.507500", "160337.295000", "160338.082500", "160338.870000"],
      "ContentTime": ["163853.343000", "163853.343000", "163853.343000", "163853.343000", "163853.343000", "163853.359000", "163853.359000", "163853.359000", "163853.359000", "163953.312000", "163953.328000", "163953.328000", "163953.328000", "163953.328000", "163953.328000", "163953.328000", "163953.328000", "163953.343000", "163953.343000", "163953.343000", "163953.343000", "163953.343000", "163953.343000", "163953.343000", "163953.359000", "163953.359000", "163953.359000", "163953.359000", "163953.359000", "163953.359000", "163953.359000", "163953.375000", "163953.375000", "163953.375000", "163953.375000", "163953.375000", "163953.390000", "164053.312000", "164053.328000", "164053.328000", "164053.328000", "164053.328000", "164053.328000", "164053.328000", "164053.328000", "164053.343000", "164053.343000", "164053.343000", "164053.343000", "164053.343000", "164053.343000", "164053.343000", "164053.359000", "164053.359000", "164053.359000", "164053.359000", "164053.359000", "164053.359000", "164053.375000", "164053.375000", "164053.375000", "164053.375000", "164053.375000", "164053.375000", "164153.312000", "164153.328000", "164153.328000", "164153.328000", "164153.328000", "164153.328000", "164153.328000", "164153.328000", "164153.343000", "164153.343000", "164153.343000", "164153.343000", "164153.343000", "164153.343000", "164153.343000", "164153.359000", "164153.359000", "164153.359000", "164153.359000", "164153.359000", "164153.359000", "164153.359000", "164153.375000", "164153.375000", "164153.375000", "164153.375000", "164153.375000", "164153.375000", "164253.312000", "164253.328000", "164253.328000", "164253.328000", "164253.328000", "164253.328000", "164253.328000", "164253.328000", "164253.343000", "164253.343000", "164253.343000", "164253.343000", "164253.343000", "164253.343000", "164253.343000", "164253.359000", "164253.359000", "164253.359000", "164253.359000", "164253.359000", "164253.359000", "164253.375000", "164253.375000", "164253.375000", "164253.375000", "164253.375000", "164253.375000", "164353.312000", "164353.328000", "164353.328000", "164353.328000", "164353.328000", "164353.328000", "164353.328000", "164353.328000", "164353.343000", "164353.343000", "164353.343000", "164353.343000", "164353.343000", "164353.343000", "164353.343000", "164353.359000", "164353.359000", "164353.359000", "164353.359000", "164353.359000", "164353.359000", "164353.375000", "164353.375000", "164353.375000", "164353.375000", "164353.375000", "164353.390000", "164453.312000", "164453.328000", "164453.328000", "164453.328000", "164453.328000", "164453.328000", "164453.328000", "164453.328000", "164453.343000", "164453.343000", "164453.343000", "164453.343000", "164453.343000", "164453.343000", "164453.343000", "164453.359000", "164453.359000", "164453.359000", "164453.359000", "164453.359000", "164453.359000", "164453.359000", "164453.375000", "164453.375000", "164453.375000", "164453.375000", "164453.375000", "164453.375000", "164553.312000", "164553.328000", "164553.328000", "164553.328000", "164553.328000", "164553.328000", "164553.328000", "164553.328000", "164553.343000", "164553.343000", "164553.343000", "164553.343000", "164553.343000", "164553.343000", "164553.343000", "164553.359000", "164553.359000", "164553.359000", "164553.359000", "164553.359000", "164553.359000", "164553.359000", "164553.375000", "164553.375000", "164553.375000", "164553.375000", "164553.375000", "164553.375000", "164613.312000", "164613.328000", "164613.328000", "164613.328000", "164613.328000", "164613.328000", "164613.328000", "164613.328000", "164613.343000", "164713.312000", "164713.328000", "164713.328000", "164713.328000", "164713.328000", "164713.328000", "164713.328000", "164713.328000", "164713.343000", "164713.343000", "164713.343000", "164713.343000", "164713.343000", "164713.343000", "164713.359000", "164713.359000", "164713.359000", "164713.359000", "164713.359000", "164713.359000", "164713.359000", "164713.375000", "164713.375000", "164713.375000", "164713.375000", "164713.375000", "164713.390000", "164813.312000", "164813.328000", "164813.328000", "164813.328000", "164813.328000", "164813.328000", "164813.328000", "164813.328000", "164813.343000", "164813.343000", "164813.343000", "164813.343000", "164813.343000", "164813.343000", "164813.343000", "164813.359000", "164813.359000", "164813.359000", "164813.359000", "164813.359000", "164813.359000", "164813.359000", "164813.375000", "164813.375000", "164813.375000", "164813.375000", "164813.375000", "164913.312000", "164913.328000", "164913.328000", "164913.328000", "164913.328000", "164913.328000", "164913.328000", "164913.328000", "164913.343000", "164913.343000", "164913.343000", "164913.343000", "164913.343000", "164913.343000", "164913.343000", "164913.359000", "164913.359000", "164913.359000", "164913.359000", "164913.359000", "164913.359000", "164913.375000", "164913.375000", "164913.375000", "164913.375000", "164913.375000", "164913.375000", "164913.375000", "165013.312000", "165013.328000", "165013.328000", "165013.328000", "165013.328000", "165013.328000", "165013.328000", "165013.328000", "165013.343000", "165013.343000", "165013.343000", "165013.343000", "165013.343000", "165013.343000", "165013.359000", "165013.359000", "165013.359000", "165013.359000", "165013.359000", "165013.359000", "165013.359000", "165013.375000", "165013.375000", "165013.375000", "165013.375000", "165013.375000", "165013.375000", "165113.312000", "165113.328000", "165113.328000", "165113.328000", "165113.328000", "165113.328000", "165113.328000", "165113.328000", "165113.343000", "165113.343000", "165113.343000", "165113.343000", "165113.343000", "165113.343000", "165113.343000", "165113.359000", "165113.359000", "165113.359000", "165113.359000", "165113.359000", "165113.375000", "165113.375000", "165113.375000", "165113.375000", "165113.375000", "165113.375000", "165113.375000", "165213.312000", "165213.328000", "165213.328000", "165213.328000", "165213.328000", "165213.328000", "165213.328000", "165213.328000", "165213.343000", "165213.343000", "165213.343000", "165213.343000", "165213.343000", "165213.343000", "165213.343000", "165213.359000", "165213.359000", "165213.359000", "165213.359000", "165213.359000", "165213.359000", "165213.359000", "165213.375000", "165213.375000", "165213.375000", "165213.375000", "165213.375000", "165213.375000", "165313.312000", "165313.328000", "165313.328000", "165313.328000", "165313.328000", "165313.328000", "165313.343000", "165313.343000", "165313.343000", "165313.343000", "165313.343000", "165313.343000", "165313.359000", "165313.359000", "165313.359000", "165313.359000", "165313.359000", "165313.359000", "165313.375000", "165313.375000", "165313.375000", "165313.375000", "165313.375000", "165313.375000", "165313.375000", "165313.390000", "165313.390000", "165413.312000", "165413.328000", "165413.328000", "165413.328000", "165413.328000", "165413.328000", "165413.328000", "165413.328000", "165413.343000", "165413.343000", "165413.343000", "165413.343000", "165413.343000", "165413.343000", "165413.343000", "165413.359000", "165413.359000", "165413.359000", "165413.359000", "165413.359000", "165413.359000", "165413.359000", "165413.375000", "165413.375000", "165413.375000", "165413.375000", "165413.390000", "165413.390000", "165513.312000", "165513.312000", "165513.312000", "165513.312000", "165513.328000", "165513.328000", "165513.328000", "165513.328000", "165513.328000", "165513.328000", "165513.328000", "165513.343000", "165513.343000", "165513.343000", "165513.343000", "165513.343000", "165513.343000", "165513.343000", "165513.359000", "165513.359000", "165513.359000", "165513.359000", "165513.375000", "165513.375000", "165513.375000", "165513.375000", "165513.375000", "165513.375000", "165613.312000", "165613.312000", "165613.312000", "165613.328000", "165613.328000", "165613.328000", "165613.328000", "165613.328000", "165613.328000", "165613.328000", "165613.343000", "165613.343000", "165613.343000", "165613.343000", "165613.343000", "165613.343000", "165613.343000", "165613.359000", "165613.359000", "165613.359000", "165613.359000", "165613.359000", "165613.359000", "165613.375000", "165613.375000", "165613.375000", "165613.375000", "165613.375000", "165713.312000", "165713.312000", "165713.312000", "165713.328000", "165713.328000", "165713.328000", "165713.328000", "165713.328000", "165713.328000", "165713.328000", "165713.343000", "165713.343000", "165713.343000", "165713.343000", "165713.343000", "165713.343000", "165713.343000", "165713.359000", "165713.359000", "165713.359000", "165713.359000", "165713.359000", "165713.359000", "165713.359000", "165713.375000", "165713.375000", "165713.375000", "165713.375000", "165813.312000", "165813.312000", "165813.312000", "165813.312000", "165813.328000", "165813.328000", "165813.328000", "165813.328000", "165813.328000", "165813.328000", "165813.328000", "165813.343000", "165813.343000", "165813.343000", "165813.343000", "165813.343000", "165813.343000", "165813.343000", "165813.359000", "165813.359000", "165813.359000", "165813.359000", "165813.359000", "165813.359000", "165813.375000", "165813.375000", "165813.375000", "165913.312000", "165913.312000", "165913.328000", "165913.328000", "165913.328000", "165913.328000", "165913.328000", "165913.328000", "165913.328000", "165913.343000", "165913.343000", "165913.343000", "165913.343000", "165913.343000", "165913.343000", "165913.359000", "165913.359000", "165913.359000", "165913.359000", "165913.359000", "165913.359000", "165913.359000", "165913.375000", "165913.375000", "165913.375000", "165913.375000", "165913.375000", "165913.375000", "165937.156000", "165937.156000", "165937.156000", "165937.156000", "165937.156000", "165937.156000", "165937.171000", "165937.171000", "165937.171000", "165937.171000", "165937.171000", "165937.171000"],
      "DataSetTrailingPadding": [
