{
  "AcquisitionMatrixPE": 104,
  "AcquisitionNumber": 1,
  "AcquisitionTime": "16:04:12.725000",
  "BandwidthPerPixelPhaseEncode": 13.935,
  "BaseResolution": 104,
  "CoilString": "C:HEA;HEP",
  "ConversionSoftware": "dcm2niix",
  "ConversionSoftwareVersion": "v1.0.20210317",
  "DerivedVendorReportedEchoSpacing": 0.000690017,
  "DeviceSerialNumber": "35450",
  "DwellTime": 2.5e-06,
  "EchoTime": 0.0348,
  "EffectiveEchoSpacing": 0.000690017,
  "FlipAngle": 55,
  "ImageComments": "Unaliased MB8/PE3",
  "ImageOrientationPatientDICOM": [0.999777, 0.00176062, 0.0210307, 1.39433e-08, 0.996514, -0.0834255],
  "ImageType": [
    "ORIGINAL",
    "PRIMARY",
    "M",
    "MB",
    "ND",
    "MOSAIC"
],
  "ImagingFrequency": 123.234,
  "InPlanePhaseEncodingDirectionDICOM": "COL",
  "InstitutionAddress": "Univeristy Ave. 197,Newark,North East,US,07102-1814",
  "InstitutionName": "RUBIC",
  "InstitutionalDepartmentName": "Department",
  "MRAcquisitionType": "2D",
  "MagneticFieldStrength": 3,
  "Manufacturer": "Siemens",
  "ManufacturersModelName": "TrioTim",
  "Modality": "MR",
  "MultibandAccelerationFactor": 8,
  "PartialFourier": 0.875,
  "PatientPosition": "HFS",
  "PercentPhaseFOV": 100,
  "PercentSampling": 100,
  "PhaseEncodingDirection": "j-",
  "PhaseEncodingSteps": 91,
  "PhaseResolution": 1,
  "PixelBandwidth": 1923,
  "ProcedureStepDescription": "Cole^Michael",
  "ProtocolName": "cmrr_mbep2d_bold_2mm_MB8_Task_8x",
  "PulseSequenceDetails": "%CustomerSeq%\\cmrr_mbep2d_bold",
  "ReceiveCoilName": "32Ch_Head",
  "ReconMatrixPE": 104,
  "RepetitionTime": 0.785,
  "SAR": 0.13841,
  "ScanOptions": "PFP\\FS",
  "ScanningSequence": "EP",
  "SequenceName": "epfid2d1_104",
  "SequenceVariant": "SK\\SS",
  "SeriesDescription": "cmrr_mbep2d_bold_2mm_MB8_Task_8x",
  "SeriesNumber": 17,
  "ShimSetting": [2159, -336, -7299, 826, 166, -240, 90, -51],
  "SliceThickness": 2,
  "SliceTiming": [0, 0.4375, 0.0875, 0.525, 0.175, 0.6125, 0.2625, 0.7025, 0.35, 0, 0.4375, 0.0875, 0.525, 0.175, 0.6125, 0.2625, 0.7025, 0.35, 0, 0.4375, 0.0875, 0.525, 0.175, 0.6125, 0.2625, 0.7025, 0.35, 0, 0.4375, 0.0875, 0.525, 0.175, 0.6125, 0.2625, 0.7025, 0.35, 0, 0.4375, 0.0875, 0.525, 0.175, 0.6125, 0.2625, 0.7025, 0.35, 0, 0.4375, 0.0875, 0.525, 0.175, 0.6125, 0.2625, 0.7025, 0.35, 0, 0.4375, 0.0875, 0.525, 0.175, 0.6125, 0.2625, 0.7025, 0.35, 0, 0.4375, 0.0875, 0.525, 0.175, 0.6125, 0.2625, 0.7025, 0.35],
  "SoftwareVersions": "syngo MR B19",
  "SpacingBetweenSlices": 2,
  "StationName": "MRC35450",
  "TaskName": "cpro",
  "TotalReadoutTime": 0.0710717,
  "TxRefAmp": 327.821,
  "dcmmeta_affine": [
    [-1.9995545148849487, 2.7886626341455667e-08, 0.042208634316921234, 102.43126678466797],
    [-0.0035212470684200525, 1.9930280447006226, -0.16681377589702606, -77.25505828857422],
    [0.042061496526002884, 0.16685092449188232, 1.992584228515625, -107.58609771728516],
    [0.0, 0.0, 0.0, 1.0]
],
  "dcmmeta_reorient_transform": [
    [0.0, -1.0, 0.0, 103.0],
    [1.0, 0.0, 0.0, 0.0],
    [0.0, 0.0, 1.0, 0.0],
    [0.0, 0.0, 0.0, 1.0]
],
  "dcmmeta_shape": [104, 104, 72, 581],
  "dcmmeta_slice_dim": 2,
  "dcmmeta_version": 0.6,
  "global": {
    "const": {
      "AcquisitionMatrix": [104, 0, 0, 104],
      "AngioFlag": "N",
      "BitsAllocated": 16,
      "BitsStored": 12,
      "Columns": 936,
      "EchoNumbers": 1,
      "EchoTime": 34.8,
      "EchoTrainLength": 1,
      "FlipAngle": 55.0,
      "HighBit": 11,
      "ImageOrientationPatient": [0.99977727910647, 0.00176062353795, 0.02103074861289, 1.3943313e-08, 0.99651401987728, -0.0834254648654],
      "ImagePositionPatient": [-934.24597449055, -958.5913345472, -38.488049066617],
      "ImageType": [
        "ORIGINAL",
        "PRIMARY",
        "M",
        "MB",
        "ND",
        "MOSAIC"
],
      "ImagedNucleus": "1H",
      "ImagingFrequency": 123.234422,
      "InPlanePhaseEncodingDirection": "COL",
      "MRAcquisitionType": "2D",
      "MagneticFieldStrength": 3.0,
      "Manufacturer": "SIEMENS",
      "ManufacturerModelName": "TrioTim",
      "Modality": "MR",
      "NumberOfAverages": 1.0,
      "NumberOfPhaseEncodingSteps": 91,
      "PercentPhaseFieldOfView": 100.0,
      "PercentSampling": 100.0,
      "PerformedProcedureStepStartTime": "145545.781000",
      "PhotometricInterpretation": "MONOCHROME2",
      "PixelBandwidth": 1923.0,
      "PixelRepresentation": 0,
      "PixelSpacing": [2.0, 2.0],
      "ProtocolName": "cmrr_mbep2d_bold_2mm_MB8_Task_8x",
      "RepetitionTime": 785.0,
      "Rows": 936,
      "SAR": 0.13841048481297,
      "SamplesPerPixel": 1,
      "ScanOptions": [
        "PFP",
        "FS"
],
      "ScanningSequence": "EP",
      "SequenceName": "epfid2d1_104",
      "SequenceVariant": [
        "SK",
        "SS"
],
      "SeriesDescription": "cmrr_mbep2d_bold_2mm_MB8_Task_8x",
      "SeriesNumber": 17,
      "SeriesTime": "170009.312000",
      "SliceLocation": -98.581832165198,
      "SliceThickness": 2.0,
      "SmallestImagePixelValue": 0,
      "SoftwareVersions": "syngo MR B19",
      "SpacingBetweenSlices": 2.0000000251118,
      "SpecificCharacterSet": "ISO_IR 100",
      "StudyID": "1",
      "StudyTime": "145545.687000",
      "TransmitCoilName": "Body",
      "VariableFlipAngleFlag": "N",
      "WindowCenterWidthExplanation": "Algo1",
      "dBdt": 0.0},
    "slices": {}
  },
  "time": {
    "samples": {
      "AcquisitionNumber": [1, 2, 3, 4, 5, 6, 7, 8, 9, 10, 11, 12, 13, 14, 15, 16, 17, 18, 19, 20, 21, 22, 23, 24, 25, 26, 27, 28, 29, 30, 31, 32, 33, 34, 35, 36, 37, 38, 39, 40, 41, 42, 43, 44, 45, 46, 47, 48, 49, 50, 51, 52, 53, 54, 55, 56, 57, 58, 59, 60, 61, 62, 63, 64, 65, 66, 67, 68, 69, 70, 71, 72, 73, 74, 75, 76, 77, 78, 79, 80, 81, 82, 83, 84, 85, 86, 87, 88, 89, 90, 91, 92, 93, 94, 95, 96, 97, 98, 99, 100, 101, 102, 103, 104, 105, 106, 107, 108, 109, 110, 111, 112, 113, 114, 115, 116, 117, 118, 119, 120, 121, 122, 123, 124, 125, 126, 127, 128, 129, 130, 131, 132, 133, 134, 135, 136, 137, 138, 139, 140, 141, 142, 143, 144, 145, 146, 147, 148, 149, 150, 151, 152, 153, 154, 155, 156, 157, 158, 159, 160, 161, 162, 163, 164, 165, 166, 167, 168, 169, 170, 171, 172, 173, 174, 175, 176, 177, 178, 179, 180, 181, 182, 183, 184, 185, 186, 187, 188, 189, 190, 191, 192, 193, 194, 195, 196, 197, 198, 199, 200, 201, 202, 203, 204, 205, 206, 207, 208, 209, 210, 211, 212, 213, 214, 215, 216, 217, 218, 219, 220, 221, 222, 223, 224, 225, 226, 227, 228, 229, 230, 231, 232, 233, 234, 235, 236, 237, 238, 239, 240, 241, 242, 243, 244, 245, 246, 247, 248, 249, 250, 251, 252, 253, 254, 255, 256, 257, 258, 259, 260, 261, 262, 263, 264, 265, 266, 267, 268, 269, 270, 271, 272, 273, 274, 275, 276, 277, 278, 279, 280, 281, 282, 283, 284, 285, 286, 287, 288, 289, 290, 291, 292, 293, 294, 295, 296, 297, 298, 299, 300, 301, 302, 303, 304, 305, 306, 307, 308, 309, 310, 311, 312, 313, 314, 315, 316, 317, 318, 319, 320, 321, 322, 323, 324, 325, 326, 327, 328, 329, 330, 331, 332, 333, 334, 335, 336, 337, 338, 339, 340, 341, 342, 343, 344, 345, 346, 347, 348, 349, 350, 351, 352, 353, 354, 355, 356, 357, 358, 359, 360, 361, 362, 363, 364, 365, 366, 367, 368, 369, 370, 371, 372, 373, 374, 375, 376, 377, 378, 379, 380, 381, 382, 383, 384, 385, 386, 387, 388, 389, 390, 391, 392, 393, 394, 395, 396, 397, 398, 399, 400, 401, 402, 403, 404, 405, 406, 407, 408, 409, 410, 411, 412, 413, 414, 415, 416, 417, 418, 419, 420, 421, 422, 423, 424, 425, 426, 427, 428, 429, 430, 431, 432, 433, 434, 435, 436, 437, 438, 439, 440, 441, 442, 443, 444, 445, 446, 447, 448, 449, 450, 451, 452, 453, 454, 455, 456, 457, 458, 459, 460, 461, 462, 463, 464, 465, 466, 467, 468, 469, 470, 471, 472, 473, 474, 475, 476, 477, 478, 479, 480, 481, 482, 483, 484, 485, 486, 487, 488, 489, 490, 491, 492, 493, 494, 495, 496, 497, 498, 499, 500, 501, 502, 503, 504, 505, 506, 507, 508, 509, 510, 511, 512, 513, 514, 515, 516, 517, 518, 519, 520, 521, 522, 523, 524, 525, 526, 527, 528, 529, 530, 531, 532, 533, 534, 535, 536, 537, 538, 539, 540, 541, 542, 543, 544, 545, 546, 547, 548, 549, 550, 551, 552, 553, 554, 555, 556, 557, 558, 559, 560, 561, 562, 563, 564, 565, 566, 567, 568, 569, 570, 571, 572, 573, 574, 575, 576, 577, 578, 579, 580, 581],
      "AcquisitionTime": ["160412.725000", "160413.515000", "160414.302500", "160415.090000", "160415.877500", "160416.667500", "160417.455000", "160418.242500", "160419.032500", "160419.820000", "160420.607500", "160421.395000", "160422.185000", "160422.972500", "160423.760000", "160424.547500", "160425.337500", "160426.125000", "160426.912500", "160427.700000", "160428.490000", "160429.277500", "160430.065000", "160430.852500", "160431.642500", "160432.430000", "160433.217500", "160434.005000", "160434.795000", "160435.582500", "160436.370000", "160437.160000", "160437.947500", "160438.735000", "160439.522500", "160440.312500", "160441.100000", "160441.887500", "160442.675000", "160443.465000", "160444.252500", "160445.040000", "160445.827500", "160446.617500", "160447.405000", "160448.192500", "160448.980000", "160449.770000", "160450.557500", "160451.345000", "160452.132500", "160452.922500", "160453.710000", "160454.497500", "160455.287500", "160456.075000", "160456.862500", "160457.650000", "160458.440000", "160459.227500", "160500.015000", "160500.802500", "160501.592500", "160502.380000", "160503.167500", "160503.955000", "160504.745000", "160505.532500", "160506.320000", "160507.107500", "160507.897500", "160508.685000", "160509.472500", "160510.260000", "160511.050000", "160511.837500", "160512.625000", "160513.415000", "160514.202500", "160514.990000", "160515.777500", "160516.567500", "160517.355000", "160518.142500", "160518.930000", "160519.720000", "160520.507500", "160521.295000", "160522.082500", "160522.872500", "160523.660000", "160524.447500", "160525.235000", "160526.025000", "160526.812500", "160527.600000", "160528.387500", "160529.177500", "160529.965000", "160530.752500", "160531.542500", "160532.330000", "160533.117500", "160533.905000", "160534.695000", "160535.482500", "160536.270000", "160537.057500", "160537.847500", "160538.635000", "160539.422500", "160540.210000", "160541.000000", "160541.787500", "160542.575000", "160543.362500", "160544.152500", "160544.940000", "160545.727500", "160546.515000", "160547.305000", "160548.092500", "160548.880000", "160549.670000", "160550.457500", "160551.245000", "160552.032500", "160552.822500", "160553.610000", "160554.397500", "160555.185000", "160555.975000", "160556.762500", "160557.550000", "160558.337500", "160559.127500", "160559.915000", "160600.702500", "160601.490000", "160602.280000", "160603.067500", "160603.855000", "160604.642500", "160605.432500", "160606.220000", "160607.007500", "160607.797500", "160608.585000", "160609.372500", "160610.160000", "160610.950000", "160611.737500", "160612.525000", "160613.312500", "160614.102500", "160614.890000", "160615.677500", "160616.465000", "160617.255000", "160618.042500", "160618.830000", "160619.617500", "160620.407500", "160621.195000", "160621.982500", "160622.770000", "160623.560000", "160624.347500", "160625.135000", "160625.925000", "160626.712500", "160627.500000", "160628.287500", "160629.077500", "160629.865000", "160630.652500", "160631.440000", "160632.230000", "160633.017500", "160633.805000", "160634.592500", "160635.382500", "160636.170000", "160636.957500", "160637.745000", "160638.535000", "160639.322500", "160640.110000", "160640.897500", "160641.687500", "160642.475000", "160643.262500", "160644.052500", "160644.840000", "160645.627500", "160646.415000", "160647.205000", "160647.992500", "160648.780000", "160649.567500", "160650.357500", "160651.145000", "160651.932500", "160652.720000", "160653.510000", "160654.297500", "160655.085000", "160655.872500", "160656.662500", "160657.450000", "160658.237500", "160659.025000", "160659.815000", "160700.602500", "160701.390000", "160702.180000", "160702.967500", "160703.755000", "160704.542500", "160705.332500", "160706.120000", "160706.907500", "160707.695000", "160708.485000", "160709.272500", "160710.060000", "160710.847500", "160711.637500", "160712.425000", "160713.212500", "160714.000000", "160714.790000", "160715.577500", "160716.365000", "160717.152500", "160717.942500", "160718.730000", "160719.517500", "160720.307500", "160721.095000", "160721.882500", "160722.670000", "160723.460000", "160724.247500", "160725.035000", "160725.822500", "160726.612500", "160727.400000", "160728.187500", "160728.975000", "160729.765000", "160730.552500", "160731.340000", "160732.127500", "160732.917500", "160733.705000", "160734.492500", "160735.282500", "160736.070000", "160736.857500", "160737.645000", "160738.435000", "160739.222500", "160740.010000", "160740.797500", "160741.587500", "160742.375000", "160743.162500", "160743.950000", "160744.740000", "160745.527500", "160746.315000", "160747.102500", "160747.892500", "160748.680000", "160749.467500", "160750.255000", "160751.045000", "160751.832500", "160752.620000", "160753.410000", "160754.197500", "160754.985000", "160755.772500", "160756.562500", "160757.350000", "160758.137500", "160758.925000", "160759.715000", "160800.502500", "160801.290000", "160802.077500", "160802.867500", "160803.655000", "160804.442500", "160805.230000", "160806.020000", "160806.807500", "160807.595000", "160808.382500", "160809.172500", "160809.960000", "160810.747500", "160811.537500", "160812.325000", "160813.112500", "160813.900000", "160814.690000", "160815.477500", "160816.265000", "160817.052500", "160817.842500", "160818.630000", "160819.417500", "160820.205000", "160820.995000", "160821.782500", "160822.570000", "160823.357500", "160824.147500", "160824.935000", "160825.722500", "160826.510000", "160827.300000", "160828.087500", "160828.875000", "160829.665000", "160830.452500", "160831.240000", "160832.027500", "160832.817500", "160833.605000", "160834.392500", "160835.180000", "160835.970000", "160836.757500", "160837.545000", "160838.332500", "160839.122500", "160839.910000", "160840.697500", "160841.485000", "160842.275000", "160843.062500", "160843.850000", "160844.637500", "160845.427500", "160846.215000", "160847.002500", "160847.792500", "160848.580000", "160849.367500", "160850.155000", "160850.945000", "160851.732500", "160852.520000", "160853.307500", "160854.097500", "160854.885000", "160855.672500", "160856.460000", "160857.250000", "160858.037500", "160858.825000", "160859.612500", "160900.402500", "160901.190000", "160901.977500", "160902.765000", "160903.555000", "160904.342500", "160905.130000", "160905.920000", "160906.707500", "160907.495000", "160908.282500", "160909.072500", "160909.860000", "160910.647500", "160911.435000", "160912.225000", "160913.012500", "160913.800000", "160914.587500", "160915.377500", "160916.165000", "160916.952500", "160917.740000", "160918.530000", "160919.317500", "160920.105000", "160920.892500", "160921.682500", "160922.470000", "160923.257500", "160924.047500", "160924.835000", "160925.622500", "160926.410000", "160927.200000", "160927.987500", "160928.775000", "160929.562500", "160930.352500", "160931.140000", "160931.927500", "160932.715000", "160933.505000", "160934.292500", "160935.080000", "160935.867500", "160936.657500", "160937.445000", "160938.232500", "160939.020000", "160939.810000", "160940.597500", "160941.385000", "160942.175000", "160942.962500", "160943.750000", "160944.537500", "160945.327500", "160946.115000", "160946.902500", "160947.690000", "160948.480000", "160949.267500", "160950.055000", "160950.842500", "160951.632500", "160952.420000", "160953.207500", "160953.995000", "160954.785000", "160955.572500", "160956.360000", "160957.147500", "160957.937500", "160958.725000", "160959.512500", "161000.302500", "161001.090000", "161001.877500", "161002.665000", "161003.455000", "161004.242500", "161005.030000", "161005.817500", "161006.607500", "161007.395000", "161008.182500", "161008.970000", "161009.760000", "161010.547500", "161011.335000", "161012.122500", "161012.912500", "161013.700000", "161014.487500", "161015.275000", "161016.065000", "161016.852500", "161017.640000", "161018.430000", "161019.217500", "161020.005000", "161020.792500", "161021.582500", "161022.370000", "161023.157500", "161023.945000", "161024.735000", "161025.522500", "161026.310000", "161027.097500", "161027.887500", "161028.675000", "161029.462500", "161030.250000", "161031.040000", "161031.827500", "161032.615000", "161033.402500", "161034.192500", "161034.980000", "161035.767500", "161036.557500", "161037.345000", "161038.132500", "161038.920000", "161039.710000", "161040.497500", "161041.285000", "161042.072500", "161042.862500", "161043.650000", "161044.437500", "161045.225000", "161046.015000", "161046.802500", "161047.590000", "161048.377500", "161049.167500", "161049.955000", "161050.742500", "161051.532500", "161052.320000", "161053.107500", "161053.895000", "161054.685000", "161055.472500", "161056.260000", "161057.047500", "161057.837500", "161058.625000", "161059.412500", "161100.200000", "161100.990000", "161101.777500", "161102.565000", "161103.352500", "161104.142500", "161104.930000", "161105.717500", "161106.505000", "161107.295000", "161108.082500", "161108.870000", "161109.660000", "161110.447500", "161111.235000", "161112.022500", "161112.812500", "161113.600000", "161114.387500", "161115.175000", "161115.965000", "161116.752500", "161117.540000", "161118.327500", "161119.117500", "161119.905000", "161120.692500", "161121.480000", "161122.270000", "161123.057500", "161123.845000", "161124.632500", "161125.422500", "161126.210000", "161126.997500", "161127.787500", "161128.575000", "161129.362500", "161130.150000", "161130.940000", "161131.727500", "161132.515000", "161133.302500", "161134.092500", "161134.880000", "161135.667500", "161136.455000", "161137.245000", "161138.032500", "161138.820000", "161139.607500", "161140.397500", "161141.185000", "161141.972500", "161142.760000", "161143.550000", "161144.337500", "161145.125000", "161145.915000", "161146.702500", "161147.490000", "161148.277500", "161149.067500", "161149.855000"],
      "ContentTime": ["170009.312000", "170009.312000", "170009.328000", "170009.328000", "170009.328000", "170009.328000", "170009.328000", "170109.281000", "170109.281000", "170109.296000", "170109.296000", "170109.296000", "170109.296000", "170109.296000", "170109.296000", "170109.296000", "170109.312000", "170109.312000", "170109.312000", "170109.312000", "170109.312000", "170109.312000", "170109.312000", "170109.328000", "170109.328000", "170109.328000", "170109.328000", "170109.328000", "170109.343000", "170109.343000", "170109.343000", "170109.343000", "170109.343000", "170109.343000", "170109.343000", "170209.281000", "170209.281000", "170209.296000", "170209.296000", "170209.296000", "170209.296000", "170209.296000", "170209.296000", "170209.296000", "170209.312000", "170209.312000", "170209.312000", "170209.312000", "170209.312000", "170209.312000", "170209.312000", "170209.328000", "170209.328000", "170209.328000", "170209.328000", "170209.328000", "170209.328000", "170209.328000", "170209.343000", "170209.343000", "170209.343000", "170209.343000", "170209.343000", "170309.281000", "170309.281000", "170309.296000", "170309.296000", "170309.296000", "170309.296000", "170309.296000", "170309.296000", "170309.296000", "170309.312000", "170309.312000", "170309.312000", "170309.312000", "170309.312000", "170309.312000", "170309.328000", "170309.328000", "170309.328000", "170309.328000", "170309.328000", "170309.328000", "170309.328000", "170309.343000", "170309.343000", "170309.343000", "170309.343000", "170309.343000", "170409.281000", "170409.281000", "170409.296000", "170409.296000", "170409.296000", "170409.296000", "170409.296000", "170409.296000", "170409.296000", "170409.312000", "170409.312000", "170409.312000", "170409.312000", "170409.312000", "170409.312000", "170409.312000", "170409.328000", "170409.328000", "170409.328000", "170409.328000", "170409.328000", "170409.343000", "170409.343000", "170409.343000", "170409.343000", "170409.343000", "170409.343000", "170409.359000", "170509.281000", "170509.281000", "170509.296000", "170509.296000", "170509.296000", "170509.296000", "170509.296000", "170509.296000", "170509.312000", "170509.312000", "170509.312000", "170509.312000", "170509.312000", "170509.312000", "170509.328000", "170509.328000", "170509.328000", "170509.328000", "170509.328000", "170509.343000", "170509.343000", "170509.343000", "170509.343000", "170509.343000", "170509.343000", "170509.359000", "170509.359000", "170509.359000", "170609.281000", "170609.281000", "170609.296000", "170609.296000", "170609.296000", "170609.296000", "170609.296000", "170609.296000", "170609.296000", "170609.312000", "170609.312000", "170609.312000", "170609.312000", "170609.312000", "170609.312000", "170609.312000", "170609.328000", "170609.328000", "170609.328000", "170609.328000", "170609.328000", "170609.328000", "170609.328000", "170609.343000", "170609.343000", "170609.343000", "170609.343000", "170609.343000", "170609.343000", "170709.281000", "170709.281000", "170709.296000", "170709.296000", "170709.296000", "170709.296000", "170709.296000", "170709.296000", "170709.312000", "170709.312000", "170709.312000", "170709.312000", "170709.312000", "170709.328000", "170709.328000", "170709.328000", "170709.328000", "170709.328000", "170709.328000", "170709.343000", "170709.343000", "170709.343000", "170709.343000", "170709.343000", "170709.359000", "170709.359000", "170709.359000", "170709.359000", "170729.281000", "170729.281000", "170729.296000", "170729.296000", "170729.296000", "170729.296000", "170729.296000", "170729.296000", "170729.296000", "170829.281000", "170829.281000", "170829.296000", "170829.296000", "170829.296000", "170829.296000", "170829.296000", "170829.296000", "170829.296000", "170829.312000", "170829.312000", "170829.312000", "170829.312000", "170829.312000", "170829.312000", "170829.312000", "170829.328000", "170829.328000", "170829.328000", "170829.328000", "170829.328000", "170829.328000", "170829.328000", "170829.343000", "170829.343000", "170829.343000", "170829.343000", "170829.343000", "170829.343000", "170929.281000", "170929.281000", "170929.296000", "170929.296000", "170929.296000", "170929.296000", "170929.296000", "170929.296000", "170929.296000", "170929.312000", "170929.312000", "170929.312000", "170929.312000", "170929.312000", "170929.312000", "170929.312000", "170929.328000", "170929.328000", "170929.328000", "170929.328000", "170929.343000", "170929.343000", "170929.343000", "170929.343000", "170929.343000", "170929.359000", "170929.359000", "170929.359000", "171029.281000", "171029.281000", "171029.296000", "171029.296000", "171029.296000", "171029.296000", "171029.296000", "171029.296000", "171029.312000", "171029.312000", "171029.312000", "171029.312000", "171029.312000", "171029.312000", "171029.312000", "171029.328000", "171029.328000", "171029.328000", "171029.328000", "171029.328000", "171029.328000", "171029.328000", "171029.343000", "171029.343000", "171029.343000", "171029.343000", "171029.343000", "171029.359000", "171129.281000", "171129.281000", "171129.296000", "171129.296000", "171129.296000", "171129.296000", "171129.296000", "171129.312000", "171129.312000", "171129.312000", "171129.312000", "171129.312000", "171129.328000", "171129.328000", "171129.328000", "171129.328000", "171129.328000", "171129.328000", "171129.343000", "171129.343000", "171129.343000", "171129.343000", "171129.343000", "171129.343000", "171129.343000", "171129.359000", "171129.359000", "171129.359000", "171229.281000", "171229.281000", "171229.296000", "171229.296000", "171229.296000", "171229.296000", "171229.296000", "171229.296000", "171229.312000", "171229.312000", "171229.312000", "171229.312000", "171229.312000", "171229.312000", "171229.312000", "171229.328000", "171229.328000", "171229.328000", "171229.328000", "171229.328000", "171229.343000", "171229.343000", "171229.343000", "171229.343000", "171229.343000", "171229.343000", "171229.343000", "171229.359000", "171329.281000", "171329.281000", "171329.296000", "171329.296000", "171329.296000", "171329.296000", "171329.296000", "171329.296000", "171329.296000", "171329.312000", "171329.312000", "171329.312000", "171329.312000", "171329.312000", "171329.312000", "171329.312000", "171329.328000", "171329.328000", "171329.328000", "171329.328000", "171329.328000", "171329.328000", "171329.343000", "171329.343000", "171329.343000", "171329.343000", "171329.343000", "171329.343000", "171429.281000", "171429.281000", "171429.296000", "171429.296000", "171429.296000", "171429.296000", "171429.296000", "171429.296000", "171429.296000", "171429.312000", "171429.312000", "171429.312000", "171429.312000", "171429.312000", "171429.312000", "171429.312000", "171429.328000", "171429.328000", "171429.328000", "171429.328000", "171429.328000", "171429.343000", "171429.343000", "171429.343000", "171429.343000", "171429.343000", "171429.343000", "171429.343000", "171529.281000", "171529.281000", "171529.296000", "171529.296000", "171529.296000", "171529.296000", "171529.296000", "171529.296000", "171529.296000", "171529.312000", "171529.312000", "171529.312000", "171529.312000", "171529.312000", "171529.312000", "171529.312000", "171529.328000", "171529.328000", "171529.328000", "171529.328000", "171529.328000", "171529.328000", "171529.328000", "171529.343000", "171529.343000", "171529.343000", "171529.343000", "171529.343000", "171529.343000", "171629.281000", "171629.281000", "171629.296000", "171629.296000", "171629.296000", "171629.296000", "171629.296000", "171629.296000", "171629.296000", "171629.312000", "171629.312000", "171629.312000", "171629.312000", "171629.312000", "171629.312000", "171629.312000", "171629.328000", "171629.328000", "171629.328000", "171629.328000", "171629.328000", "171629.328000", "171629.328000", "171629.343000", "171629.343000", "171629.343000", "171629.343000", "171629.343000", "171729.281000", "171729.281000", "171729.296000", "171729.296000", "171729.296000", "171729.296000", "171729.296000", "171729.296000", "171729.296000", "171729.312000", "171729.312000", "171729.312000", "171729.312000", "171729.312000", "171729.312000", "171729.312000", "171729.328000", "171729.328000", "171729.328000", "171729.328000", "171729.328000", "171729.328000", "171729.343000", "171729.343000", "171729.343000", "171729.343000", "171729.343000", "171729.343000", "171829.281000", "171829.281000", "171829.296000", "171829.296000", "171829.296000", "171829.296000", "171829.296000", "171829.296000", "171829.296000", "171829.312000", "171829.312000", "171829.312000", "171829.312000", "171829.312000", "171829.312000", "171829.312000", "171829.328000", "171829.328000", "171829.328000", "171829.328000", "171829.328000", "171829.328000", "171829.328000", "171829.343000", "171829.343000", "171829.343000", "171829.343000", "171829.343000", "171929.281000", "171929.281000", "171929.296000", "171929.296000", "171929.296000", "171929.312000", "171929.312000", "171929.312000", "171929.312000", "171929.312000", "171929.312000", "171929.312000", "171929.328000", "171929.328000", "171929.328000", "171929.328000", "171929.328000", "171929.328000", "171929.328000", "171929.343000", "171929.343000", "171929.343000", "171929.343000", "171929.343000", "171929.343000", "171929.343000", "171929.359000", "171929.359000", "172029.281000", "172029.281000", "172029.296000", "172029.296000", "172029.296000", "172029.296000", "172029.296000", "172029.296000", "172029.296000", "172029.312000", "172029.312000", "172029.312000", "172029.312000", "172029.312000", "172029.312000", "172029.328000", "172029.328000", "172029.328000", "172029.328000", "172029.328000", "172029.328000", "172029.328000", "172029.343000", "172029.343000", "172029.343000", "172029.343000", "172029.343000", "172029.343000", "172033.281000", "172033.296000", "172033.296000"],
      "DataSetTrailingPadding": [
