{
  "AcquisitionMatrixPE": 104,
  "AcquisitionNumber": 1,
  "AcquisitionTime": "16:37:30.792500",
  "BandwidthPerPixelPhaseEncode": 13.935,
  "BaseResolution": 104,
  "CoilString": "C:HEA;HEP",
  "ConversionSoftware": "dcm2niix",
  "ConversionSoftwareVersion": "v1.0.20210317",
  "DerivedVendorReportedEchoSpacing": 0.000690017,
  "DeviceSerialNumber": "35450",
  "DwellTime": 2.5e-06,
  "EchoTime": 0.0348,
  "EffectiveEchoSpacing": 0.000690017,
  "FlipAngle": 55,
  "ImageComments": "Unaliased MB8/PE3",
  "ImageOrientationPatientDICOM": [0.999777, 0.00176062, 0.0210307, 1.39433e-08, 0.996514, -0.0834255],
  "ImageType": [
    "ORIGINAL",
    "PRIMARY",
    "M",
    "MB",
    "ND",
    "MOSAIC"
],
  "ImagingFrequency": 123.234,
  "InPlanePhaseEncodingDirectionDICOM": "COL",
  "InstitutionAddress": "Univeristy Ave. 197,Newark,North East,US,07102-1814",
  "InstitutionName": "RUBIC",
  "InstitutionalDepartmentName": "Department",
  "MRAcquisitionType": "2D",
  "MagneticFieldStrength": 3,
  "Manufacturer": "Siemens",
  "ManufacturersModelName": "TrioTim",
  "Modality": "MR",
  "MultibandAccelerationFactor": 8,
  "PartialFourier": 0.875,
  "PatientPosition": "HFS",
  "PercentPhaseFOV": 100,
  "PercentSampling": 100,
  "PhaseEncodingDirection": "j-",
  "PhaseEncodingSteps": 91,
  "PhaseResolution": 1,
  "PixelBandwidth": 1923,
  "ProcedureStepDescription": "Cole^Michael",
  "ProtocolName": "cmrr_mbep2d_bold_2mm_MB8_Task_8x",
  "PulseSequenceDetails": "%CustomerSeq%\\cmrr_mbep2d_bold",
  "ReceiveCoilName": "32Ch_Head",
  "ReconMatrixPE": 104,
  "RepetitionTime": 0.785,
  "SAR": 0.13841,
  "ScanOptions": "PFP\\FS",
  "ScanningSequence": "EP",
  "SequenceName": "epfid2d1_104",
  "SequenceVariant": "SK\\SS",
  "SeriesDescription": "cmrr_mbep2d_bold_2mm_MB8_Task_8x",
  "SeriesNumber": 25,
  "ShimSetting": [2159, -336, -7299, 826, 166, -240, 90, -51],
  "SliceThickness": 2,
  "SliceTiming": [0, 0.4375, 0.0875, 0.525, 0.175, 0.6125, 0.2625, 0.7, 0.35, 0, 0.4375, 0.0875, 0.525, 0.175, 0.6125, 0.2625, 0.7, 0.35, 0, 0.4375, 0.0875, 0.525, 0.175, 0.6125, 0.2625, 0.7, 0.35, 0, 0.4375, 0.0875, 0.525, 0.175, 0.6125, 0.2625, 0.7, 0.35, 0, 0.4375, 0.0875, 0.525, 0.175, 0.6125, 0.2625, 0.7, 0.35, 0, 0.4375, 0.0875, 0.525, 0.175, 0.6125, 0.2625, 0.7, 0.35, 0, 0.4375, 0.0875, 0.525, 0.175, 0.6125, 0.2625, 0.7, 0.35, 0, 0.4375, 0.0875, 0.525, 0.175, 0.6125, 0.2625, 0.7, 0.35],
  "SoftwareVersions": "syngo MR B19",
  "SpacingBetweenSlices": 2,
  "StationName": "MRC35450",
  "TaskName": "cpro",
  "TotalReadoutTime": 0.0710717,
  "TxRefAmp": 327.821,
  "dcmmeta_affine": [
    [-1.9995545148849487, 2.7886626341455667e-08, 0.042208634316921234, 102.43126678466797],
    [-0.0035212470684200525, 1.9930280447006226, -0.16681377589702606, -77.25505828857422],
    [0.042061496526002884, 0.16685092449188232, 1.992584228515625, -107.58609771728516],
    [0.0, 0.0, 0.0, 1.0]
],
  "dcmmeta_reorient_transform": [
    [0.0, -1.0, 0.0, 103.0],
    [1.0, 0.0, 0.0, 0.0],
    [0.0, 0.0, 1.0, 0.0],
    [0.0, 0.0, 0.0, 1.0]
],
  "dcmmeta_shape": [104, 104, 72, 581],
  "dcmmeta_slice_dim": 2,
  "dcmmeta_version": 0.6,
  "global": {
    "const": {
      "AcquisitionMatrix": [104, 0, 0, 104],
      "AngioFlag": "N",
      "BitsAllocated": 16,
      "BitsStored": 12,
      "Columns": 936,
      "EchoNumbers": 1,
      "EchoTime": 34.8,
      "EchoTrainLength": 1,
      "FlipAngle": 55.0,
      "HighBit": 11,
      "ImageOrientationPatient": [0.99977727910647, 0.00176062353795, 0.02103074861289, 1.3943313e-08, 0.99651401987728, -0.0834254648654],
      "ImagePositionPatient": [-934.24597449055, -958.5913345472, -38.488049066617],
      "ImageType": [
        "ORIGINAL",
        "PRIMARY",
        "M",
        "MB",
        "ND",
        "MOSAIC"
],
      "ImagedNucleus": "1H",
      "ImagingFrequency": 123.234422,
      "InPlanePhaseEncodingDirection": "COL",
      "MRAcquisitionType": "2D",
      "MagneticFieldStrength": 3.0,
      "Manufacturer": "SIEMENS",
      "ManufacturerModelName": "TrioTim",
      "Modality": "MR",
      "NumberOfAverages": 1.0,
      "NumberOfPhaseEncodingSteps": 91,
      "PercentPhaseFieldOfView": 100.0,
      "PercentSampling": 100.0,
      "PerformedProcedureStepStartTime": "145545.781000",
      "PhotometricInterpretation": "MONOCHROME2",
      "PixelBandwidth": 1923.0,
      "PixelRepresentation": 0,
      "PixelSpacing": [2.0, 2.0],
      "ProtocolName": "cmrr_mbep2d_bold_2mm_MB8_Task_8x",
      "RepetitionTime": 785.0,
      "Rows": 936,
      "SAR": 0.13841048481297,
      "SamplesPerPixel": 1,
      "ScanOptions": [
        "PFP",
        "FS"
],
      "ScanningSequence": "EP",
      "SequenceName": "epfid2d1_104",
      "SequenceVariant": [
        "SK",
        "SS"
],
      "SeriesDescription": "cmrr_mbep2d_bold_2mm_MB8_Task_8x",
      "SeriesNumber": 25,
      "SeriesTime": "182341.921000",
      "SliceLocation": -98.581832165198,
      "SliceThickness": 2.0,
      "SmallestImagePixelValue": 0,
      "SoftwareVersions": "syngo MR B19",
      "SpacingBetweenSlices": 2.0000000251118,
      "SpecificCharacterSet": "ISO_IR 100",
      "StudyID": "1",
      "StudyTime": "145545.687000",
      "TransmitCoilName": "Body",
      "VariableFlipAngleFlag": "N",
      "WindowCenterWidthExplanation": "Algo1",
      "dBdt": 0.0},
    "slices": {}
  },
  "time": {
    "samples": {
      "AcquisitionNumber": [1, 2, 3, 4, 5, 6, 7, 8, 9, 10, 11, 12, 13, 14, 15, 16, 17, 18, 19, 20, 21, 22, 23, 24, 25, 26, 27, 28, 29, 30, 31, 32, 33, 34, 35, 36, 37, 38, 39, 40, 41, 42, 43, 44, 45, 46, 47, 48, 49, 50, 51, 52, 53, 54, 55, 56, 57, 58, 59, 60, 61, 62, 63, 64, 65, 66, 67, 68, 69, 70, 71, 72, 73, 74, 75, 76, 77, 78, 79, 80, 81, 82, 83, 84, 85, 86, 87, 88, 89, 90, 91, 92, 93, 94, 95, 96, 97, 98, 99, 100, 101, 102, 103, 104, 105, 106, 107, 108, 109, 110, 111, 112, 113, 114, 115, 116, 117, 118, 119, 120, 121, 122, 123, 124, 125, 126, 127, 128, 129, 130, 131, 132, 133, 134, 135, 136, 137, 138, 139, 140, 141, 142, 143, 144, 145, 146, 147, 148, 149, 150, 151, 152, 153, 154, 155, 156, 157, 158, 159, 160, 161, 162, 163, 164, 165, 166, 167, 168, 169, 170, 171, 172, 173, 174, 175, 176, 177, 178, 179, 180, 181, 182, 183, 184, 185, 186, 187, 188, 189, 190, 191, 192, 193, 194, 195, 196, 197, 198, 199, 200, 201, 202, 203, 204, 205, 206, 207, 208, 209, 210, 211, 212, 213, 214, 215, 216, 217, 218, 219, 220, 221, 222, 223, 224, 225, 226, 227, 228, 229, 230, 231, 232, 233, 234, 235, 236, 237, 238, 239, 240, 241, 242, 243, 244, 245, 246, 247, 248, 249, 250, 251, 252, 253, 254, 255, 256, 257, 258, 259, 260, 261, 262, 263, 264, 265, 266, 267, 268, 269, 270, 271, 272, 273, 274, 275, 276, 277, 278, 279, 280, 281, 282, 283, 284, 285, 286, 287, 288, 289, 290, 291, 292, 293, 294, 295, 296, 297, 298, 299, 300, 301, 302, 303, 304, 305, 306, 307, 308, 309, 310, 311, 312, 313, 314, 315, 316, 317, 318, 319, 320, 321, 322, 323, 324, 325, 326, 327, 328, 329, 330, 331, 332, 333, 334, 335, 336, 337, 338, 339, 340, 341, 342, 343, 344, 345, 346, 347, 348, 349, 350, 351, 352, 353, 354, 355, 356, 357, 358, 359, 360, 361, 362, 363, 364, 365, 366, 367, 368, 369, 370, 371, 372, 373, 374, 375, 376, 377, 378, 379, 380, 381, 382, 383, 384, 385, 386, 387, 388, 389, 390, 391, 392, 393, 394, 395, 396, 397, 398, 399, 400, 401, 402, 403, 404, 405, 406, 407, 408, 409, 410, 411, 412, 413, 414, 415, 416, 417, 418, 419, 420, 421, 422, 423, 424, 425, 426, 427, 428, 429, 430, 431, 432, 433, 434, 435, 436, 437, 438, 439, 440, 441, 442, 443, 444, 445, 446, 447, 448, 449, 450, 451, 452, 453, 454, 455, 456, 457, 458, 459, 460, 461, 462, 463, 464, 465, 466, 467, 468, 469, 470, 471, 472, 473, 474, 475, 476, 477, 478, 479, 480, 481, 482, 483, 484, 485, 486, 487, 488, 489, 490, 491, 492, 493, 494, 495, 496, 497, 498, 499, 500, 501, 502, 503, 504, 505, 506, 507, 508, 509, 510, 511, 512, 513, 514, 515, 516, 517, 518, 519, 520, 521, 522, 523, 524, 525, 526, 527, 528, 529, 530, 531, 532, 533, 534, 535, 536, 537, 538, 539, 540, 541, 542, 543, 544, 545, 546, 547, 548, 549, 550, 551, 552, 553, 554, 555, 556, 557, 558, 559, 560, 561, 562, 563, 564, 565, 566, 567, 568, 569, 570, 571, 572, 573, 574, 575, 576, 577, 578, 579, 580, 581],
      "AcquisitionTime": ["163730.792500", "163731.580000", "163732.367500", "163733.155000", "163733.945000", "163734.732500", "163735.520000", "163736.307500", "163737.097500", "163737.885000", "163738.672500", "163739.460000", "163740.250000", "163741.037500", "163741.825000", "163742.612500", "163743.402500", "163744.190000", "163744.977500", "163745.767500", "163746.555000", "163747.342500", "163748.130000", "163748.920000", "163749.707500", "163750.495000", "163751.282500", "163752.072500", "163752.860000", "163753.647500", "163754.435000", "163755.225000", "163756.012500", "163756.800000", "163757.587500", "163758.377500", "163759.165000", "163759.952500", "163800.740000", "163801.530000", "163802.317500", "163803.105000", "163803.895000", "163804.682500", "163805.470000", "163806.257500", "163807.047500", "163807.835000", "163808.622500", "163809.410000", "163810.200000", "163810.987500", "163811.775000", "163812.562500", "163813.352500", "163814.140000", "163814.927500", "163815.715000", "163816.505000", "163817.292500", "163818.080000", "163818.867500", "163819.657500", "163820.445000", "163821.232500", "163822.022500", "163822.810000", "163823.597500", "163824.385000", "163825.175000", "163825.962500", "163826.750000", "163827.537500", "163828.327500", "163829.115000", "163829.902500", "163830.690000", "163831.480000", "163832.267500", "163833.055000", "163833.842500", "163834.632500", "163835.420000", "163836.207500", "163836.995000", "163837.785000", "163838.572500", "163839.360000", "163840.150000", "163840.937500", "163841.725000", "163842.512500", "163843.302500", "163844.090000", "163844.877500", "163845.665000", "163846.455000", "163847.242500", "163848.030000", "163848.817500", "163849.607500", "163850.395000", "163851.182500", "163851.970000", "163852.760000", "163853.547500", "163854.335000", "163855.122500", "163855.912500", "163856.700000", "163857.487500", "163858.277500", "163859.065000", "163859.852500", "163900.640000", "163901.430000", "163902.217500", "163903.005000", "163903.792500", "163904.582500", "163905.370000", "163906.157500", "163906.945000", "163907.735000", "163908.522500", "163909.310000", "163910.097500", "163910.887500", "163911.675000", "163912.462500", "163913.252500", "163914.040000", "163914.827500", "163915.615000", "163916.405000", "163917.192500", "163917.980000", "163918.767500", "163919.557500", "163920.345000", "163921.132500", "163921.920000", "163922.710000", "163923.497500", "163924.285000", "163925.072500", "163925.862500", "163926.650000", "163927.437500", "163928.225000", "163929.015000", "163929.802500", "163930.590000", "163931.380000", "163932.167500", "163932.955000", "163933.742500", "163934.532500", "163935.320000", "163936.107500", "163936.895000", "163937.685000", "163938.472500", "163939.260000", "163940.047500", "163940.837500", "163941.625000", "163942.412500", "163943.200000", "163943.990000", "163944.777500", "163945.565000", "163946.352500", "163947.142500", "163947.930000", "163948.717500", "163949.507500", "163950.295000", "163951.082500", "163951.870000", "163952.660000", "163953.447500", "163954.235000", "163955.022500", "163955.812500", "163956.600000", "163957.387500", "163958.175000", "163958.965000", "163959.752500", "164000.540000", "164001.327500", "164002.117500", "164002.905000", "164003.692500", "164004.480000", "164005.270000", "164006.057500", "164006.845000", "164007.635000", "164008.422500", "164009.210000", "164009.997500", "164010.787500", "164011.575000", "164012.362500", "164013.150000", "164013.940000", "164014.727500", "164015.515000", "164016.302500", "164017.092500", "164017.880000", "164018.667500", "164019.455000", "164020.245000", "164021.032500", "164021.820000", "164022.607500", "164023.397500", "164024.185000", "164024.972500", "164025.762500", "164026.550000", "164027.337500", "164028.125000", "164028.915000", "164029.702500", "164030.490000", "164031.277500", "164032.067500", "164032.855000", "164033.642500", "164034.430000", "164035.220000", "164036.007500", "164036.795000", "164037.582500", "164038.372500", "164039.160000", "164039.947500", "164040.735000", "164041.525000", "164042.312500", "164043.100000", "164043.890000", "164044.677500", "164045.465000", "164046.252500", "164047.042500", "164047.830000", "164048.617500", "164049.405000", "164050.195000", "164050.982500", "164051.770000", "164052.557500", "164053.347500", "164054.135000", "164054.922500", "164055.710000", "164056.500000", "164057.287500", "164058.075000", "164058.862500", "164059.652500", "164100.440000", "164101.227500", "164102.017500", "164102.805000", "164103.592500", "164104.380000", "164105.170000", "164105.957500", "164106.745000", "164107.532500", "164108.322500", "164109.110000", "164109.897500", "164110.685000", "164111.475000", "164112.262500", "164113.050000", "164113.837500", "164114.627500", "164115.415000", "164116.202500", "164116.990000", "164117.780000", "164118.567500", "164119.355000", "164120.145000", "164120.932500", "164121.720000", "164122.507500", "164123.297500", "164124.085000", "164124.872500", "164125.660000", "164126.450000", "164127.237500", "164128.025000", "164128.812500", "164129.602500", "164130.390000", "164131.177500", "164131.965000", "164132.755000", "164133.542500", "164134.330000", "164135.117500", "164135.907500", "164136.695000", "164137.482500", "164138.272500", "164139.060000", "164139.847500", "164140.635000", "164141.425000", "164142.212500", "164143.000000", "164143.787500", "164144.577500", "164145.365000", "164146.152500", "164146.940000", "164147.730000", "164148.517500", "164149.305000", "164150.092500", "164150.882500", "164151.670000", "164152.457500", "164153.245000", "164154.035000", "164154.822500", "164155.610000", "164156.400000", "164157.187500", "164157.975000", "164158.762500", "164159.552500", "164200.340000", "164201.127500", "164201.915000", "164202.705000", "164203.492500", "164204.280000", "164205.067500", "164205.857500", "164206.645000", "164207.432500", "164208.220000", "164209.010000", "164209.797500", "164210.585000", "164211.372500", "164212.162500", "164212.950000", "164213.737500", "164214.527500", "164215.315000", "164216.102500", "164216.890000", "164217.680000", "164218.467500", "164219.255000", "164220.042500", "164220.832500", "164221.620000", "164222.407500", "164223.195000", "164223.985000", "164224.772500", "164225.560000", "164226.347500", "164227.137500", "164227.925000", "164228.712500", "164229.502500", "164230.290000", "164231.077500", "164231.865000", "164232.655000", "164233.442500", "164234.230000", "164235.017500", "164235.807500", "164236.595000", "164237.382500", "164238.170000", "164238.960000", "164239.747500", "164240.535000", "164241.322500", "164242.112500", "164242.900000", "164243.687500", "164244.475000", "164245.265000", "164246.052500", "164246.840000", "164247.630000", "164248.417500", "164249.205000", "164249.992500", "164250.782500", "164251.570000", "164252.357500", "164253.145000", "164253.935000", "164254.722500", "164255.510000", "164256.297500", "164257.087500", "164257.875000", "164258.662500", "164259.450000", "164300.240000", "164301.027500", "164301.815000", "164302.602500", "164303.392500", "164304.180000", "164304.967500", "164305.757500", "164306.545000", "164307.332500", "164308.120000", "164308.910000", "164309.697500", "164310.485000", "164311.272500", "164312.062500", "164312.850000", "164313.637500", "164314.425000", "164315.215000", "164316.002500", "164316.790000", "164317.577500", "164318.367500", "164319.155000", "164319.942500", "164320.730000", "164321.520000", "164322.307500", "164323.095000", "164323.885000", "164324.672500", "164325.460000", "164326.247500", "164327.037500", "164327.825000", "164328.612500", "164329.400000", "164330.190000", "164330.977500", "164331.765000", "164332.552500", "164333.342500", "164334.130000", "164334.917500", "164335.705000", "164336.495000", "164337.282500", "164338.070000", "164338.857500", "164339.647500", "164340.435000", "164341.222500", "164342.012500", "164342.800000", "164343.587500", "164344.375000", "164345.165000", "164345.952500", "164346.740000", "164347.527500", "164348.317500", "164349.105000", "164349.892500", "164350.680000", "164351.470000", "164352.257500", "164353.045000", "164353.832500", "164354.622500", "164355.410000", "164356.197500", "164356.985000", "164357.775000", "164358.562500", "164359.350000", "164400.140000", "164400.927500", "164401.715000", "164402.502500", "164403.292500", "164404.080000", "164404.867500", "164405.655000", "164406.445000", "164407.232500", "164408.020000", "164408.807500", "164409.597500", "164410.385000", "164411.172500", "164411.960000", "164412.750000", "164413.537500", "164414.325000", "164415.112500", "164415.902500", "164416.690000", "164417.477500", "164418.267500", "164419.055000", "164419.842500", "164420.630000", "164421.420000", "164422.207500", "164422.995000", "164423.782500", "164424.572500", "164425.360000", "164426.147500", "164426.935000", "164427.725000", "164428.512500", "164429.300000", "164430.087500", "164430.877500", "164431.665000", "164432.452500", "164433.240000", "164434.030000", "164434.817500", "164435.605000", "164436.395000", "164437.182500", "164437.970000", "164438.757500", "164439.547500", "164440.335000", "164441.122500", "164441.910000", "164442.700000", "164443.487500", "164444.275000", "164445.062500", "164445.852500", "164446.640000", "164447.427500", "164448.215000", "164449.005000", "164449.792500", "164450.580000", "164451.367500", "164452.157500", "164452.945000", "164453.732500", "164454.522500", "164455.310000", "164456.097500", "164456.885000", "164457.675000", "164458.462500", "164459.250000", "164500.037500", "164500.827500", "164501.615000", "164502.402500", "164503.190000", "164503.980000", "164504.767500", "164505.555000", "164506.342500", "164507.132500", "164507.920000"],
      "ContentTime": ["182341.921000", "182341.921000", "182341.921000", "182341.937000", "182341.937000", "182341.937000", "182341.937000", "182341.937000", "182441.890000", "182441.906000", "182441.906000", "182441.906000", "182441.906000", "182441.906000", "182441.906000", "182441.906000", "182441.906000", "182441.921000", "182441.921000", "182441.921000", "182441.921000", "182441.921000", "182441.921000", "182441.937000", "182441.937000", "182441.937000", "182441.937000", "182441.937000", "182441.937000", "182441.937000", "182441.937000", "182441.953000", "182441.953000", "182441.953000", "182441.953000", "182441.953000", "182541.890000", "182541.906000", "182541.906000", "182541.906000", "182541.906000", "182541.906000", "182541.906000", "182541.906000", "182541.921000", "182541.921000", "182541.921000", "182541.921000", "182541.921000", "182541.921000", "182541.921000", "182541.937000", "182541.937000", "182541.937000", "182541.937000", "182541.937000", "182541.953000", "182541.953000", "182541.953000", "182541.953000", "182541.953000", "182541.953000", "182541.953000", "182541.968000", "182641.890000", "182641.906000", "182641.906000", "182641.906000", "182641.906000", "182641.906000", "182641.906000", "182641.906000", "182641.921000", "182641.921000", "182641.921000", "182641.921000", "182641.921000", "182641.921000", "182641.921000", "182641.937000", "182641.937000", "182641.937000", "182641.937000", "182641.937000", "182641.937000", "182641.937000", "182641.953000", "182641.953000", "182641.953000", "182641.953000", "182641.953000", "182641.953000", "182641.953000", "182741.890000", "182741.906000", "182741.906000", "182741.906000", "182741.906000", "182741.906000", "182741.906000", "182741.906000", "182741.921000", "182741.921000", "182741.921000", "182741.921000", "182741.921000", "182741.921000", "182741.921000", "182741.937000", "182741.937000", "182741.937000", "182741.937000", "182741.937000", "182741.937000", "182741.937000", "182741.937000", "182741.953000", "182741.953000", "182741.953000", "182741.953000", "182741.953000", "182841.890000", "182841.906000", "182841.906000", "182841.906000", "182841.906000", "182841.906000", "182841.906000", "182841.906000", "182841.921000", "182841.921000", "182841.921000", "182841.921000", "182841.921000", "182841.921000", "182841.921000", "182841.937000", "182841.937000", "182841.937000", "182841.937000", "182841.937000", "182841.937000", "182841.953000", "182841.953000", "182841.953000", "182841.953000", "182841.953000", "182841.953000", "182841.953000", "182941.890000", "182941.906000", "182941.906000", "182941.906000", "182941.906000", "182941.906000", "182941.906000", "182941.906000", "182941.921000", "182941.921000", "182941.921000", "182941.921000", "182941.921000", "182941.937000", "182941.937000", "182941.937000", "182941.937000", "182941.937000", "182941.953000", "182941.953000", "182941.953000", "182941.953000", "182941.953000", "182941.953000", "182941.953000", "182941.968000", "182941.968000", "182941.968000", "183041.890000", "183041.906000", "183041.906000", "183041.906000", "183041.906000", "183041.906000", "183041.906000", "183041.906000", "183041.921000", "183041.921000", "183041.921000", "183041.921000", "183041.921000", "183041.921000", "183041.921000", "183041.937000", "183041.937000", "183041.937000", "183041.937000", "183041.937000", "183041.937000", "183041.937000", "183041.953000", "183041.953000", "183041.953000", "183041.953000", "183041.953000", "183041.953000", "183041.968000", "183141.890000", "183141.906000", "183141.906000", "183141.906000", "183141.906000", "183141.906000", "183141.906000", "183141.906000", "183141.921000", "183141.921000", "183141.921000", "183141.921000", "183141.921000", "183141.921000", "183141.921000", "183141.937000", "183141.937000", "183141.937000", "183141.953000", "183141.953000", "183141.953000", "183141.953000", "183141.953000", "183141.953000", "183141.953000", "183141.968000", "183141.968000", "183141.968000", "183241.890000", "183241.906000", "183241.906000", "183241.906000", "183241.906000", "183241.906000", "183241.906000", "183241.906000", "183241.921000", "183241.921000", "183241.921000", "183241.921000", "183241.921000", "183241.921000", "183241.921000", "183241.937000", "183241.937000", "183241.937000", "183241.937000", "183241.937000", "183241.937000", "183241.937000", "183241.953000", "183241.953000", "183241.953000", "183241.953000", "183241.953000", "183241.953000", "183341.890000", "183341.906000", "183341.906000", "183341.906000", "183341.906000", "183341.906000", "183341.906000", "183341.906000", "183341.921000", "183341.921000", "183341.921000", "183341.921000", "183341.921000", "183341.921000", "183341.921000", "183341.937000", "183341.937000", "183341.937000", "183341.937000", "183341.937000", "183341.937000", "183341.953000", "183341.953000", "183341.953000", "183341.953000", "183341.953000", "183341.953000", "183341.953000", "183441.890000", "183441.906000", "183441.906000", "183441.906000", "183441.906000", "183441.906000", "183441.906000", "183441.906000", "183441.921000", "183441.921000", "183441.921000", "183441.921000", "183441.921000", "183441.921000", "183441.921000", "183441.937000", "183441.937000", "183441.937000", "183441.937000", "183441.937000", "183441.937000", "183441.937000", "183441.953000", "183441.953000", "183441.953000", "183441.953000", "183441.953000", "183441.953000", "183441.968000", "183541.890000", "183541.906000", "183541.906000", "183541.906000", "183541.906000", "183541.906000", "183541.906000", "183541.906000", "183541.921000", "183541.921000", "183541.921000", "183541.921000", "183541.937000", "183541.937000", "183541.937000", "183541.937000", "183541.937000", "183541.937000", "183541.937000", "183541.953000", "183541.953000", "183541.953000", "183541.953000", "183541.953000", "183541.953000", "183541.953000", "183541.968000", "183541.968000", "183641.890000", "183641.906000", "183641.906000", "183641.906000", "183641.906000", "183641.906000", "183641.906000", "183641.906000", "183641.921000", "183641.921000", "183641.921000", "183641.921000", "183641.921000", "183641.921000", "183641.921000", "183641.937000", "183641.937000", "183641.937000", "183641.937000", "183641.937000", "183641.937000", "183641.937000", "183641.953000", "183641.953000", "183641.953000", "183641.953000", "183641.953000", "183641.953000", "183741.890000", "183741.906000", "183741.906000", "183741.906000", "183741.906000", "183741.906000", "183741.906000", "183741.906000", "183741.921000", "183741.921000", "183741.921000", "183741.921000", "183741.921000", "183741.921000", "183741.921000", "183741.937000", "183741.937000", "183741.937000", "183741.937000", "183741.937000", "183741.937000", "183741.937000", "183741.953000", "183741.953000", "183741.953000", "183741.953000", "183741.953000", "183741.953000", "183741.953000", "183841.890000", "183841.906000", "183841.906000", "183841.906000", "183841.906000", "183841.906000", "183841.906000", "183841.906000", "183841.921000", "183841.921000", "183841.921000", "183841.921000", "183841.921000", "183841.921000", "183841.921000", "183841.937000", "183841.937000", "183841.937000", "183841.937000", "183841.937000", "183841.937000", "183841.937000", "183841.953000", "183841.953000", "183841.953000", "183841.953000", "183841.953000", "183841.953000", "183941.890000", "183941.906000", "183941.906000", "183941.906000", "183941.906000", "183941.906000", "183941.906000", "183941.906000", "183941.921000", "183941.921000", "183941.921000", "183941.921000", "183941.921000", "183941.921000", "183941.921000", "183941.937000", "183941.937000", "183941.937000", "183941.937000", "183941.937000", "183941.937000", "183941.937000", "183941.953000", "183941.953000", "183941.953000", "183941.953000", "183941.953000", "183941.953000", "184041.890000", "184041.906000", "184041.906000", "184041.906000", "184041.906000", "184041.906000", "184041.906000", "184041.906000", "184041.921000", "184041.921000", "184041.921000", "184041.921000", "184041.921000", "184041.921000", "184041.921000", "184041.937000", "184041.937000", "184041.937000", "184041.937000", "184041.937000", "184041.937000", "184041.937000", "184041.953000", "184041.953000", "184041.953000", "184041.953000", "184041.953000", "184041.968000", "184141.890000", "184141.906000", "184141.906000", "184141.906000", "184141.906000", "184141.906000", "184141.906000", "184141.906000", "184141.921000", "184141.921000", "184141.921000", "184141.921000", "184141.921000", "184141.921000", "184141.921000", "184141.937000", "184141.937000", "184141.937000", "184141.937000", "184141.937000", "184141.937000", "184141.937000", "184141.953000", "184141.953000", "184141.953000", "184141.953000", "184141.953000", "184141.953000", "184141.953000", "184241.890000", "184241.906000", "184241.906000", "184241.906000", "184241.906000", "184241.906000", "184241.906000", "184241.906000", "184241.921000", "184241.921000", "184241.921000", "184241.921000", "184241.921000", "184241.921000", "184241.921000", "184241.937000", "184241.937000", "184241.937000", "184241.937000", "184241.937000", "184241.937000", "184241.937000", "184241.953000", "184241.953000", "184241.953000", "184241.953000", "184241.953000", "184241.953000", "184341.890000", "184341.906000", "184341.906000", "184341.906000", "184341.906000", "184341.906000", "184341.906000", "184341.906000", "184341.921000", "184341.921000", "184341.921000", "184341.921000", "184341.921000", "184341.921000", "184341.921000", "184341.937000", "184341.937000", "184341.937000", "184341.937000", "184341.937000", "184341.937000", "184341.937000", "184341.953000", "184341.953000", "184341.953000", "184341.953000", "184341.953000", "184341.953000", "184357.078000", "184357.078000", "184357.078000", "184357.078000", "184357.078000", "184357.093000", "184357.093000", "184357.093000"],
      "DataSetTrailingPadding": [
