{
  "AcquisitionMatrixPE": 104,
  "AcquisitionNumber": 1,
  "AcquisitionTime": "16:45:41.707500",
  "BandwidthPerPixelPhaseEncode": 13.935,
  "BaseResolution": 104,
  "CoilString": "C:HEA;HEP",
  "ConversionSoftware": "dcm2niix",
  "ConversionSoftwareVersion": "v1.0.20210317",
  "DerivedVendorReportedEchoSpacing": 0.000690017,
  "DeviceSerialNumber": "35450",
  "DwellTime": 2.5e-06,
  "EchoTime": 0.0348,
  "EffectiveEchoSpacing": 0.000690017,
  "FlipAngle": 55,
  "ImageComments": "Unaliased MB8/PE3",
  "ImageOrientationPatientDICOM": [0.999777, 0.00176062, 0.0210307, 1.39433e-08, 0.996514, -0.0834255],
  "ImageType": [
    "ORIGINAL",
    "PRIMARY",
    "M",
    "MB",
    "ND",
    "MOSAIC"
],
  "ImagingFrequency": 123.234,
  "InPlanePhaseEncodingDirectionDICOM": "COL",
  "InstitutionAddress": "Univeristy Ave. 197,Newark,North East,US,07102-1814",
  "InstitutionName": "RUBIC",
  "InstitutionalDepartmentName": "Department",
  "MRAcquisitionType": "2D",
  "MagneticFieldStrength": 3,
  "Manufacturer": "Siemens",
  "ManufacturersModelName": "TrioTim",
  "Modality": "MR",
  "MultibandAccelerationFactor": 8,
  "PartialFourier": 0.875,
  "PatientPosition": "HFS",
  "PercentPhaseFOV": 100,
  "PercentSampling": 100,
  "PhaseEncodingDirection": "j-",
  "PhaseEncodingSteps": 91,
  "PhaseResolution": 1,
  "PixelBandwidth": 1923,
  "ProcedureStepDescription": "Cole^Michael",
  "ProtocolName": "cmrr_mbep2d_bold_2mm_MB8_Task_8x",
  "PulseSequenceDetails": "%CustomerSeq%\\cmrr_mbep2d_bold",
  "ReceiveCoilName": "32Ch_Head",
  "ReconMatrixPE": 104,
  "RepetitionTime": 0.785,
  "SAR": 0.13841,
  "ScanOptions": "PFP\\FS",
  "ScanningSequence": "EP",
  "SequenceName": "epfid2d1_104",
  "SequenceVariant": "SK\\SS",
  "SeriesDescription": "cmrr_mbep2d_bold_2mm_MB8_Task_8x",
  "SeriesNumber": 27,
  "ShimSetting": [2159, -336, -7299, 826, 166, -240, 90, -51],
  "SliceThickness": 2,
  "SliceTiming": [0, 0.44, 0.0875, 0.5275, 0.1775, 0.615, 0.265, 0.7025, 0.3525, 0, 0.44, 0.0875, 0.5275, 0.1775, 0.615, 0.265, 0.7025, 0.3525, 0, 0.44, 0.0875, 0.5275, 0.1775, 0.615, 0.265, 0.7025, 0.3525, 0, 0.44, 0.0875, 0.5275, 0.1775, 0.615, 0.265, 0.7025, 0.3525, 0, 0.44, 0.0875, 0.5275, 0.1775, 0.615, 0.265, 0.7025, 0.3525, 0, 0.44, 0.0875, 0.5275, 0.1775, 0.615, 0.265, 0.7025, 0.3525, 0, 0.44, 0.0875, 0.5275, 0.1775, 0.615, 0.265, 0.7025, 0.3525, 0, 0.44, 0.0875, 0.5275, 0.1775, 0.615, 0.265, 0.7025, 0.3525],
  "SoftwareVersions": "syngo MR B19",
  "SpacingBetweenSlices": 2,
  "StationName": "MRC35450",
  "TaskName": "cpro",
  "TotalReadoutTime": 0.0710717,
  "TxRefAmp": 327.821,
  "dcmmeta_affine": [
    [-1.9995545148849487, 2.7886626341455667e-08, 0.042208634316921234, 102.43126678466797],
    [-0.0035212470684200525, 1.9930280447006226, -0.16681377589702606, -77.25505828857422],
    [0.042061496526002884, 0.16685092449188232, 1.992584228515625, -107.58609771728516],
    [0.0, 0.0, 0.0, 1.0]
],
  "dcmmeta_reorient_transform": [
    [0.0, -1.0, 0.0, 103.0],
    [1.0, 0.0, 0.0, 0.0],
    [0.0, 0.0, 1.0, 0.0],
    [0.0, 0.0, 0.0, 1.0]
],
  "dcmmeta_shape": [104, 104, 72, 581],
  "dcmmeta_slice_dim": 2,
  "dcmmeta_version": 0.6,
  "global": {
    "const": {
      "AcquisitionMatrix": [104, 0, 0, 104],
      "AngioFlag": "N",
      "BitsAllocated": 16,
      "BitsStored": 12,
      "Columns": 936,
      "EchoNumbers": 1,
      "EchoTime": 34.8,
      "EchoTrainLength": 1,
      "FlipAngle": 55.0,
      "HighBit": 11,
      "ImageOrientationPatient": [0.99977727910647, 0.00176062353795, 0.02103074861289, 1.3943313e-08, 0.99651401987728, -0.0834254648654],
      "ImagePositionPatient": [-934.24597449055, -958.5913345472, -38.488049066617],
      "ImageType": [
        "ORIGINAL",
        "PRIMARY",
        "M",
        "MB",
        "ND",
        "MOSAIC"
],
      "ImagedNucleus": "1H",
      "ImagingFrequency": 123.234422,
      "InPlanePhaseEncodingDirection": "COL",
      "MRAcquisitionType": "2D",
      "MagneticFieldStrength": 3.0,
      "Manufacturer": "SIEMENS",
      "ManufacturerModelName": "TrioTim",
      "Modality": "MR",
      "NumberOfAverages": 1.0,
      "NumberOfPhaseEncodingSteps": 91,
      "PercentPhaseFieldOfView": 100.0,
      "PercentSampling": 100.0,
      "PerformedProcedureStepStartTime": "145545.781000",
      "PhotometricInterpretation": "MONOCHROME2",
      "PixelBandwidth": 1923.0,
      "PixelRepresentation": 0,
      "PixelSpacing": [2.0, 2.0],
      "ProtocolName": "cmrr_mbep2d_bold_2mm_MB8_Task_8x",
      "RepetitionTime": 785.0,
      "Rows": 936,
      "SAR": 0.13841048481297,
      "SamplesPerPixel": 1,
      "ScanOptions": [
        "PFP",
        "FS"
],
      "ScanningSequence": "EP",
      "SequenceName": "epfid2d1_104",
      "SequenceVariant": [
        "SK",
        "SS"
],
      "SeriesDescription": "cmrr_mbep2d_bold_2mm_MB8_Task_8x",
      "SeriesNumber": 27,
      "SeriesTime": "184432.953000",
      "SliceLocation": -98.581832165198,
      "SliceThickness": 2.0,
      "SmallestImagePixelValue": 0,
      "SoftwareVersions": "syngo MR B19",
      "SpacingBetweenSlices": 2.0000000251118,
      "SpecificCharacterSet": "ISO_IR 100",
      "StudyID": "1",
      "StudyTime": "145545.687000",
      "TransmitCoilName": "Body",
      "VariableFlipAngleFlag": "N",
      "WindowCenterWidthExplanation": "Algo1",
      "dBdt": 0.0},
    "slices": {}
  },
  "time": {
    "samples": {
      "AcquisitionNumber": [1, 2, 3, 4, 5, 6, 7, 8, 9, 10, 11, 12, 13, 14, 15, 16, 17, 18, 19, 20, 21, 22, 23, 24, 25, 26, 27, 28, 29, 30, 31, 32, 33, 34, 35, 36, 37, 38, 39, 40, 41, 42, 43, 44, 45, 46, 47, 48, 49, 50, 51, 52, 53, 54, 55, 56, 57, 58, 59, 60, 61, 62, 63, 64, 65, 66, 67, 68, 69, 70, 71, 72, 73, 74, 75, 76, 77, 78, 79, 80, 81, 82, 83, 84, 85, 86, 87, 88, 89, 90, 91, 92, 93, 94, 95, 96, 97, 98, 99, 100, 101, 102, 103, 104, 105, 106, 107, 108, 109, 110, 111, 112, 113, 114, 115, 116, 117, 118, 119, 120, 121, 122, 123, 124, 125, 126, 127, 128, 129, 130, 131, 132, 133, 134, 135, 136, 137, 138, 139, 140, 141, 142, 143, 144, 145, 146, 147, 148, 149, 150, 151, 152, 153, 154, 155, 156, 157, 158, 159, 160, 161, 162, 163, 164, 165, 166, 167, 168, 169, 170, 171, 172, 173, 174, 175, 176, 177, 178, 179, 180, 181, 182, 183, 184, 185, 186, 187, 188, 189, 190, 191, 192, 193, 194, 195, 196, 197, 198, 199, 200, 201, 202, 203, 204, 205, 206, 207, 208, 209, 210, 211, 212, 213, 214, 215, 216, 217, 218, 219, 220, 221, 222, 223, 224, 225, 226, 227, 228, 229, 230, 231, 232, 233, 234, 235, 236, 237, 238, 239, 240, 241, 242, 243, 244, 245, 246, 247, 248, 249, 250, 251, 252, 253, 254, 255, 256, 257, 258, 259, 260, 261, 262, 263, 264, 265, 266, 267, 268, 269, 270, 271, 272, 273, 274, 275, 276, 277, 278, 279, 280, 281, 282, 283, 284, 285, 286, 287, 288, 289, 290, 291, 292, 293, 294, 295, 296, 297, 298, 299, 300, 301, 302, 303, 304, 305, 306, 307, 308, 309, 310, 311, 312, 313, 314, 315, 316, 317, 318, 319, 320, 321, 322, 323, 324, 325, 326, 327, 328, 329, 330, 331, 332, 333, 334, 335, 336, 337, 338, 339, 340, 341, 342, 343, 344, 345, 346, 347, 348, 349, 350, 351, 352, 353, 354, 355, 356, 357, 358, 359, 360, 361, 362, 363, 364, 365, 366, 367, 368, 369, 370, 371, 372, 373, 374, 375, 376, 377, 378, 379, 380, 381, 382, 383, 384, 385, 386, 387, 388, 389, 390, 391, 392, 393, 394, 395, 396, 397, 398, 399, 400, 401, 402, 403, 404, 405, 406, 407, 408, 409, 410, 411, 412, 413, 414, 415, 416, 417, 418, 419, 420, 421, 422, 423, 424, 425, 426, 427, 428, 429, 430, 431, 432, 433, 434, 435, 436, 437, 438, 439, 440, 441, 442, 443, 444, 445, 446, 447, 448, 449, 450, 451, 452, 453, 454, 455, 456, 457, 458, 459, 460, 461, 462, 463, 464, 465, 466, 467, 468, 469, 470, 471, 472, 473, 474, 475, 476, 477, 478, 479, 480, 481, 482, 483, 484, 485, 486, 487, 488, 489, 490, 491, 492, 493, 494, 495, 496, 497, 498, 499, 500, 501, 502, 503, 504, 505, 506, 507, 508, 509, 510, 511, 512, 513, 514, 515, 516, 517, 518, 519, 520, 521, 522, 523, 524, 525, 526, 527, 528, 529, 530, 531, 532, 533, 534, 535, 536, 537, 538, 539, 540, 541, 542, 543, 544, 545, 546, 547, 548, 549, 550, 551, 552, 553, 554, 555, 556, 557, 558, 559, 560, 561, 562, 563, 564, 565, 566, 567, 568, 569, 570, 571, 572, 573, 574, 575, 576, 577, 578, 579, 580, 581],
      "AcquisitionTime": ["164541.707500", "164542.497500", "164543.285000", "164544.072500", "164544.862500", "164545.650000", "164546.437500", "164547.225000", "164548.015000", "164548.802500", "164549.590000", "164550.377500", "164551.167500", "164551.955000", "164552.742500", "164553.530000", "164554.320000", "164555.107500", "164555.895000", "164556.682500", "164557.472500", "164558.260000", "164559.047500", "164559.835000", "164600.625000", "164601.412500", "164602.200000", "164602.990000", "164603.777500", "164604.565000", "164605.352500", "164606.142500", "164606.930000", "164607.717500", "164608.505000", "164609.295000", "164610.082500", "164610.870000", "164611.657500", "164612.447500", "164613.235000", "164614.022500", "164614.810000", "164615.600000", "164616.387500", "164617.175000", "164617.962500", "164618.752500", "164619.540000", "164620.327500", "164621.117500", "164621.905000", "164622.692500", "164623.480000", "164624.270000", "164625.057500", "164625.845000", "164626.632500", "164627.422500", "164628.210000", "164628.997500", "164629.785000", "164630.575000", "164631.362500", "164632.150000", "164632.937500", "164633.727500", "164634.515000", "164635.302500", "164636.090000", "164636.880000", "164637.667500", "164638.455000", "164639.245000", "164640.032500", "164640.820000", "164641.607500", "164642.397500", "164643.185000", "164643.972500", "164644.760000", "164645.550000", "164646.337500", "164647.125000", "164647.912500", "164648.702500", "164649.490000", "164650.277500", "164651.065000", "164651.855000", "164652.642500", "164653.430000", "164654.217500", "164655.007500", "164655.795000", "164656.582500", "164657.372500", "164658.160000", "164658.947500", "164659.735000", "164700.525000", "164701.312500", "164702.100000", "164702.887500", "164703.677500", "164704.465000", "164705.252500", "164706.040000", "164706.830000", "164707.617500", "164708.405000", "164709.192500", "164709.982500", "164710.770000", "164711.557500", "164712.345000", "164713.135000", "164713.922500", "164714.710000", "164715.500000", "164716.287500", "164717.075000", "164717.862500", "164718.652500", "164719.440000", "164720.227500", "164721.015000", "164721.805000", "164722.592500", "164723.380000", "164724.167500", "164724.957500", "164725.745000", "164726.532500", "164727.320000", "164728.110000", "164728.897500", "164729.685000", "164730.475000", "164731.262500", "164732.050000", "164732.837500", "164733.627500", "164734.415000", "164735.202500", "164735.990000", "164736.780000", "164737.567500", "164738.355000", "164739.142500", "164739.932500", "164740.720000", "164741.507500", "164742.295000", "164743.085000", "164743.872500", "164744.660000", "164745.447500", "164746.237500", "164747.025000", "164747.812500", "164748.602500", "164749.390000", "164750.177500", "164750.965000", "164751.755000", "164752.542500", "164753.330000", "164754.117500", "164754.907500", "164755.695000", "164756.482500", "164757.270000", "164758.060000", "164758.847500", "164759.635000", "164800.422500", "164801.212500", "164802.000000", "164802.787500", "164803.575000", "164804.365000", "164805.152500", "164805.940000", "164806.730000", "164807.517500", "164808.305000", "164809.092500", "164809.882500", "164810.670000", "164811.457500", "164812.245000", "164813.035000", "164813.822500", "164814.610000", "164815.397500", "164816.187500", "164816.975000", "164817.762500", "164818.550000", "164819.340000", "164820.127500", "164820.915000", "164821.702500", "164822.492500", "164823.280000", "164824.067500", "164824.857500", "164825.645000", "164826.432500", "164827.220000", "164828.010000", "164828.797500", "164829.585000", "164830.372500", "164831.162500", "164831.950000", "164832.737500", "164833.525000", "164834.315000", "164835.102500", "164835.890000", "164836.677500", "164837.467500", "164838.255000", "164839.042500", "164839.830000", "164840.620000", "164841.407500", "164842.195000", "164842.985000", "164843.772500", "164844.560000", "164845.347500", "164846.137500", "164846.925000", "164847.712500", "164848.500000", "164849.290000", "164850.077500", "164850.865000", "164851.652500", "164852.442500", "164853.230000", "164854.017500", "164854.805000", "164855.595000", "164856.382500", "164857.170000", "164857.957500", "164858.747500", "164859.535000", "164900.322500", "164901.112500", "164901.900000", "164902.687500", "164903.475000", "164904.265000", "164905.052500", "164905.840000", "164906.627500", "164907.417500", "164908.205000", "164908.992500", "164909.780000", "164910.570000", "164911.357500", "164912.145000", "164912.932500", "164913.722500", "164914.510000", "164915.297500", "164916.085000", "164916.875000", "164917.662500", "164918.450000", "164919.240000", "164920.027500", "164920.815000", "164921.602500", "164922.392500", "164923.180000", "164923.967500", "164924.755000", "164925.545000", "164926.332500", "164927.120000", "164927.907500", "164928.697500", "164929.485000", "164930.272500", "164931.060000", "164931.850000", "164932.637500", "164933.425000", "164934.212500", "164935.002500", "164935.790000", "164936.577500", "164937.367500", "164938.155000", "164938.942500", "164939.730000", "164940.520000", "164941.307500", "164942.095000", "164942.882500", "164943.672500", "164944.460000", "164945.247500", "164946.035000", "164946.825000", "164947.612500", "164948.400000", "164949.187500", "164949.977500", "164950.765000", "164951.552500", "164952.340000", "164953.130000", "164953.917500", "164954.705000", "164955.495000", "164956.282500", "164957.070000", "164957.857500", "164958.647500", "164959.435000", "165000.222500", "165001.010000", "165001.800000", "165002.587500", "165003.375000", "165004.162500", "165004.952500", "165005.740000", "165006.527500", "165007.315000", "165008.105000", "165008.892500", "165009.680000", "165010.467500", "165011.257500", "165012.045000", "165012.832500", "165013.622500", "165014.410000", "165015.197500", "165015.985000", "165016.775000", "165017.562500", "165018.350000", "165019.137500", "165019.927500", "165020.715000", "165021.502500", "165022.290000", "165023.080000", "165023.867500", "165024.655000", "165025.442500", "165026.232500", "165027.020000", "165027.807500", "165028.595000", "165029.385000", "165030.172500", "165030.960000", "165031.750000", "165032.537500", "165033.325000", "165034.112500", "165034.902500", "165035.690000", "165036.477500", "165037.265000", "165038.055000", "165038.842500", "165039.630000", "165040.417500", "165041.207500", "165041.995000", "165042.782500", "165043.570000", "165044.360000", "165045.147500", "165045.935000", "165046.725000", "165047.512500", "165048.300000", "165049.087500", "165049.877500", "165050.665000", "165051.452500", "165052.240000", "165053.030000", "165053.817500", "165054.605000", "165055.392500", "165056.182500", "165056.970000", "165057.757500", "165058.545000", "165059.335000", "165100.122500", "165100.910000", "165101.697500", "165102.487500", "165103.275000", "165104.062500", "165104.852500", "165105.640000", "165106.427500", "165107.215000", "165108.005000", "165108.792500", "165109.580000", "165110.367500", "165111.157500", "165111.945000", "165112.732500", "165113.520000", "165114.310000", "165115.097500", "165115.885000", "165116.672500", "165117.462500", "165118.250000", "165119.037500", "165119.825000", "165120.615000", "165121.402500", "165122.190000", "165122.980000", "165123.767500", "165124.555000", "165125.342500", "165126.132500", "165126.920000", "165127.707500", "165128.495000", "165129.285000", "165130.072500", "165130.860000", "165131.647500", "165132.437500", "165133.225000", "165134.012500", "165134.800000", "165135.590000", "165136.377500", "165137.165000", "165137.952500", "165138.742500", "165139.530000", "165140.317500", "165141.107500", "165141.895000", "165142.682500", "165143.470000", "165144.260000", "165145.047500", "165145.835000", "165146.622500", "165147.412500", "165148.200000", "165148.987500", "165149.775000", "165150.565000", "165151.352500", "165152.140000", "165152.927500", "165153.717500", "165154.505000", "165155.292500", "165156.080000", "165156.870000", "165157.657500", "165158.445000", "165159.235000", "165200.022500", "165200.810000", "165201.597500", "165202.387500", "165203.175000", "165203.962500", "165204.750000", "165205.540000", "165206.327500", "165207.115000", "165207.902500", "165208.692500", "165209.480000", "165210.267500", "165211.055000", "165211.845000", "165212.632500", "165213.420000", "165214.207500", "165214.997500", "165215.785000", "165216.572500", "165217.362500", "165218.150000", "165218.937500", "165219.725000", "165220.515000", "165221.302500", "165222.090000", "165222.877500", "165223.667500", "165224.455000", "165225.242500", "165226.030000", "165226.820000", "165227.607500", "165228.395000", "165229.182500", "165229.972500", "165230.760000", "165231.547500", "165232.335000", "165233.125000", "165233.912500", "165234.700000", "165235.490000", "165236.277500", "165237.065000", "165237.852500", "165238.642500", "165239.430000", "165240.217500", "165241.005000", "165241.795000", "165242.582500", "165243.370000", "165244.157500", "165244.947500", "165245.735000", "165246.522500", "165247.310000", "165248.100000", "165248.887500", "165249.675000", "165250.462500", "165251.252500", "165252.040000", "165252.827500", "165253.617500", "165254.405000", "165255.192500", "165255.980000", "165256.770000", "165257.557500", "165258.345000", "165259.132500", "165259.922500", "165300.710000", "165301.497500", "165302.285000", "165303.075000", "165303.862500", "165304.650000", "165305.437500", "165306.227500", "165307.015000", "165307.802500", "165308.590000", "165309.380000", "165310.167500", "165310.955000", "165311.745000", "165312.532500", "165313.320000", "165314.107500", "165314.897500", "165315.685000", "165316.472500", "165317.260000", "165318.050000", "165318.837500"],
      "ContentTime": ["184432.953000", "184432.953000", "184432.953000", "184432.953000", "184432.968000", "184432.968000", "184432.968000", "184432.968000", "184432.968000", "184532.921000", "184532.937000", "184532.937000", "184532.937000", "184532.937000", "184532.937000", "184532.937000", "184532.937000", "184532.937000", "184532.953000", "184532.953000", "184532.953000", "184532.953000", "184532.953000", "184532.953000", "184532.953000", "184532.968000", "184532.968000", "184532.968000", "184532.968000", "184532.968000", "184532.968000", "184532.984000", "184532.984000", "184532.984000", "184532.984000", "184532.984000", "184532.984000", "184632.921000", "184632.937000", "184632.937000", "184632.937000", "184632.937000", "184632.937000", "184632.937000", "184632.953000", "184632.953000", "184632.953000", "184632.953000", "184632.953000", "184632.968000", "184632.968000", "184632.968000", "184632.968000", "184632.968000", "184632.968000", "184632.968000", "184632.984000", "184632.984000", "184632.984000", "184632.984000", "184632.984000", "184632.984000", "184632.984000", "184632.984000", "184633.000000", "184712.921000", "184712.937000", "184712.937000", "184712.937000", "184712.937000", "184712.937000", "184712.937000", "184712.937000", "184712.953000", "184712.953000", "184712.953000", "184712.953000", "184712.953000", "184712.953000", "184712.953000", "184712.968000", "184712.968000", "184712.968000", "184712.968000", "184812.921000", "184812.937000", "184812.937000", "184812.937000", "184812.937000", "184812.937000", "184812.937000", "184812.937000", "184812.953000", "184812.953000", "184812.953000", "184812.953000", "184812.953000", "184812.953000", "184812.953000", "184812.968000", "184812.968000", "184812.968000", "184812.968000", "184812.968000", "184812.968000", "184812.968000", "184812.968000", "184812.984000", "184812.984000", "184812.984000", "184812.984000", "184812.984000", "184912.921000", "184912.937000", "184912.937000", "184912.937000", "184912.937000", "184912.937000", "184912.937000", "184912.937000", "184912.937000", "184912.953000", "184912.953000", "184912.953000", "184912.953000", "184912.953000", "184912.953000", "184912.953000", "184912.968000", "184912.968000", "184912.968000", "184912.968000", "184912.968000", "184912.968000", "184912.968000", "184912.984000", "184912.984000", "184912.984000", "184912.984000", "184912.984000", "184912.984000", "185012.921000", "185012.937000", "185012.937000", "185012.937000", "185012.937000", "185012.937000", "185012.937000", "185012.937000", "185012.953000", "185012.953000", "185012.953000", "185012.953000", "185012.953000", "185012.953000", "185012.953000", "185012.968000", "185012.968000", "185012.968000", "185012.968000", "185012.968000", "185012.968000", "185012.968000", "185012.984000", "185012.984000", "185012.984000", "185012.984000", "185012.984000", "185012.984000", "185112.921000", "185112.937000", "185112.937000", "185112.937000", "185112.937000", "185112.937000", "185112.937000", "185112.937000", "185112.953000", "185112.953000", "185112.953000", "185112.953000", "185112.953000", "185112.968000", "185112.968000", "185112.968000", "185112.968000", "185112.968000", "185112.968000", "185112.968000", "185112.968000", "185112.984000", "185112.984000", "185112.984000", "185112.984000", "185112.984000", "185112.984000", "185112.984000", "185212.921000", "185212.937000", "185212.937000", "185212.937000", "185212.937000", "185212.937000", "185212.937000", "185212.937000", "185212.953000", "185212.953000", "185212.953000", "185212.953000", "185212.953000", "185212.953000", "185212.968000", "185212.968000", "185212.968000", "185212.968000", "185212.968000", "185212.968000", "185212.968000", "185212.984000", "185212.984000", "185212.984000", "185212.984000", "185212.984000", "185213.000000", "185213.000000", "185312.921000", "185312.937000", "185312.937000", "185312.937000", "185312.937000", "185312.937000", "185312.937000", "185312.937000", "185312.953000", "185312.953000", "185312.953000", "185312.953000", "185312.953000", "185312.953000", "185312.953000", "185312.968000", "185312.968000", "185312.968000", "185312.968000", "185312.968000", "185312.968000", "185312.968000", "185312.968000", "185312.984000", "185312.984000", "185312.984000", "185312.984000", "185312.984000", "185412.921000", "185412.937000", "185412.937000", "185412.937000", "185412.937000", "185412.937000", "185412.937000", "185412.937000", "185412.953000", "185412.953000", "185412.953000", "185412.953000", "185412.953000", "185412.953000", "185412.953000", "185412.968000", "185412.968000", "185412.968000", "185412.968000", "185412.968000", "185412.968000", "185412.968000", "185412.984000", "185412.984000", "185412.984000", "185412.984000", "185412.984000", "185412.984000", "185412.984000", "185512.921000", "185512.937000", "185512.937000", "185512.937000", "185512.937000", "185512.937000", "185512.937000", "185512.937000", "185512.953000", "185512.953000", "185512.953000", "185512.953000", "185512.953000", "185512.953000", "185512.953000", "185512.968000", "185512.968000", "185512.968000", "185512.968000", "185512.968000", "185512.968000", "185512.968000", "185512.984000", "185512.984000", "185512.984000", "185512.984000", "185512.984000", "185512.984000", "185612.921000", "185612.937000", "185612.937000", "185612.937000", "185612.937000", "185612.937000", "185612.937000", "185612.937000", "185612.953000", "185612.953000", "185612.953000", "185612.953000", "185612.953000", "185612.953000", "185612.953000", "185612.968000", "185612.968000", "185612.968000", "185612.968000", "185612.968000", "185612.968000", "185612.968000", "185612.984000", "185612.984000", "185612.984000", "185612.984000", "185612.984000", "185612.984000", "185712.921000", "185712.937000", "185712.937000", "185712.937000", "185712.937000", "185712.937000", "185712.937000", "185712.937000", "185712.953000", "185712.953000", "185712.953000", "185712.953000", "185712.953000", "185712.953000", "185712.953000", "185712.953000", "185712.968000", "185712.968000", "185712.968000", "185712.968000", "185712.968000", "185712.968000", "185712.968000", "185712.984000", "185712.984000", "185712.984000", "185712.984000", "185712.984000", "185732.921000", "185732.937000", "185732.937000", "185732.937000", "185732.937000", "185732.937000", "185732.937000", "185732.937000", "185732.937000", "185732.953000", "185832.921000", "185832.937000", "185832.937000", "185832.937000", "185832.937000", "185832.937000", "185832.937000", "185832.937000", "185832.953000", "185832.953000", "185832.953000", "185832.953000", "185832.953000", "185832.953000", "185832.953000", "185832.968000", "185832.968000", "185832.968000", "185832.968000", "185832.968000", "185832.968000", "185832.968000", "185832.984000", "185832.984000", "185832.984000", "185832.984000", "185832.984000", "185832.984000", "185932.921000", "185932.937000", "185932.937000", "185932.937000", "185932.937000", "185932.937000", "185932.937000", "185932.937000", "185932.953000", "185932.953000", "185932.953000", "185932.953000", "185932.953000", "185932.953000", "185932.953000", "185932.968000", "185932.968000", "185932.968000", "185932.968000", "185932.968000", "185932.968000", "185932.968000", "185932.984000", "185932.984000", "185932.984000", "185932.984000", "185932.984000", "185932.984000", "190032.921000", "190032.937000", "190032.937000", "190032.937000", "190032.937000", "190032.937000", "190032.937000", "190032.937000", "190032.953000", "190032.953000", "190032.953000", "190032.953000", "190032.953000", "190032.953000", "190032.953000", "190032.968000", "190032.968000", "190032.968000", "190032.968000", "190032.968000", "190032.984000", "190032.984000", "190032.984000", "190032.984000", "190032.984000", "190032.984000", "190032.984000", "190033.000000", "190132.921000", "190132.937000", "190132.937000", "190132.937000", "190132.937000", "190132.937000", "190132.937000", "190132.937000", "190132.953000", "190132.953000", "190132.953000", "190132.953000", "190132.953000", "190132.953000", "190132.953000", "190132.968000", "190132.968000", "190132.968000", "190132.968000", "190132.968000", "190132.968000", "190132.968000", "190132.984000", "190132.984000", "190132.984000", "190132.984000", "190132.984000", "190132.984000", "190232.921000", "190232.937000", "190232.937000", "190232.937000", "190232.937000", "190232.937000", "190232.937000", "190232.937000", "190232.953000", "190232.953000", "190232.953000", "190232.953000", "190232.953000", "190232.953000", "190232.953000", "190232.968000", "190232.968000", "190232.968000", "190232.968000", "190232.968000", "190232.968000", "190232.984000", "190232.984000", "190232.984000", "190232.984000", "190232.984000", "190233.000000", "190233.000000", "190233.000000", "190332.921000", "190332.937000", "190332.937000", "190332.937000", "190332.937000", "190332.937000", "190332.937000", "190332.953000", "190332.953000", "190332.953000", "190332.953000", "190332.953000", "190332.953000", "190332.968000", "190332.968000", "190332.968000", "190332.968000", "190332.968000", "190332.968000", "190332.968000", "190332.984000", "190332.984000", "190332.984000", "190332.984000", "190332.984000", "190332.984000", "190332.984000", "190333.000000", "190432.921000", "190432.937000", "190432.937000", "190432.937000", "190432.937000", "190432.937000", "190432.937000", "190432.937000", "190432.953000", "190432.953000", "190432.953000", "190432.953000", "190432.953000", "190432.953000", "190432.953000", "190432.968000", "190432.968000", "190432.968000", "190432.968000", "190432.968000", "190432.984000", "190432.984000", "190432.984000", "190432.984000", "190432.984000", "190432.984000", "190432.984000", "190433.000000", "190448.437000", "190448.453000", "190448.453000", "190448.453000", "190448.453000", "190448.453000", "190448.453000", "190448.453000"],
      "DataSetTrailingPadding": [
