{
  "AcquisitionMatrixPE": 104,
  "AcquisitionNumber": 1,
  "AcquisitionTime": "15:25:29.707500",
  "BandwidthPerPixelPhaseEncode": 13.935,
  "BaseResolution": 104,
  "CoilString": "C:HEA;HEP",
  "ConversionSoftware": "dcm2niix",
  "ConversionSoftwareVersion": "v1.0.20210317",
  "DerivedVendorReportedEchoSpacing": 0.000690017,
  "DeviceSerialNumber": "35450",
  "DwellTime": 2.5e-06,
  "EchoTime": 0.0348,
  "EffectiveEchoSpacing": 0.000690017,
  "FlipAngle": 55,
  "ImageComments": "Unaliased MB8/PE3 (remote)",
  "ImageOrientationPatientDICOM": [0.999785, -0.0023452, -0.0205873, -1.6668e-09, 0.993574, -0.113183],
  "ImageType": [
    "ORIGINAL",
    "PRIMARY",
    "M",
    "MB",
    "ND",
    "MOSAIC"
],
  "ImagingFrequency": 123.235,
  "InPlanePhaseEncodingDirectionDICOM": "COL",
  "InstitutionAddress": "Univeristy Ave. 197,Newark,North East,US,07102-1814",
  "InstitutionName": "RUBIC",
  "InstitutionalDepartmentName": "Department",
  "MRAcquisitionType": "2D",
  "MagneticFieldStrength": 3,
  "Manufacturer": "Siemens",
  "ManufacturersModelName": "TrioTim",
  "Modality": "MR",
  "MultibandAccelerationFactor": 8,
  "PartialFourier": 0.875,
  "PatientPosition": "HFS",
  "PercentPhaseFOV": 100,
  "PercentSampling": 100,
  "PhaseEncodingDirection": "j-",
  "PhaseEncodingSteps": 91,
  "PhaseResolution": 1,
  "PixelBandwidth": 1923,
  "ProcedureStepDescription": "Cole^Michael",
  "ProtocolName": "cmrr_mbep2d_bold_2mm_MB8_Task_8x",
  "PulseSequenceDetails": "%CustomerSeq%\\cmrr_mbep2d_bold",
  "ReceiveCoilName": "32Ch_Head",
  "ReconMatrixPE": 104,
  "RepetitionTime": 0.785,
  "SAR": 0.16688,
  "ScanOptions": "PFP\\FS",
  "ScanningSequence": "EP",
  "SequenceName": "epfid2d1_104",
  "SequenceVariant": "SK\\SS",
  "SeriesDescription": "cmrr_mbep2d_bold_2mm_MB8_Task_8x",
  "SeriesNumber": 25,
  "ShimSetting": [2084, -472, -7474, 236, -12, -177, -152, -16],
  "SliceThickness": 2,
  "SliceTiming": [0, 0.4375, 0.0875, 0.525, 0.175, 0.6125, 0.2625, 0.7, 0.35, 0, 0.4375, 0.0875, 0.525, 0.175, 0.6125, 0.2625, 0.7, 0.35, 0, 0.4375, 0.0875, 0.525, 0.175, 0.6125, 0.2625, 0.7, 0.35, 0, 0.4375, 0.0875, 0.525, 0.175, 0.6125, 0.2625, 0.7, 0.35, 0, 0.4375, 0.0875, 0.525, 0.175, 0.6125, 0.2625, 0.7, 0.35, 0, 0.4375, 0.0875, 0.525, 0.175, 0.6125, 0.2625, 0.7, 0.35, 0, 0.4375, 0.0875, 0.525, 0.175, 0.6125, 0.2625, 0.7, 0.35, 0, 0.4375, 0.0875, 0.525, 0.175, 0.6125, 0.2625, 0.7, 0.35],
  "SoftwareVersions": "syngo MR B19",
  "SpacingBetweenSlices": 2,
  "StationName": "MRC35450",
  "TaskName": "cpro",
  "TotalReadoutTime": 0.0710717,
  "TxRefAmp": 379.029,
  "dcmmeta_affine": [
    [-1.999570608139038, -3.3336040594633687e-09, -0.04144096001982689, 105.46259307861328],
    [0.004690391942858696, 1.987148404121399, -0.22631658613681793, -72.8260269165039],
    [-0.041174668818712234, 0.22636517882347107, 1.9867217540740967, -108.26415252685547],
    [0.0, 0.0, 0.0, 1.0]
],
  "dcmmeta_reorient_transform": [
    [0.0, -1.0, 0.0, 103.0],
    [1.0, 0.0, 0.0, 0.0],
    [0.0, 0.0, 1.0, 0.0],
    [0.0, 0.0, 0.0, 1.0]
],
  "dcmmeta_shape": [104, 104, 72, 581],
  "dcmmeta_slice_dim": 2,
  "dcmmeta_version": 0.6,
  "global": {
    "const": {
      "AcquisitionMatrix": [104, 0, 0, 104],
      "AngioFlag": "N",
      "BitsAllocated": 16,
      "BitsStored": 12,
      "Columns": 936,
      "EchoNumbers": 1,
      "EchoTime": 34.8,
      "EchoTrainLength": 1,
      "FlipAngle": 55.0,
      "HighBit": 11,
      "ImageOrientationPatient": [0.99978530782605, -0.0023451958678, -0.0205873337643, -1.666802e-09, 0.99357420507568, -0.1131825914539],
      "ImagePositionPatient": [-937.28397040463, -956.55279234634, 26.348039042317],
      "ImageType": [
        "ORIGINAL",
        "PRIMARY",
        "M",
        "MB",
        "ND",
        "MOSAIC"
],
      "ImagedNucleus": "1H",
      "ImagingFrequency": 123.23459,
      "InPlanePhaseEncodingDirection": "COL",
      "MRAcquisitionType": "2D",
      "MagneticFieldStrength": 3.0,
      "Manufacturer": "SIEMENS",
      "ManufacturerModelName": "TrioTim",
      "Modality": "MR",
      "NumberOfAverages": 1.0,
      "NumberOfPhaseEncodingSteps": 91,
      "PercentPhaseFieldOfView": 100.0,
      "PercentSampling": 100.0,
      "PerformedProcedureStepStartTime": "133243.796000",
      "PhotometricInterpretation": "MONOCHROME2",
      "PixelBandwidth": 1923.0,
      "PixelRepresentation": 0,
      "PixelSpacing": [2.0, 2.0],
      "ProtocolName": "cmrr_mbep2d_bold_2mm_MB8_Task_8x",
      "RepetitionTime": 785.0,
      "Rows": 936,
      "SAR": 0.16687968807536,
      "SamplesPerPixel": 1,
      "ScanOptions": [
        "PFP",
        "FS"
],
      "ScanningSequence": "EP",
      "SequenceName": "epfid2d1_104",
      "SequenceVariant": [
        "SK",
        "SS"
],
      "SeriesDescription": "cmrr_mbep2d_bold_2mm_MB8_Task_8x",
      "SeriesNumber": 25,
      "SeriesTime": "152608.390000",
      "SliceLocation": -101.48974162366,
      "SliceThickness": 2.0,
      "SmallestImagePixelValue": 0,
      "SoftwareVersions": "syngo MR B19",
      "SpacingBetweenSlices": 2.0000000062297,
      "SpecificCharacterSet": "ISO_IR 100",
      "StudyID": "1",
      "StudyTime": "133243.703000",
      "TransmitCoilName": "Body",
      "VariableFlipAngleFlag": "N",
      "WindowCenterWidthExplanation": "Algo1",
      "dBdt": 0.0},
    "slices": {}
  },
  "time": {
    "samples": {
      "AcquisitionNumber": [1, 2, 3, 4, 5, 6, 7, 8, 9, 10, 11, 12, 13, 14, 15, 16, 17, 18, 19, 20, 21, 22, 23, 24, 25, 26, 27, 28, 29, 30, 31, 32, 33, 34, 35, 36, 37, 38, 39, 40, 41, 42, 43, 44, 45, 46, 47, 48, 49, 50, 51, 52, 53, 54, 55, 56, 57, 58, 59, 60, 61, 62, 63, 64, 65, 66, 67, 68, 69, 70, 71, 72, 73, 74, 75, 76, 77, 78, 79, 80, 81, 82, 83, 84, 85, 86, 87, 88, 89, 90, 91, 92, 93, 94, 95, 96, 97, 98, 99, 100, 101, 102, 103, 104, 105, 106, 107, 108, 109, 110, 111, 112, 113, 114, 115, 116, 117, 118, 119, 120, 121, 122, 123, 124, 125, 126, 127, 128, 129, 130, 131, 132, 133, 134, 135, 136, 137, 138, 139, 140, 141, 142, 143, 144, 145, 146, 147, 148, 149, 150, 151, 152, 153, 154, 155, 156, 157, 158, 159, 160, 161, 162, 163, 164, 165, 166, 167, 168, 169, 170, 171, 172, 173, 174, 175, 176, 177, 178, 179, 180, 181, 182, 183, 184, 185, 186, 187, 188, 189, 190, 191, 192, 193, 194, 195, 196, 197, 198, 199, 200, 201, 202, 203, 204, 205, 206, 207, 208, 209, 210, 211, 212, 213, 214, 215, 216, 217, 218, 219, 220, 221, 222, 223, 224, 225, 226, 227, 228, 229, 230, 231, 232, 233, 234, 235, 236, 237, 238, 239, 240, 241, 242, 243, 244, 245, 246, 247, 248, 249, 250, 251, 252, 253, 254, 255, 256, 257, 258, 259, 260, 261, 262, 263, 264, 265, 266, 267, 268, 269, 270, 271, 272, 273, 274, 275, 276, 277, 278, 279, 280, 281, 282, 283, 284, 285, 286, 287, 288, 289, 290, 291, 292, 293, 294, 295, 296, 297, 298, 299, 300, 301, 302, 303, 304, 305, 306, 307, 308, 309, 310, 311, 312, 313, 314, 315, 316, 317, 318, 319, 320, 321, 322, 323, 324, 325, 326, 327, 328, 329, 330, 331, 332, 333, 334, 335, 336, 337, 338, 339, 340, 341, 342, 343, 344, 345, 346, 347, 348, 349, 350, 351, 352, 353, 354, 355, 356, 357, 358, 359, 360, 361, 362, 363, 364, 365, 366, 367, 368, 369, 370, 371, 372, 373, 374, 375, 376, 377, 378, 379, 380, 381, 382, 383, 384, 385, 386, 387, 388, 389, 390, 391, 392, 393, 394, 395, 396, 397, 398, 399, 400, 401, 402, 403, 404, 405, 406, 407, 408, 409, 410, 411, 412, 413, 414, 415, 416, 417, 418, 419, 420, 421, 422, 423, 424, 425, 426, 427, 428, 429, 430, 431, 432, 433, 434, 435, 436, 437, 438, 439, 440, 441, 442, 443, 444, 445, 446, 447, 448, 449, 450, 451, 452, 453, 454, 455, 456, 457, 458, 459, 460, 461, 462, 463, 464, 465, 466, 467, 468, 469, 470, 471, 472, 473, 474, 475, 476, 477, 478, 479, 480, 481, 482, 483, 484, 485, 486, 487, 488, 489, 490, 491, 492, 493, 494, 495, 496, 497, 498, 499, 500, 501, 502, 503, 504, 505, 506, 507, 508, 509, 510, 511, 512, 513, 514, 515, 516, 517, 518, 519, 520, 521, 522, 523, 524, 525, 526, 527, 528, 529, 530, 531, 532, 533, 534, 535, 536, 537, 538, 539, 540, 541, 542, 543, 544, 545, 546, 547, 548, 549, 550, 551, 552, 553, 554, 555, 556, 557, 558, 559, 560, 561, 562, 563, 564, 565, 566, 567, 568, 569, 570, 571, 572, 573, 574, 575, 576, 577, 578, 579, 580, 581],
      "AcquisitionTime": ["152529.707500", "152530.495000", "152531.282500", "152532.070000", "152532.860000", "152533.647500", "152534.435000", "152535.222500", "152536.012500", "152536.800000", "152537.587500", "152538.377500", "152539.165000", "152539.952500", "152540.740000", "152541.530000", "152542.317500", "152543.105000", "152543.892500", "152544.682500", "152545.470000", "152546.257500", "152547.045000", "152547.835000", "152548.622500", "152549.410000", "152550.197500", "152550.987500", "152551.775000", "152552.562500", "152553.352500", "152554.140000", "152554.927500", "152555.715000", "152556.505000", "152557.292500", "152558.080000", "152558.867500", "152559.657500", "152600.445000", "152601.232500", "152602.020000", "152602.810000", "152603.597500", "152604.385000", "152605.172500", "152605.962500", "152606.750000", "152607.537500", "152608.325000", "152609.115000", "152609.902500", "152610.690000", "152611.480000", "152612.267500", "152613.055000", "152613.842500", "152614.632500", "152615.420000", "152616.207500", "152616.995000", "152617.785000", "152618.572500", "152619.360000", "152620.147500", "152620.937500", "152621.725000", "152622.512500", "152623.300000", "152624.090000", "152624.877500", "152625.665000", "152626.452500", "152627.242500", "152628.030000", "152628.817500", "152629.607500", "152630.395000", "152631.182500", "152631.970000", "152632.760000", "152633.547500", "152634.335000", "152635.122500", "152635.912500", "152636.700000", "152637.487500", "152638.275000", "152639.065000", "152639.852500", "152640.640000", "152641.427500", "152642.217500", "152643.005000", "152643.792500", "152644.580000", "152645.370000", "152646.157500", "152646.945000", "152647.735000", "152648.522500", "152649.310000", "152650.097500", "152650.887500", "152651.675000", "152652.462500", "152653.250000", "152654.040000", "152654.827500", "152655.615000", "152656.402500", "152657.192500", "152657.980000", "152658.767500", "152659.555000", "152700.345000", "152701.132500", "152701.920000", "152702.707500", "152703.497500", "152704.285000", "152705.072500", "152705.862500", "152706.650000", "152707.437500", "152708.225000", "152709.015000", "152709.802500", "152710.590000", "152711.377500", "152712.167500", "152712.955000", "152713.742500", "152714.530000", "152715.320000", "152716.107500", "152716.895000", "152717.682500", "152718.472500", "152719.260000", "152720.047500", "152720.835000", "152721.625000", "152722.412500", "152723.200000", "152723.990000", "152724.777500", "152725.565000", "152726.352500", "152727.142500", "152727.930000", "152728.717500", "152729.505000", "152730.295000", "152731.082500", "152731.870000", "152732.657500", "152733.447500", "152734.235000", "152735.022500", "152735.810000", "152736.600000", "152737.387500", "152738.175000", "152738.962500", "152739.752500", "152740.540000", "152741.327500", "152742.117500", "152742.905000", "152743.692500", "152744.480000", "152745.270000", "152746.057500", "152746.845000", "152747.632500", "152748.422500", "152749.210000", "152749.997500", "152750.785000", "152751.575000", "152752.362500", "152753.150000", "152753.937500", "152754.727500", "152755.515000", "152756.302500", "152757.090000", "152757.880000", "152758.667500", "152759.455000", "152800.245000", "152801.032500", "152801.820000", "152802.607500", "152803.397500", "152804.185000", "152804.972500", "152805.760000", "152806.550000", "152807.337500", "152808.125000", "152808.912500", "152809.702500", "152810.490000", "152811.277500", "152812.065000", "152812.855000", "152813.642500", "152814.430000", "152815.217500", "152816.007500", "152816.795000", "152817.582500", "152818.372500", "152819.160000", "152819.947500", "152820.735000", "152821.525000", "152822.312500", "152823.100000", "152823.887500", "152824.677500", "152825.465000", "152826.252500", "152827.040000", "152827.830000", "152828.617500", "152829.405000", "152830.192500", "152830.982500", "152831.770000", "152832.557500", "152833.345000", "152834.135000", "152834.922500", "152835.710000", "152836.500000", "152837.287500", "152838.075000", "152838.862500", "152839.652500", "152840.440000", "152841.227500", "152842.015000", "152842.805000", "152843.592500", "152844.380000", "152845.167500", "152845.957500", "152846.745000", "152847.532500", "152848.320000", "152849.110000", "152849.897500", "152850.685000", "152851.472500", "152852.262500", "152853.050000", "152853.837500", "152854.627500", "152855.415000", "152856.202500", "152856.990000", "152857.780000", "152858.567500", "152859.355000", "152900.142500", "152900.932500", "152901.720000", "152902.507500", "152903.295000", "152904.085000", "152904.872500", "152905.660000", "152906.447500", "152907.237500", "152908.025000", "152908.812500", "152909.602500", "152910.390000", "152911.177500", "152911.965000", "152912.755000", "152913.542500", "152914.330000", "152915.117500", "152915.907500", "152916.695000", "152917.482500", "152918.270000", "152919.060000", "152919.847500", "152920.635000", "152921.422500", "152922.212500", "152923.000000", "152923.787500", "152924.575000", "152925.365000", "152926.152500", "152926.940000", "152927.730000", "152928.517500", "152929.305000", "152930.092500", "152930.882500", "152931.670000", "152932.457500", "152933.245000", "152934.035000", "152934.822500", "152935.610000", "152936.397500", "152937.187500", "152937.975000", "152938.762500", "152939.550000", "152940.340000", "152941.127500", "152941.915000", "152942.702500", "152943.492500", "152944.280000", "152945.067500", "152945.857500", "152946.645000", "152947.432500", "152948.220000", "152949.010000", "152949.797500", "152950.585000", "152951.372500", "152952.162500", "152952.950000", "152953.737500", "152954.525000", "152955.315000", "152956.102500", "152956.890000", "152957.677500", "152958.467500", "152959.255000", "153000.042500", "153000.830000", "153001.620000", "153002.407500", "153003.195000", "153003.985000", "153004.772500", "153005.560000", "153006.347500", "153007.137500", "153007.925000", "153008.712500", "153009.500000", "153010.290000", "153011.077500", "153011.865000", "153012.652500", "153013.442500", "153014.230000", "153015.017500", "153015.805000", "153016.595000", "153017.382500", "153018.170000", "153018.957500", "153019.747500", "153020.535000", "153021.322500", "153022.112500", "153022.900000", "153023.687500", "153024.475000", "153025.265000", "153026.052500", "153026.840000", "153027.627500", "153028.417500", "153029.205000", "153029.992500", "153030.780000", "153031.570000", "153032.357500", "153033.145000", "153033.932500", "153034.722500", "153035.510000", "153036.297500", "153037.085000", "153037.875000", "153038.662500", "153039.450000", "153040.240000", "153041.027500", "153041.815000", "153042.602500", "153043.392500", "153044.180000", "153044.967500", "153045.755000", "153046.545000", "153047.332500", "153048.120000", "153048.907500", "153049.697500", "153050.485000", "153051.272500", "153052.060000", "153052.850000", "153053.637500", "153054.425000", "153055.212500", "153056.002500", "153056.790000", "153057.577500", "153058.367500", "153059.155000", "153059.942500", "153100.730000", "153101.520000", "153102.307500", "153103.095000", "153103.882500", "153104.672500", "153105.460000", "153106.247500", "153107.035000", "153107.825000", "153108.612500", "153109.400000", "153110.187500", "153110.977500", "153111.765000", "153112.552500", "153113.340000", "153114.130000", "153114.917500", "153115.705000", "153116.495000", "153117.282500", "153118.070000", "153118.857500", "153119.647500", "153120.435000", "153121.222500", "153122.010000", "153122.800000", "153123.587500", "153124.375000", "153125.162500", "153125.952500", "153126.740000", "153127.527500", "153128.315000", "153129.105000", "153129.892500", "153130.680000", "153131.467500", "153132.257500", "153133.045000", "153133.832500", "153134.622500", "153135.410000", "153136.197500", "153136.985000", "153137.775000", "153138.562500", "153139.350000", "153140.137500", "153140.927500", "153141.715000", "153142.502500", "153143.290000", "153144.080000", "153144.867500", "153145.655000", "153146.442500", "153147.232500", "153148.020000", "153148.807500", "153149.595000", "153150.385000", "153151.172500", "153151.960000", "153152.750000", "153153.537500", "153154.325000", "153155.112500", "153155.902500", "153156.690000", "153157.477500", "153158.265000", "153159.055000", "153159.842500", "153200.630000", "153201.417500", "153202.207500", "153202.995000", "153203.782500", "153204.570000", "153205.360000", "153206.147500", "153206.935000", "153207.722500", "153208.512500", "153209.300000", "153210.087500", "153210.877500", "153211.665000", "153212.452500", "153213.240000", "153214.030000", "153214.817500", "153215.605000", "153216.392500", "153217.182500", "153217.970000", "153218.757500", "153219.545000", "153220.335000", "153221.122500", "153221.910000", "153222.697500", "153223.487500", "153224.275000", "153225.062500", "153225.852500", "153226.640000", "153227.427500", "153228.215000", "153229.005000", "153229.792500", "153230.580000", "153231.367500", "153232.157500", "153232.945000", "153233.732500", "153234.520000", "153235.310000", "153236.097500", "153236.885000", "153237.672500", "153238.462500", "153239.250000", "153240.037500", "153240.825000", "153241.615000", "153242.402500", "153243.190000", "153243.980000", "153244.767500", "153245.555000", "153246.342500", "153247.132500", "153247.920000", "153248.707500", "153249.495000", "153250.285000", "153251.072500", "153251.860000", "153252.647500", "153253.437500", "153254.225000", "153255.012500", "153255.800000", "153256.590000", "153257.377500", "153258.165000", "153258.952500", "153259.742500", "153300.530000", "153301.317500", "153302.107500", "153302.895000", "153303.682500", "153304.470000", "153305.260000", "153306.047500", "153306.835000"],
      "ContentTime": ["152608.390000", "152608.390000", "152608.406000", "152608.406000", "152608.406000", "152608.406000", "152608.406000", "152608.406000", "152608.406000", "152608.421000", "152608.421000", "152608.421000", "152608.421000", "152608.421000", "152608.437000", "152608.437000", "152608.437000", "152608.437000", "152608.437000", "152608.437000", "152608.437000", "152608.453000", "152608.453000", "152608.453000", "152608.453000", "152608.453000", "152608.453000", "152608.453000", "152608.453000", "152608.468000", "152608.468000", "152608.468000", "152608.468000", "152608.468000", "152608.468000", "152608.484000", "152608.484000", "152608.484000", "152608.484000", "152608.484000", "152608.484000", "152608.484000", "152608.484000", "152608.500000", "152608.500000", "152628.375000", "152628.375000", "152628.375000", "152628.375000", "152628.375000", "152628.375000", "152628.375000", "152628.390000", "152628.390000", "152628.390000", "152628.390000", "152628.390000", "152628.390000", "152628.390000", "152628.406000", "152628.406000", "152628.406000", "152628.406000", "152628.406000", "152628.406000", "152628.406000", "152628.406000", "152628.421000", "152628.421000", "152628.421000", "152648.375000", "152648.375000", "152648.375000", "152648.375000", "152648.375000", "152648.375000", "152648.375000", "152648.375000", "152648.390000", "152648.390000", "152648.390000", "152648.390000", "152648.390000", "152648.390000", "152648.390000", "152648.406000", "152648.406000", "152648.406000", "152648.406000", "152648.406000", "152648.406000", "152648.406000", "152648.421000", "152648.421000", "152648.421000", "152648.421000", "152708.375000", "152708.375000", "152708.375000", "152708.375000", "152708.375000", "152708.375000", "152708.375000", "152708.375000", "152708.390000", "152708.390000", "152708.390000", "152708.390000", "152708.390000", "152708.390000", "152708.390000", "152708.406000", "152708.406000", "152708.406000", "152708.406000", "152708.406000", "152708.406000", "152708.406000", "152708.406000", "152708.421000", "152708.421000", "152708.421000", "152728.375000", "152728.375000", "152728.375000", "152728.375000", "152728.375000", "152728.375000", "152728.375000", "152728.375000", "152728.390000", "152728.390000", "152728.390000", "152728.390000", "152728.406000", "152728.406000", "152728.406000", "152728.406000", "152728.406000", "152728.406000", "152728.406000", "152728.421000", "152728.421000", "152728.421000", "152728.421000", "152728.421000", "152728.421000", "152748.375000", "152748.375000", "152748.375000", "152748.375000", "152748.375000", "152748.375000", "152748.375000", "152748.375000", "152748.390000", "152748.390000", "152748.390000", "152748.390000", "152748.390000", "152748.390000", "152748.390000", "152748.390000", "152748.406000", "152748.406000", "152748.406000", "152748.406000", "152748.406000", "152748.406000", "152748.406000", "152748.421000", "152748.421000", "152748.421000", "152808.375000", "152808.375000", "152808.375000", "152808.375000", "152808.375000", "152808.375000", "152808.375000", "152808.375000", "152808.390000", "152808.390000", "152808.390000", "152808.390000", "152808.390000", "152808.390000", "152808.390000", "152808.406000", "152808.406000", "152808.406000", "152808.406000", "152808.406000", "152808.406000", "152808.406000", "152808.421000", "152808.421000", "152808.421000", "152828.375000", "152828.375000", "152828.375000", "152828.375000", "152828.375000", "152828.375000", "152828.375000", "152828.375000", "152828.390000", "152828.390000", "152828.390000", "152828.390000", "152828.390000", "152828.390000", "152828.390000", "152828.406000", "152828.406000", "152828.406000", "152828.406000", "152828.406000", "152828.406000", "152828.406000", "152828.406000", "152828.421000", "152828.421000", "152848.375000", "152848.375000", "152848.375000", "152848.375000", "152848.375000", "152848.375000", "152848.375000", "152848.375000", "152848.390000", "152848.390000", "152848.390000", "152848.390000", "152848.390000", "152848.390000", "152848.390000", "152848.406000", "152848.406000", "152848.406000", "152848.406000", "152848.406000", "152848.406000", "152848.406000", "152848.406000", "152848.421000", "152848.421000", "152848.421000", "152908.375000", "152908.375000", "152908.375000", "152908.375000", "152908.375000", "152908.375000", "152908.375000", "152908.375000", "152908.390000", "152908.390000", "152908.390000", "152908.390000", "152908.390000", "152908.390000", "152908.406000", "152908.406000", "152908.406000", "152908.406000", "152908.406000", "152908.406000", "152908.421000", "152908.421000", "152908.421000", "152908.421000", "152908.421000", "152928.375000", "152928.375000", "152928.375000", "152928.375000", "152928.375000", "152928.375000", "152928.375000", "152928.375000", "152928.390000", "152928.390000", "152928.390000", "152928.390000", "152928.390000", "152928.390000", "152928.406000", "152928.406000", "152928.406000", "152928.406000", "152928.406000", "152928.406000", "152928.421000", "152928.421000", "152928.421000", "152928.421000", "152928.421000", "152928.421000", "152948.375000", "152948.375000", "152948.375000", "152948.375000", "152948.375000", "152948.375000", "152948.375000", "152948.375000", "152948.390000", "152948.390000", "152948.390000", "152948.390000", "152948.390000", "152948.390000", "152948.390000", "152948.406000", "152948.406000", "152948.406000", "152948.406000", "152948.406000", "152948.406000", "152948.406000", "152948.421000", "152948.421000", "152948.421000", "153008.375000", "153008.375000", "153008.375000", "153008.375000", "153008.375000", "153008.375000", "153008.375000", "153008.375000", "153008.390000", "153008.390000", "153008.390000", "153008.390000", "153008.390000", "153008.390000", "153008.390000", "153008.406000", "153008.406000", "153008.406000", "153008.406000", "153008.406000", "153008.406000", "153008.421000", "153008.421000", "153008.421000", "153008.421000", "153008.421000", "153028.375000", "153028.375000", "153028.375000", "153028.375000", "153028.375000", "153028.375000", "153028.375000", "153028.390000", "153028.390000", "153028.390000", "153028.390000", "153028.390000", "153028.390000", "153028.390000", "153028.406000", "153028.406000", "153028.406000", "153028.406000", "153028.406000", "153028.406000", "153028.406000", "153028.421000", "153028.421000", "153028.421000", "153028.421000", "153048.375000", "153048.375000", "153048.375000", "153048.375000", "153048.375000", "153048.375000", "153048.375000", "153048.375000", "153048.390000", "153048.390000", "153048.390000", "153048.390000", "153048.390000", "153048.390000", "153048.390000", "153048.390000", "153048.406000", "153048.406000", "153048.406000", "153048.406000", "153048.421000", "153048.421000", "153048.421000", "153048.421000", "153048.421000", "153048.421000", "153108.375000", "153108.375000", "153108.375000", "153108.375000", "153108.375000", "153108.375000", "153108.375000", "153108.375000", "153108.390000", "153108.390000", "153108.390000", "153108.390000", "153108.390000", "153108.390000", "153108.390000", "153108.406000", "153108.406000", "153108.406000", "153108.406000", "153108.406000", "153108.406000", "153108.406000", "153108.421000", "153108.421000", "153108.421000", "153128.375000", "153128.375000", "153128.375000", "153128.375000", "153128.375000", "153128.375000", "153128.375000", "153128.375000", "153128.390000", "153128.390000", "153128.390000", "153128.390000", "153128.390000", "153128.390000", "153128.390000", "153128.406000", "153128.406000", "153128.406000", "153128.406000", "153128.406000", "153128.406000", "153128.421000", "153128.421000", "153128.421000", "153128.421000", "153128.421000", "153148.375000", "153148.375000", "153148.375000", "153148.375000", "153148.375000", "153148.375000", "153148.390000", "153148.390000", "153148.390000", "153148.390000", "153148.390000", "153148.406000", "153148.406000", "153148.406000", "153148.406000", "153148.406000", "153148.406000", "153148.406000", "153148.421000", "153148.421000", "153148.421000", "153148.421000", "153148.421000", "153148.421000", "153148.421000", "153208.375000", "153208.375000", "153208.375000", "153208.375000", "153208.375000", "153208.390000", "153208.390000", "153208.390000", "153208.390000", "153208.390000", "153208.390000", "153208.390000", "153208.406000", "153208.406000", "153208.406000", "153208.406000", "153208.406000", "153208.406000", "153208.406000", "153208.406000", "153208.421000", "153208.421000", "153208.421000", "153208.421000", "153208.421000", "153208.421000", "153228.375000", "153228.375000", "153228.375000", "153228.375000", "153228.375000", "153228.375000", "153228.390000", "153228.390000", "153228.390000", "153228.390000", "153228.390000", "153228.390000", "153228.390000", "153228.390000", "153228.406000", "153228.406000", "153228.406000", "153228.406000", "153228.406000", "153228.406000", "153228.406000", "153228.421000", "153228.421000", "153228.421000", "153228.421000", "153248.375000", "153248.375000", "153248.375000", "153248.375000", "153248.375000", "153248.375000", "153248.375000", "153248.375000", "153248.390000", "153248.390000", "153248.390000", "153248.390000", "153248.390000", "153248.390000", "153248.390000", "153248.406000", "153248.406000", "153248.406000", "153248.406000", "153248.406000", "153248.406000", "153248.406000", "153248.421000", "153248.421000", "153248.421000", "153248.421000", "153308.375000", "153308.375000", "153308.375000", "153308.375000", "153308.375000", "153308.375000", "153308.375000", "153308.375000", "153308.390000", "153308.390000", "153308.390000", "153308.390000", "153308.390000", "153308.390000", "153308.390000", "153308.406000", "153308.406000", "153308.406000", "153308.406000", "153308.406000", "153308.406000", "153308.406000", "153308.406000", "153308.421000", "153308.421000", "153308.687000"],
