{
  "AcquisitionMatrixPE": 104,
  "AcquisitionNumber": 1,
  "AcquisitionTime": "14:53:45.687500",
  "BandwidthPerPixelPhaseEncode": 13.935,
  "BaseResolution": 104,
  "CoilString": "C:HEA;HEP",
  "ConversionSoftware": "dcm2niix",
  "ConversionSoftwareVersion": "v1.0.20210317",
  "DerivedVendorReportedEchoSpacing": 0.000690017,
  "DeviceSerialNumber": "35450",
  "DwellTime": 2.5e-06,
  "EchoTime": 0.0348,
  "EffectiveEchoSpacing": 0.000690017,
  "FlipAngle": 55,
  "ImageComments": "Unaliased MB8/PE3 (remote)",
  "ImageOrientationPatientDICOM": [0.999785, -0.0023452, -0.0205873, -1.6668e-09, 0.993574, -0.113183],
  "ImageType": [
    "ORIGINAL",
    "PRIMARY",
    "M",
    "MB",
    "ND",
    "MOSAIC"
],
  "ImagingFrequency": 123.235,
  "InPlanePhaseEncodingDirectionDICOM": "COL",
  "InstitutionAddress": "Univeristy Ave. 197,Newark,North East,US,07102-1814",
  "InstitutionName": "RUBIC",
  "InstitutionalDepartmentName": "Department",
  "MRAcquisitionType": "2D",
  "MagneticFieldStrength": 3,
  "Manufacturer": "Siemens",
  "ManufacturersModelName": "TrioTim",
  "Modality": "MR",
  "MultibandAccelerationFactor": 8,
  "PartialFourier": 0.875,
  "PatientPosition": "HFS",
  "PercentPhaseFOV": 100,
  "PercentSampling": 100,
  "PhaseEncodingDirection": "j-",
  "PhaseEncodingSteps": 91,
  "PhaseResolution": 1,
  "PixelBandwidth": 1923,
  "ProcedureStepDescription": "Cole^Michael",
  "ProtocolName": "cmrr_mbep2d_bold_2mm_MB8_Task_8x",
  "PulseSequenceDetails": "%CustomerSeq%\\cmrr_mbep2d_bold",
  "ReceiveCoilName": "32Ch_Head",
  "ReconMatrixPE": 104,
  "RepetitionTime": 0.785,
  "SAR": 0.16688,
  "ScanOptions": "PFP\\FS",
  "ScanningSequence": "EP",
  "SequenceName": "epfid2d1_104",
  "SequenceVariant": "SK\\SS",
  "SeriesDescription": "cmrr_mbep2d_bold_2mm_MB8_Task_8x",
  "SeriesNumber": 17,
  "ShimSetting": [2084, -472, -7474, 236, -12, -177, -152, -16],
  "SliceThickness": 2,
  "SliceTiming": [0, 0.4375, 0.0875, 0.525, 0.175, 0.6125, 0.2625, 0.7, 0.35, 0, 0.4375, 0.0875, 0.525, 0.175, 0.6125, 0.2625, 0.7, 0.35, 0, 0.4375, 0.0875, 0.525, 0.175, 0.6125, 0.2625, 0.7, 0.35, 0, 0.4375, 0.0875, 0.525, 0.175, 0.6125, 0.2625, 0.7, 0.35, 0, 0.4375, 0.0875, 0.525, 0.175, 0.6125, 0.2625, 0.7, 0.35, 0, 0.4375, 0.0875, 0.525, 0.175, 0.6125, 0.2625, 0.7, 0.35, 0, 0.4375, 0.0875, 0.525, 0.175, 0.6125, 0.2625, 0.7, 0.35, 0, 0.4375, 0.0875, 0.525, 0.175, 0.6125, 0.2625, 0.7, 0.35],
  "SoftwareVersions": "syngo MR B19",
  "SpacingBetweenSlices": 2,
  "StationName": "MRC35450",
  "TaskName": "cpro",
  "TotalReadoutTime": 0.0710717,
  "TxRefAmp": 379.029,
  "dcmmeta_affine": [
    [-1.999570608139038, -3.3336040594633687e-09, -0.04144096001982689, 105.46259307861328],
    [0.004690391942858696, 1.987148404121399, -0.22631658613681793, -72.8260269165039],
    [-0.041174668818712234, 0.22636517882347107, 1.9867217540740967, -108.26415252685547],
    [0.0, 0.0, 0.0, 1.0]
],
  "dcmmeta_reorient_transform": [
    [0.0, -1.0, 0.0, 103.0],
    [1.0, 0.0, 0.0, 0.0],
    [0.0, 0.0, 1.0, 0.0],
    [0.0, 0.0, 0.0, 1.0]
],
  "dcmmeta_shape": [104, 104, 72, 581],
  "dcmmeta_slice_dim": 2,
  "dcmmeta_version": 0.6,
  "global": {
    "const": {
      "AcquisitionMatrix": [104, 0, 0, 104],
      "AngioFlag": "N",
      "BitsAllocated": 16,
      "BitsStored": 12,
      "Columns": 936,
      "EchoNumbers": 1,
      "EchoTime": 34.8,
      "EchoTrainLength": 1,
      "FlipAngle": 55.0,
      "HighBit": 11,
      "ImageOrientationPatient": [0.99978530782605, -0.0023451958678, -0.0205873337643, -1.666802e-09, 0.99357420507568, -0.1131825914539],
      "ImagePositionPatient": [-937.28397040463, -956.55279234634, 26.348039042317],
      "ImageType": [
        "ORIGINAL",
        "PRIMARY",
        "M",
        "MB",
        "ND",
        "MOSAIC"
],
      "ImagedNucleus": "1H",
      "ImagingFrequency": 123.23459,
      "InPlanePhaseEncodingDirection": "COL",
      "MRAcquisitionType": "2D",
      "MagneticFieldStrength": 3.0,
      "Manufacturer": "SIEMENS",
      "ManufacturerModelName": "TrioTim",
      "Modality": "MR",
      "NumberOfAverages": 1.0,
      "NumberOfPhaseEncodingSteps": 91,
      "PercentPhaseFieldOfView": 100.0,
      "PercentSampling": 100.0,
      "PerformedProcedureStepStartTime": "133243.796000",
      "PhotometricInterpretation": "MONOCHROME2",
      "PixelBandwidth": 1923.0,
      "PixelRepresentation": 0,
      "PixelSpacing": [2.0, 2.0],
      "ProtocolName": "cmrr_mbep2d_bold_2mm_MB8_Task_8x",
      "RepetitionTime": 785.0,
      "Rows": 936,
      "SAR": 0.16687968807536,
      "SamplesPerPixel": 1,
      "ScanOptions": [
        "PFP",
        "FS"
],
      "ScanningSequence": "EP",
      "SequenceName": "epfid2d1_104",
      "SequenceVariant": [
        "SK",
        "SS"
],
      "SeriesDescription": "cmrr_mbep2d_bold_2mm_MB8_Task_8x",
      "SeriesNumber": 17,
      "SeriesTime": "145359.796000",
      "SliceLocation": -101.48974162366,
      "SliceThickness": 2.0,
      "SmallestImagePixelValue": 0,
      "SoftwareVersions": "syngo MR B19",
      "SpacingBetweenSlices": 2.0000000062297,
      "SpecificCharacterSet": "ISO_IR 100",
      "StudyID": "1",
      "StudyTime": "133243.703000",
      "TransmitCoilName": "Body",
      "VariableFlipAngleFlag": "N",
      "WindowCenterWidthExplanation": "Algo1",
      "dBdt": 0.0},
    "slices": {}
  },
  "time": {
    "samples": {
      "AcquisitionNumber": [1, 2, 3, 4, 5, 6, 7, 8, 9, 10, 11, 12, 13, 14, 15, 16, 17, 18, 19, 20, 21, 22, 23, 24, 25, 26, 27, 28, 29, 30, 31, 32, 33, 34, 35, 36, 37, 38, 39, 40, 41, 42, 43, 44, 45, 46, 47, 48, 49, 50, 51, 52, 53, 54, 55, 56, 57, 58, 59, 60, 61, 62, 63, 64, 65, 66, 67, 68, 69, 70, 71, 72, 73, 74, 75, 76, 77, 78, 79, 80, 81, 82, 83, 84, 85, 86, 87, 88, 89, 90, 91, 92, 93, 94, 95, 96, 97, 98, 99, 100, 101, 102, 103, 104, 105, 106, 107, 108, 109, 110, 111, 112, 113, 114, 115, 116, 117, 118, 119, 120, 121, 122, 123, 124, 125, 126, 127, 128, 129, 130, 131, 132, 133, 134, 135, 136, 137, 138, 139, 140, 141, 142, 143, 144, 145, 146, 147, 148, 149, 150, 151, 152, 153, 154, 155, 156, 157, 158, 159, 160, 161, 162, 163, 164, 165, 166, 167, 168, 169, 170, 171, 172, 173, 174, 175, 176, 177, 178, 179, 180, 181, 182, 183, 184, 185, 186, 187, 188, 189, 190, 191, 192, 193, 194, 195, 196, 197, 198, 199, 200, 201, 202, 203, 204, 205, 206, 207, 208, 209, 210, 211, 212, 213, 214, 215, 216, 217, 218, 219, 220, 221, 222, 223, 224, 225, 226, 227, 228, 229, 230, 231, 232, 233, 234, 235, 236, 237, 238, 239, 240, 241, 242, 243, 244, 245, 246, 247, 248, 249, 250, 251, 252, 253, 254, 255, 256, 257, 258, 259, 260, 261, 262, 263, 264, 265, 266, 267, 268, 269, 270, 271, 272, 273, 274, 275, 276, 277, 278, 279, 280, 281, 282, 283, 284, 285, 286, 287, 288, 289, 290, 291, 292, 293, 294, 295, 296, 297, 298, 299, 300, 301, 302, 303, 304, 305, 306, 307, 308, 309, 310, 311, 312, 313, 314, 315, 316, 317, 318, 319, 320, 321, 322, 323, 324, 325, 326, 327, 328, 329, 330, 331, 332, 333, 334, 335, 336, 337, 338, 339, 340, 341, 342, 343, 344, 345, 346, 347, 348, 349, 350, 351, 352, 353, 354, 355, 356, 357, 358, 359, 360, 361, 362, 363, 364, 365, 366, 367, 368, 369, 370, 371, 372, 373, 374, 375, 376, 377, 378, 379, 380, 381, 382, 383, 384, 385, 386, 387, 388, 389, 390, 391, 392, 393, 394, 395, 396, 397, 398, 399, 400, 401, 402, 403, 404, 405, 406, 407, 408, 409, 410, 411, 412, 413, 414, 415, 416, 417, 418, 419, 420, 421, 422, 423, 424, 425, 426, 427, 428, 429, 430, 431, 432, 433, 434, 435, 436, 437, 438, 439, 440, 441, 442, 443, 444, 445, 446, 447, 448, 449, 450, 451, 452, 453, 454, 455, 456, 457, 458, 459, 460, 461, 462, 463, 464, 465, 466, 467, 468, 469, 470, 471, 472, 473, 474, 475, 476, 477, 478, 479, 480, 481, 482, 483, 484, 485, 486, 487, 488, 489, 490, 491, 492, 493, 494, 495, 496, 497, 498, 499, 500, 501, 502, 503, 504, 505, 506, 507, 508, 509, 510, 511, 512, 513, 514, 515, 516, 517, 518, 519, 520, 521, 522, 523, 524, 525, 526, 527, 528, 529, 530, 531, 532, 533, 534, 535, 536, 537, 538, 539, 540, 541, 542, 543, 544, 545, 546, 547, 548, 549, 550, 551, 552, 553, 554, 555, 556, 557, 558, 559, 560, 561, 562, 563, 564, 565, 566, 567, 568, 569, 570, 571, 572, 573, 574, 575, 576, 577, 578, 579, 580, 581],
      "AcquisitionTime": ["145345.687500", "145346.475000", "145347.262500", "145348.050000", "145348.840000", "145349.627500", "145350.415000", "145351.202500", "145351.992500", "145352.780000", "145353.567500", "145354.355000", "145355.145000", "145355.932500", "145356.720000", "145357.510000", "145358.297500", "145359.085000", "145359.872500", "145400.662500", "145401.450000", "145402.237500", "145403.025000", "145403.815000", "145404.602500", "145405.390000", "145406.177500", "145406.967500", "145407.755000", "145408.542500", "145409.330000", "145410.120000", "145410.907500", "145411.695000", "145412.482500", "145413.272500", "145414.060000", "145414.847500", "145415.637500", "145416.425000", "145417.212500", "145418.000000", "145418.790000", "145419.577500", "145420.365000", "145421.152500", "145421.942500", "145422.730000", "145423.517500", "145424.305000", "145425.095000", "145425.882500", "145426.670000", "145427.457500", "145428.247500", "145429.035000", "145429.822500", "145430.610000", "145431.400000", "145432.187500", "145432.975000", "145433.765000", "145434.552500", "145435.340000", "145436.127500", "145436.917500", "145437.705000", "145438.492500", "145439.280000", "145440.070000", "145440.857500", "145441.645000", "145442.432500", "145443.222500", "145444.010000", "145444.797500", "145445.585000", "145446.375000", "145447.162500", "145447.950000", "145448.740000", "145449.527500", "145450.315000", "145451.102500", "145451.892500", "145452.680000", "145453.467500", "145454.255000", "145455.045000", "145455.832500", "145456.620000", "145457.407500", "145458.197500", "145458.985000", "145459.772500", "145500.560000", "145501.350000", "145502.137500", "145502.925000", "145503.712500", "145504.502500", "145505.290000", "145506.077500", "145506.867500", "145507.655000", "145508.442500", "145509.230000", "145510.020000", "145510.807500", "145511.595000", "145512.382500", "145513.172500", "145513.960000", "145514.747500", "145515.535000", "145516.325000", "145517.112500", "145517.900000", "145518.687500", "145519.477500", "145520.265000", "145521.052500", "145521.840000", "145522.630000", "145523.417500", "145524.205000", "145524.995000", "145525.782500", "145526.570000", "145527.357500", "145528.147500", "145528.935000", "145529.722500", "145530.510000", "145531.300000", "145532.087500", "145532.875000", "145533.662500", "145534.452500", "145535.240000", "145536.027500", "145536.815000", "145537.605000", "145538.392500", "145539.180000", "145539.967500", "145540.757500", "145541.545000", "145542.332500", "145543.122500", "145543.910000", "145544.697500", "145545.485000", "145546.275000", "145547.062500", "145547.850000", "145548.637500", "145549.427500", "145550.215000", "145551.002500", "145551.790000", "145552.580000", "145553.367500", "145554.155000", "145554.942500", "145555.732500", "145556.520000", "145557.307500", "145558.095000", "145558.885000", "145559.672500", "145600.460000", "145601.250000", "145602.037500", "145602.825000", "145603.612500", "145604.402500", "145605.190000", "145605.977500", "145606.765000", "145607.555000", "145608.342500", "145609.130000", "145609.917500", "145610.707500", "145611.495000", "145612.282500", "145613.070000", "145613.860000", "145614.647500", "145615.435000", "145616.222500", "145617.012500", "145617.800000", "145618.587500", "145619.377500", "145620.165000", "145620.952500", "145621.740000", "145622.530000", "145623.317500", "145624.105000", "145624.892500", "145625.682500", "145626.470000", "145627.257500", "145628.045000", "145628.835000", "145629.622500", "145630.410000", "145631.197500", "145631.987500", "145632.775000", "145633.562500", "145634.350000", "145635.140000", "145635.927500", "145636.715000", "145637.505000", "145638.292500", "145639.080000", "145639.867500", "145640.657500", "145641.445000", "145642.232500", "145643.020000", "145643.810000", "145644.597500", "145645.385000", "145646.172500", "145646.962500", "145647.750000", "145648.537500", "145649.325000", "145650.115000", "145650.902500", "145651.690000", "145652.477500", "145653.267500", "145654.055000", "145654.842500", "145655.632500", "145656.420000", "145657.207500", "145657.995000", "145658.785000", "145659.572500", "145700.360000", "145701.147500", "145701.937500", "145702.725000", "145703.512500", "145704.300000", "145705.090000", "145705.877500", "145706.665000", "145707.452500", "145708.242500", "145709.030000", "145709.817500", "145710.605000", "145711.395000", "145712.182500", "145712.970000", "145713.760000", "145714.547500", "145715.335000", "145716.122500", "145716.912500", "145717.700000", "145718.487500", "145719.275000", "145720.065000", "145720.852500", "145721.640000", "145722.427500", "145723.217500", "145724.005000", "145724.792500", "145725.580000", "145726.370000", "145727.157500", "145727.945000", "145728.732500", "145729.522500", "145730.310000", "145731.097500", "145731.887500", "145732.675000", "145733.462500", "145734.250000", "145735.040000", "145735.827500", "145736.615000", "145737.402500", "145738.192500", "145738.980000", "145739.767500", "145740.555000", "145741.345000", "145742.132500", "145742.920000", "145743.707500", "145744.497500", "145745.285000", "145746.072500", "145746.860000", "145747.650000", "145748.437500", "145749.225000", "145750.015000", "145750.802500", "145751.590000", "145752.377500", "145753.167500", "145753.955000", "145754.742500", "145755.530000", "145756.320000", "145757.107500", "145757.895000", "145758.682500", "145759.472500", "145800.260000", "145801.047500", "145801.835000", "145802.625000", "145803.412500", "145804.200000", "145804.990000", "145805.777500", "145806.565000", "145807.352500", "145808.142500", "145808.930000", "145809.717500", "145810.505000", "145811.295000", "145812.082500", "145812.870000", "145813.657500", "145814.447500", "145815.235000", "145816.022500", "145816.810000", "145817.600000", "145818.387500", "145819.175000", "145819.962500", "145820.752500", "145821.540000", "145822.327500", "145823.117500", "145823.905000", "145824.692500", "145825.480000", "145826.270000", "145827.057500", "145827.845000", "145828.632500", "145829.422500", "145830.210000", "145830.997500", "145831.785000", "145832.575000", "145833.362500", "145834.150000", "145834.937500", "145835.727500", "145836.515000", "145837.302500", "145838.090000", "145838.880000", "145839.667500", "145840.455000", "145841.245000", "145842.032500", "145842.820000", "145843.607500", "145844.397500", "145845.185000", "145845.972500", "145846.760000", "145847.550000", "145848.337500", "145849.125000", "145849.912500", "145850.702500", "145851.490000", "145852.277500", "145853.065000", "145853.855000", "145854.642500", "145855.430000", "145856.217500", "145857.007500", "145857.795000", "145858.582500", "145859.372500", "145900.160000", "145900.947500", "145901.735000", "145902.525000", "145903.312500", "145904.100000", "145904.887500", "145905.677500", "145906.465000", "145907.252500", "145908.040000", "145908.830000", "145909.617500", "145910.405000", "145911.192500", "145911.982500", "145912.770000", "145913.557500", "145914.345000", "145915.135000", "145915.922500", "145916.710000", "145917.500000", "145918.287500", "145919.075000", "145919.862500", "145920.652500", "145921.440000", "145922.227500", "145923.015000", "145923.805000", "145924.592500", "145925.380000", "145926.167500", "145926.957500", "145927.745000", "145928.532500", "145929.320000", "145930.110000", "145930.897500", "145931.685000", "145932.472500", "145933.262500", "145934.050000", "145934.837500", "145935.627500", "145936.415000", "145937.202500", "145937.990000", "145938.780000", "145939.567500", "145940.355000", "145941.142500", "145941.932500", "145942.720000", "145943.507500", "145944.295000", "145945.085000", "145945.872500", "145946.660000", "145947.447500", "145948.237500", "145949.025000", "145949.812500", "145950.600000", "145951.390000", "145952.177500", "145952.965000", "145953.755000", "145954.542500", "145955.330000", "145956.117500", "145956.907500", "145957.695000", "145958.482500", "145959.270000", "150000.060000", "150000.847500", "150001.635000", "150002.422500", "150003.212500", "150004.000000", "150004.787500", "150005.575000", "150006.365000", "150007.152500", "150007.940000", "150008.727500", "150009.517500", "150010.305000", "150011.092500", "150011.882500", "150012.670000", "150013.457500", "150014.245000", "150015.035000", "150015.822500", "150016.610000", "150017.397500", "150018.187500", "150018.975000", "150019.762500", "150020.550000", "150021.340000", "150022.127500", "150022.915000", "150023.702500", "150024.492500", "150025.280000", "150026.067500", "150026.855000", "150027.645000", "150028.432500", "150029.220000", "150030.010000", "150030.797500", "150031.585000", "150032.372500", "150033.162500", "150033.950000", "150034.737500", "150035.525000", "150036.315000", "150037.102500", "150037.890000", "150038.677500", "150039.467500", "150040.255000", "150041.042500", "150041.830000", "150042.620000", "150043.407500", "150044.195000", "150044.982500", "150045.772500", "150046.560000", "150047.347500", "150048.137500", "150048.925000", "150049.712500", "150050.500000", "150051.290000", "150052.077500", "150052.865000", "150053.652500", "150054.442500", "150055.230000", "150056.017500", "150056.805000", "150057.595000", "150058.382500", "150059.170000", "150059.957500", "150100.747500", "150101.535000", "150102.322500", "150103.110000", "150103.900000", "150104.687500", "150105.475000", "150106.265000", "150107.052500", "150107.840000", "150108.627500", "150109.417500", "150110.205000", "150110.992500", "150111.780000", "150112.570000", "150113.357500", "150114.145000", "150114.932500", "150115.722500", "150116.510000", "150117.297500", "150118.085000", "150118.875000", "150119.662500", "150120.450000", "150121.240000", "150122.027500", "150122.815000"],
      "ContentTime": ["145359.796000", "145359.796000", "145359.796000", "145359.796000", "145359.796000", "145359.796000", "145359.812000", "145359.812000", "145359.812000", "145359.812000", "145359.812000", "145359.812000", "145359.812000", "145359.828000", "145359.828000", "145419.781000", "145419.781000", "145419.781000", "145419.781000", "145419.781000", "145419.781000", "145419.781000", "145419.781000", "145419.796000", "145419.796000", "145419.796000", "145419.796000", "145419.796000", "145419.796000", "145419.796000", "145419.812000", "145419.812000", "145419.812000", "145419.812000", "145419.812000", "145419.812000", "145419.812000", "145419.812000", "145419.828000", "145419.828000", "145439.781000", "145439.781000", "145439.781000", "145439.781000", "145439.781000", "145439.781000", "145439.781000", "145439.781000", "145439.796000", "145439.796000", "145439.796000", "145439.796000", "145439.796000", "145439.796000", "145439.796000", "145439.812000", "145439.812000", "145439.812000", "145439.812000", "145439.812000", "145439.812000", "145439.812000", "145439.828000", "145439.828000", "145439.828000", "145439.828000", "145459.781000", "145459.781000", "145459.781000", "145459.781000", "145459.781000", "145459.781000", "145459.781000", "145459.781000", "145459.796000", "145459.796000", "145459.796000", "145459.796000", "145459.796000", "145459.796000", "145459.796000", "145459.796000", "145459.812000", "145459.812000", "145459.812000", "145459.812000", "145459.812000", "145459.812000", "145459.812000", "145459.828000", "145459.828000", "145519.781000", "145519.781000", "145519.781000", "145519.781000", "145519.781000", "145519.781000", "145519.781000", "145519.781000", "145519.796000", "145519.796000", "145519.796000", "145519.796000", "145519.796000", "145519.796000", "145519.796000", "145519.796000", "145519.812000", "145519.812000", "145519.812000", "145519.812000", "145519.812000", "145519.812000", "145519.812000", "145519.828000", "145519.828000", "145519.828000", "145539.781000", "145539.781000", "145539.781000", "145539.781000", "145539.781000", "145539.781000", "145539.781000", "145539.781000", "145539.796000", "145539.796000", "145539.796000", "145539.796000", "145539.796000", "145539.796000", "145539.796000", "145539.796000", "145539.812000", "145539.812000", "145539.812000", "145539.812000", "145539.812000", "145539.812000", "145539.812000", "145539.828000", "145539.828000", "145559.781000", "145559.781000", "145559.781000", "145559.781000", "145559.781000", "145559.781000", "145559.781000", "145559.781000", "145559.796000", "145559.796000", "145559.796000", "145559.796000", "145559.796000", "145559.796000", "145559.796000", "145559.796000", "145559.812000", "145559.812000", "145559.812000", "145559.812000", "145559.812000", "145559.812000", "145559.812000", "145559.828000", "145559.828000", "145559.828000", "145619.781000", "145619.781000", "145619.781000", "145619.781000", "145619.781000", "145619.781000", "145619.781000", "145619.781000", "145619.796000", "145619.796000", "145619.796000", "145619.796000", "145619.796000", "145619.796000", "145619.796000", "145619.796000", "145619.812000", "145619.812000", "145619.812000", "145619.812000", "145619.812000", "145619.812000", "145619.812000", "145619.828000", "145619.828000", "145639.781000", "145639.781000", "145639.781000", "145639.781000", "145639.781000", "145639.781000", "145639.781000", "145639.781000", "145639.796000", "145639.796000", "145639.796000", "145639.796000", "145639.796000", "145639.796000", "145639.796000", "145639.796000", "145639.812000", "145639.812000", "145639.812000", "145639.812000", "145639.812000", "145639.812000", "145639.812000", "145639.828000", "145639.828000", "145639.828000", "145659.781000", "145659.781000", "145659.781000", "145659.781000", "145659.781000", "145659.781000", "145659.781000", "145659.781000", "145659.796000", "145659.796000", "145659.796000", "145659.796000", "145659.796000", "145659.796000", "145659.796000", "145659.796000", "145659.812000", "145659.812000", "145659.812000", "145659.812000", "145659.812000", "145659.812000", "145659.812000", "145659.812000", "145659.828000", "145719.781000", "145719.781000", "145719.781000", "145719.781000", "145719.781000", "145719.781000", "145719.781000", "145719.781000", "145719.796000", "145719.796000", "145719.796000", "145719.796000", "145719.796000", "145719.796000", "145719.796000", "145719.796000", "145719.812000", "145719.812000", "145719.812000", "145719.812000", "145719.812000", "145719.812000", "145719.812000", "145719.828000", "145719.828000", "145719.828000", "145739.781000", "145739.781000", "145739.781000", "145739.781000", "145739.781000", "145739.781000", "145739.781000", "145739.781000", "145739.796000", "145739.796000", "145739.812000", "145739.812000", "145739.812000", "145739.812000", "145739.812000", "145739.812000", "145739.812000", "145739.828000", "145739.828000", "145739.828000", "145739.828000", "145739.828000", "145739.828000", "145739.828000", "145739.828000", "145759.781000", "145759.781000", "145759.781000", "145759.781000", "145759.781000", "145759.781000", "145759.781000", "145759.781000", "145759.796000", "145759.796000", "145759.796000", "145759.796000", "145759.796000", "145759.796000", "145759.796000", "145759.812000", "145759.812000", "145759.812000", "145759.812000", "145759.812000", "145759.812000", "145759.812000", "145759.812000", "145759.828000", "145759.828000", "145759.828000", "145819.781000", "145819.781000", "145819.781000", "145819.781000", "145819.781000", "145819.781000", "145819.781000", "145819.781000", "145819.796000", "145819.796000", "145819.796000", "145819.796000", "145819.796000", "145819.796000", "145819.796000", "145819.812000", "145819.812000", "145819.812000", "145819.812000", "145819.812000", "145819.812000", "145819.812000", "145819.812000", "145819.828000", "145819.828000", "145839.781000", "145839.781000", "145839.781000", "145839.781000", "145839.781000", "145839.781000", "145839.781000", "145839.781000", "145839.796000", "145839.796000", "145839.796000", "145839.796000", "145839.796000", "145839.796000", "145839.796000", "145839.796000", "145839.812000", "145839.812000", "145839.812000", "145839.812000", "145839.812000", "145839.812000", "145839.812000", "145839.812000", "145839.828000", "145839.828000", "145859.781000", "145859.781000", "145859.781000", "145859.781000", "145859.781000", "145859.781000", "145859.781000", "145859.781000", "145859.796000", "145859.796000", "145859.796000", "145859.796000", "145859.796000", "145859.796000", "145859.796000", "145859.796000", "145859.812000", "145859.812000", "145859.812000", "145859.812000", "145859.812000", "145859.812000", "145859.812000", "145859.828000", "145859.828000", "145919.781000", "145919.781000", "145919.781000", "145919.781000", "145919.781000", "145919.781000", "145919.781000", "145919.781000", "145919.796000", "145919.796000", "145919.796000", "145919.796000", "145919.796000", "145919.796000", "145919.796000", "145919.796000", "145919.812000", "145919.812000", "145919.812000", "145919.812000", "145919.812000", "145919.812000", "145919.812000", "145919.828000", "145919.828000", "145939.781000", "145939.781000", "145939.781000", "145939.781000", "145939.781000", "145939.781000", "145939.781000", "145939.796000", "145939.796000", "145939.796000", "145939.796000", "145939.796000", "145939.796000", "145939.796000", "145939.796000", "145939.812000", "145939.812000", "145939.812000", "145939.812000", "145939.812000", "145939.812000", "145939.812000", "145939.812000", "145939.828000", "145939.828000", "145939.828000", "145959.781000", "145959.781000", "145959.781000", "145959.781000", "145959.781000", "145959.781000", "145959.781000", "145959.796000", "145959.796000", "145959.796000", "145959.796000", "145959.796000", "145959.796000", "145959.796000", "145959.796000", "145959.812000", "145959.812000", "145959.812000", "145959.812000", "145959.812000", "145959.812000", "145959.812000", "145959.812000", "145959.828000", "145959.828000", "150019.781000", "150019.781000", "150019.781000", "150019.781000", "150019.781000", "150019.781000", "150019.781000", "150019.781000", "150019.796000", "150019.796000", "150019.796000", "150019.796000", "150019.796000", "150019.796000", "150019.796000", "150019.796000", "150019.812000", "150019.812000", "150019.812000", "150019.812000", "150019.812000", "150019.812000", "150019.812000", "150019.828000", "150019.828000", "150019.828000", "150039.781000", "150039.781000", "150039.781000", "150039.781000", "150039.781000", "150039.781000", "150039.781000", "150039.781000", "150039.796000", "150039.796000", "150039.796000", "150039.796000", "150039.796000", "150039.796000", "150039.796000", "150039.812000", "150039.812000", "150039.812000", "150039.812000", "150039.812000", "150039.812000", "150039.812000", "150039.812000", "150039.828000", "150039.828000", "150059.781000", "150059.781000", "150059.781000", "150059.781000", "150059.781000", "150059.781000", "150059.781000", "150059.781000", "150059.796000", "150059.796000", "150059.796000", "150059.796000", "150059.796000", "150059.796000", "150059.796000", "150059.796000", "150059.812000", "150059.812000", "150059.812000", "150059.812000", "150059.812000", "150059.812000", "150059.812000", "150059.812000", "150059.828000", "150059.828000", "150119.781000", "150119.781000", "150119.781000", "150119.781000", "150119.781000", "150119.781000", "150119.781000", "150119.781000", "150119.796000", "150119.796000", "150119.796000", "150119.796000", "150119.796000", "150119.796000", "150119.796000", "150119.812000", "150119.812000", "150119.812000", "150119.812000", "150119.812000", "150119.812000", "150119.812000", "150119.812000", "150119.828000", "150119.828000", "150123.906000", "150123.906000", "150123.906000", "150123.906000", "150123.906000", "150123.906000"],
