{
  "AcquisitionMatrixPE": 104,
  "AcquisitionNumber": 1,
  "AcquisitionTime": "14:14:35.042500",
  "BandwidthPerPixelPhaseEncode": 13.935,
  "BaseResolution": 104,
  "CoilString": "C:HEA;HEP",
  "ConversionSoftware": "dcm2niix",
  "ConversionSoftwareVersion": "v1.0.20210317",
  "DerivedVendorReportedEchoSpacing": 0.000690017,
  "DeviceSerialNumber": "35450",
  "DwellTime": 2.5e-06,
  "EchoTime": 0.0348,
  "EffectiveEchoSpacing": 0.000690017,
  "FlipAngle": 55,
  "ImageComments": "Unaliased MB8/PE3 (remote)",
  "ImageOrientationPatientDICOM": [0.999785, -0.0023452, -0.0205873, -1.6668e-09, 0.993574, -0.113183],
  "ImageType": [
    "ORIGINAL",
    "PRIMARY",
    "M",
    "MB",
    "ND",
    "MOSAIC"
],
  "ImagingFrequency": 123.235,
  "InPlanePhaseEncodingDirectionDICOM": "COL",
  "InstitutionAddress": "Univeristy Ave. 197,Newark,North East,US,07102-1814",
  "InstitutionName": "RUBIC",
  "InstitutionalDepartmentName": "Department",
  "MRAcquisitionType": "2D",
  "MagneticFieldStrength": 3,
  "Manufacturer": "Siemens",
  "ManufacturersModelName": "TrioTim",
  "Modality": "MR",
  "MultibandAccelerationFactor": 8,
  "PartialFourier": 0.875,
  "PatientPosition": "HFS",
  "PercentPhaseFOV": 100,
  "PercentSampling": 100,
  "PhaseEncodingDirection": "j-",
  "PhaseEncodingSteps": 91,
  "PhaseResolution": 1,
  "PixelBandwidth": 1923,
  "ProcedureStepDescription": "Cole^Michael",
  "ProtocolName": "cmrr_mbep2d_bold_2mm_MB8_Rest",
  "PulseSequenceDetails": "%CustomerSeq%\\cmrr_mbep2d_bold",
  "ReceiveCoilName": "32Ch_Head",
  "ReconMatrixPE": 104,
  "RepetitionTime": 0.785,
  "SAR": 0.177744,
  "ScanOptions": "PFP\\FS",
  "ScanningSequence": "EP",
  "SequenceName": "epfid2d1_104",
  "SequenceVariant": "SK\\SS",
  "SeriesDescription": "cmrr_mbep2d_bold_2mm_MB8_Rest",
  "SeriesNumber": 9,
  "ShimSetting": [2084, -472, -7474, 236, -12, -177, -152, -16],
  "SliceThickness": 2,
  "SliceTiming": [0, 0.4375, 0.0875, 0.525, 0.175, 0.6125, 0.2625, 0.7, 0.35, 0, 0.4375, 0.0875, 0.525, 0.175, 0.6125, 0.2625, 0.7, 0.35, 0, 0.4375, 0.0875, 0.525, 0.175, 0.6125, 0.2625, 0.7, 0.35, 0, 0.4375, 0.0875, 0.525, 0.175, 0.6125, 0.2625, 0.7, 0.35, 0, 0.4375, 0.0875, 0.525, 0.175, 0.6125, 0.2625, 0.7, 0.35, 0, 0.4375, 0.0875, 0.525, 0.175, 0.6125, 0.2625, 0.7, 0.35, 0, 0.4375, 0.0875, 0.525, 0.175, 0.6125, 0.2625, 0.7, 0.35, 0, 0.4375, 0.0875, 0.525, 0.175, 0.6125, 0.2625, 0.7, 0.35],
  "SoftwareVersions": "syngo MR B19",
  "SpacingBetweenSlices": 2,
  "StationName": "MRC35450",
  "TaskName": "rest",
  "TotalReadoutTime": 0.0710717,
  "TxRefAmp": 379.029,
  "dcmmeta_affine": [
    [-1.999570608139038, -3.3336040594633687e-09, -0.04144096001982689, 105.46259307861328],
    [0.004690391942858696, 1.987148404121399, -0.22631658613681793, -72.8260269165039],
    [-0.041174668818712234, 0.22636517882347107, 1.9867217540740967, -108.26415252685547],
    [0.0, 0.0, 0.0, 1.0]
],
  "dcmmeta_reorient_transform": [
    [0.0, -1.0, 0.0, 103.0],
    [1.0, 0.0, 0.0, 0.0],
    [0.0, 0.0, 1.0, 0.0],
    [0.0, 0.0, 0.0, 1.0]
],
  "dcmmeta_shape": [104, 104, 72, 1070],
  "dcmmeta_slice_dim": 2,
  "dcmmeta_version": 0.6,
  "global": {
    "const": {
      "AcquisitionMatrix": [104, 0, 0, 104],
      "AngioFlag": "N",
      "BitsAllocated": 16,
      "BitsStored": 12,
      "Columns": 936,
      "EchoNumbers": 1,
      "EchoTime": 34.8,
      "EchoTrainLength": 1,
      "FlipAngle": 55.0,
      "HighBit": 11,
      "ImageOrientationPatient": [0.99978530782605, -0.0023451958678, -0.0205873337643, -1.666802e-09, 0.99357420507568, -0.1131825914539],
      "ImagePositionPatient": [-937.28397040463, -956.55279234634, 26.348039042317],
      "ImageType": [
        "ORIGINAL",
        "PRIMARY",
        "M",
        "MB",
        "ND",
        "MOSAIC"
],
      "ImagedNucleus": "1H",
      "ImagingFrequency": 123.23454,
      "InPlanePhaseEncodingDirection": "COL",
      "MRAcquisitionType": "2D",
      "MagneticFieldStrength": 3.0,
      "Manufacturer": "SIEMENS",
      "ManufacturerModelName": "TrioTim",
      "Modality": "MR",
      "NumberOfAverages": 1.0,
      "NumberOfPhaseEncodingSteps": 91,
      "PercentPhaseFieldOfView": 100.0,
      "PercentSampling": 100.0,
      "PerformedProcedureStepStartTime": "133243.796000",
      "PhotometricInterpretation": "MONOCHROME2",
      "PixelBandwidth": 1923.0,
      "PixelRepresentation": 0,
      "PixelSpacing": [2.0, 2.0],
      "ProtocolName": "cmrr_mbep2d_bold_2mm_MB8_Rest",
      "RepetitionTime": 785.0,
      "Rows": 936,
      "SAR": 0.17774398670998,
      "SamplesPerPixel": 1,
      "ScanOptions": [
        "PFP",
        "FS"
],
      "ScanningSequence": "EP",
      "SequenceName": "epfid2d1_104",
      "SequenceVariant": [
        "SK",
        "SS"
],
      "SeriesDescription": "cmrr_mbep2d_bold_2mm_MB8_Rest",
      "SeriesNumber": 9,
      "SeriesTime": "141459.812000",
      "SliceLocation": -101.48974162366,
      "SliceThickness": 2.0,
      "SmallestImagePixelValue": 0,
      "SoftwareVersions": "syngo MR B19",
      "SpacingBetweenSlices": 2.0000000062297,
      "SpecificCharacterSet": "ISO_IR 100",
      "StudyID": "1",
      "StudyTime": "133243.703000",
      "TransmitCoilName": "Body",
      "VariableFlipAngleFlag": "N",
      "WindowCenterWidthExplanation": "Algo1",
      "dBdt": 0.0},
    "slices": {}
  },
  "time": {
    "samples": {
      "AcquisitionNumber": [1, 2, 3, 4, 5, 6, 7, 8, 9, 10, 11, 12, 13, 14, 15, 16, 17, 18, 19, 20, 21, 22, 23, 24, 25, 26, 27, 28, 29, 30, 31, 32, 33, 34, 35, 36, 37, 38, 39, 40, 41, 42, 43, 44, 45, 46, 47, 48, 49, 50, 51, 52, 53, 54, 55, 56, 57, 58, 59, 60, 61, 62, 63, 64, 65, 66, 67, 68, 69, 70, 71, 72, 73, 74, 75, 76, 77, 78, 79, 80, 81, 82, 83, 84, 85, 86, 87, 88, 89, 90, 91, 92, 93, 94, 95, 96, 97, 98, 99, 100, 101, 102, 103, 104, 105, 106, 107, 108, 109, 110, 111, 112, 113, 114, 115, 116, 117, 118, 119, 120, 121, 122, 123, 124, 125, 126, 127, 128, 129, 130, 131, 132, 133, 134, 135, 136, 137, 138, 139, 140, 141, 142, 143, 144, 145, 146, 147, 148, 149, 150, 151, 152, 153, 154, 155, 156, 157, 158, 159, 160, 161, 162, 163, 164, 165, 166, 167, 168, 169, 170, 171, 172, 173, 174, 175, 176, 177, 178, 179, 180, 181, 182, 183, 184, 185, 186, 187, 188, 189, 190, 191, 192, 193, 194, 195, 196, 197, 198, 199, 200, 201, 202, 203, 204, 205, 206, 207, 208, 209, 210, 211, 212, 213, 214, 215, 216, 217, 218, 219, 220, 221, 222, 223, 224, 225, 226, 227, 228, 229, 230, 231, 232, 233, 234, 235, 236, 237, 238, 239, 240, 241, 242, 243, 244, 245, 246, 247, 248, 249, 250, 251, 252, 253, 254, 255, 256, 257, 258, 259, 260, 261, 262, 263, 264, 265, 266, 267, 268, 269, 270, 271, 272, 273, 274, 275, 276, 277, 278, 279, 280, 281, 282, 283, 284, 285, 286, 287, 288, 289, 290, 291, 292, 293, 294, 295, 296, 297, 298, 299, 300, 301, 302, 303, 304, 305, 306, 307, 308, 309, 310, 311, 312, 313, 314, 315, 316, 317, 318, 319, 320, 321, 322, 323, 324, 325, 326, 327, 328, 329, 330, 331, 332, 333, 334, 335, 336, 337, 338, 339, 340, 341, 342, 343, 344, 345, 346, 347, 348, 349, 350, 351, 352, 353, 354, 355, 356, 357, 358, 359, 360, 361, 362, 363, 364, 365, 366, 367, 368, 369, 370, 371, 372, 373, 374, 375, 376, 377, 378, 379, 380, 381, 382, 383, 384, 385, 386, 387, 388, 389, 390, 391, 392, 393, 394, 395, 396, 397, 398, 399, 400, 401, 402, 403, 404, 405, 406, 407, 408, 409, 410, 411, 412, 413, 414, 415, 416, 417, 418, 419, 420, 421, 422, 423, 424, 425, 426, 427, 428, 429, 430, 431, 432, 433, 434, 435, 436, 437, 438, 439, 440, 441, 442, 443, 444, 445, 446, 447, 448, 449, 450, 451, 452, 453, 454, 455, 456, 457, 458, 459, 460, 461, 462, 463, 464, 465, 466, 467, 468, 469, 470, 471, 472, 473, 474, 475, 476, 477, 478, 479, 480, 481, 482, 483, 484, 485, 486, 487, 488, 489, 490, 491, 492, 493, 494, 495, 496, 497, 498, 499, 500, 501, 502, 503, 504, 505, 506, 507, 508, 509, 510, 511, 512, 513, 514, 515, 516, 517, 518, 519, 520, 521, 522, 523, 524, 525, 526, 527, 528, 529, 530, 531, 532, 533, 534, 535, 536, 537, 538, 539, 540, 541, 542, 543, 544, 545, 546, 547, 548, 549, 550, 551, 552, 553, 554, 555, 556, 557, 558, 559, 560, 561, 562, 563, 564, 565, 566, 567, 568, 569, 570, 571, 572, 573, 574, 575, 576, 577, 578, 579, 580, 581, 582, 583, 584, 585, 586, 587, 588, 589, 590, 591, 592, 593, 594, 595, 596, 597, 598, 599, 600, 601, 602, 603, 604, 605, 606, 607, 608, 609, 610, 611, 612, 613, 614, 615, 616, 617, 618, 619, 620, 621, 622, 623, 624, 625, 626, 627, 628, 629, 630, 631, 632, 633, 634, 635, 636, 637, 638, 639, 640, 641, 642, 643, 644, 645, 646, 647, 648, 649, 650, 651, 652, 653, 654, 655, 656, 657, 658, 659, 660, 661, 662, 663, 664, 665, 666, 667, 668, 669, 670, 671, 672, 673, 674, 675, 676, 677, 678, 679, 680, 681, 682, 683, 684, 685, 686, 687, 688, 689, 690, 691, 692, 693, 694, 695, 696, 697, 698, 699, 700, 701, 702, 703, 704, 705, 706, 707, 708, 709, 710, 711, 712, 713, 714, 715, 716, 717, 718, 719, 720, 721, 722, 723, 724, 725, 726, 727, 728, 729, 730, 731, 732, 733, 734, 735, 736, 737, 738, 739, 740, 741, 742, 743, 744, 745, 746, 747, 748, 749, 750, 751, 752, 753, 754, 755, 756, 757, 758, 759, 760, 761, 762, 763, 764, 765, 766, 767, 768, 769, 770, 771, 772, 773, 774, 775, 776, 777, 778, 779, 780, 781, 782, 783, 784, 785, 786, 787, 788, 789, 790, 791, 792, 793, 794, 795, 796, 797, 798, 799, 800, 801, 802, 803, 804, 805, 806, 807, 808, 809, 810, 811, 812, 813, 814, 815, 816, 817, 818, 819, 820, 821, 822, 823, 824, 825, 826, 827, 828, 829, 830, 831, 832, 833, 834, 835, 836, 837, 838, 839, 840, 841, 842, 843, 844, 845, 846, 847, 848, 849, 850, 851, 852, 853, 854, 855, 856, 857, 858, 859, 860, 861, 862, 863, 864, 865, 866, 867, 868, 869, 870, 871, 872, 873, 874, 875, 876, 877, 878, 879, 880, 881, 882, 883, 884, 885, 886, 887, 888, 889, 890, 891, 892, 893, 894, 895, 896, 897, 898, 899, 900, 901, 902, 903, 904, 905, 906, 907, 908, 909, 910, 911, 912, 913, 914, 915, 916, 917, 918, 919, 920, 921, 922, 923, 924, 925, 926, 927, 928, 929, 930, 931, 932, 933, 934, 935, 936, 937, 938, 939, 940, 941, 942, 943, 944, 945, 946, 947, 948, 949, 950, 951, 952, 953, 954, 955, 956, 957, 958, 959, 960, 961, 962, 963, 964, 965, 966, 967, 968, 969, 970, 971, 972, 973, 974, 975, 976, 977, 978, 979, 980, 981, 982, 983, 984, 985, 986, 987, 988, 989, 990, 991, 992, 993, 994, 995, 996, 997, 998, 999, 1000, 1001, 1002, 1003, 1004, 1005, 1006, 1007, 1008, 1009, 1010, 1011, 1012, 1013, 1014, 1015, 1016, 1017, 1018, 1019, 1020, 1021, 1022, 1023, 1024, 1025, 1026, 1027, 1028, 1029, 1030, 1031, 1032, 1033, 1034, 1035, 1036, 1037, 1038, 1039, 1040, 1041, 1042, 1043, 1044, 1045, 1046, 1047, 1048, 1049, 1050, 1051, 1052, 1053, 1054, 1055, 1056, 1057, 1058, 1059, 1060, 1061, 1062, 1063, 1064, 1065, 1066, 1067, 1068, 1069, 1070],
      "AcquisitionTime": ["141435.042500", "141435.830000", "141436.617500", "141437.407500", "141438.195000", "141438.982500", "141439.770000", "141440.560000", "141441.347500", "141442.135000", "141442.922500", "141443.712500", "141444.500000", "141445.287500", "141446.075000", "141446.865000", "141447.652500", "141448.440000", "141449.227500", "141450.017500", "141450.805000", "141451.592500", "141452.382500", "141453.170000", "141453.957500", "141454.745000", "141455.535000", "141456.322500", "141457.110000", "141457.897500", "141458.687500", "141459.475000", "141500.262500", "141501.050000", "141501.840000", "141502.627500", "141503.415000", "141504.202500", "141504.992500", "141505.780000", "141506.567500", "141507.355000", "141508.145000", "141508.932500", "141509.720000", "141510.510000", "141511.297500", "141512.085000", "141512.872500", "141513.662500", "141514.450000", "141515.237500", "141516.025000", "141516.815000", "141517.602500", "141518.390000", "141519.177500", "141519.967500", "141520.755000", "141521.542500", "141522.330000", "141523.120000", "141523.907500", "141524.695000", "141525.482500", "141526.272500", "141527.060000", "141527.847500", "141528.637500", "141529.425000", "141530.212500", "141531.000000", "141531.790000", "141532.577500", "141533.365000", "141534.152500", "141534.942500", "141535.730000", "141536.517500", "141537.305000", "141538.095000", "141538.882500", "141539.670000", "141540.457500", "141541.247500", "141542.035000", "141542.822500", "141543.610000", "141544.400000", "141545.187500", "141545.975000", "141546.765000", "141547.552500", "141548.340000", "141549.127500", "141549.917500", "141550.705000", "141551.492500", "141552.280000", "141553.070000", "141553.857500", "141554.645000", "141555.432500", "141556.222500", "141557.010000", "141557.797500", "141558.585000", "141559.375000", "141600.162500", "141600.950000", "141601.737500", "141602.527500", "141603.315000", "141604.102500", "141604.892500", "141605.680000", "141606.467500", "141607.255000", "141608.045000", "141608.832500", "141609.620000", "141610.407500", "141611.197500", "141611.985000", "141612.772500", "141613.560000", "141614.350000", "141615.137500", "141615.925000", "141616.712500", "141617.502500", "141618.290000", "141619.077500", "141619.865000", "141620.655000", "141621.442500", "141622.230000", "141623.020000", "141623.807500", "141624.595000", "141625.382500", "141626.172500", "141626.960000", "141627.747500", "141628.535000", "141629.325000", "141630.112500", "141630.900000", "141631.687500", "141632.477500", "141633.265000", "141634.052500", "141634.840000", "141635.630000", "141636.417500", "141637.205000", "141637.992500", "141638.782500", "141639.570000", "141640.357500", "141641.147500", "141641.935000", "141642.722500", "141643.510000", "141644.300000", "141645.087500", "141645.875000", "141646.662500", "141647.452500", "141648.240000", "141649.027500", "141649.815000", "141650.605000", "141651.392500", "141652.180000", "141652.967500", "141653.757500", "141654.545000", "141655.332500", "141656.120000", "141656.910000", "141657.697500", "141658.485000", "141659.275000", "141700.062500", "141700.850000", "141701.637500", "141702.427500", "141703.215000", "141704.002500", "141704.790000", "141705.580000", "141706.367500", "141707.155000", "141707.942500", "141708.732500", "141709.520000", "141710.307500", "141711.095000", "141711.885000", "141712.672500", "141713.460000", "141714.247500", "141715.037500", "141715.825000", "141716.612500", "141717.402500", "141718.190000", "141718.977500", "141719.765000", "141720.555000", "141721.342500", "141722.130000", "141722.917500", "141723.707500", "141724.495000", "141725.282500", "141726.070000", "141726.860000", "141727.647500", "141728.435000", "141729.222500", "141730.012500", "141730.800000", "141731.587500", "141732.375000", "141733.165000", "141733.952500", "141734.740000", "141735.530000", "141736.317500", "141737.105000", "141737.892500", "141738.682500", "141739.470000", "141740.257500", "141741.045000", "141741.835000", "141742.622500", "141743.410000", "141744.197500", "141744.987500", "141745.775000", "141746.562500", "141747.350000", "141748.140000", "141748.927500", "141749.715000", "141750.502500", "141751.292500", "141752.080000", "141752.867500", "141753.657500", "141754.445000", "141755.232500", "141756.020000", "141756.810000", "141757.597500", "141758.385000", "141759.172500", "141759.962500", "141800.750000", "141801.537500", "141802.325000", "141803.115000", "141803.902500", "141804.690000", "141805.477500", "141806.267500", "141807.055000", "141807.842500", "141808.632500", "141809.420000", "141810.207500", "141810.995000", "141811.785000", "141812.572500", "141813.360000", "141814.147500", "141814.937500", "141815.725000", "141816.512500", "141817.300000", "141818.090000", "141818.877500", "141819.665000", "141820.452500", "141821.242500", "141822.030000", "141822.817500", "141823.605000", "141824.395000", "141825.182500", "141825.970000", "141826.760000", "141827.547500", "141828.335000", "141829.122500", "141829.912500", "141830.700000", "141831.487500", "141832.275000", "141833.065000", "141833.852500", "141834.640000", "141835.427500", "141836.217500", "141837.005000", "141837.792500", "141838.580000", "141839.370000", "141840.157500", "141840.945000", "141841.732500", "141842.522500", "141843.310000", "141844.097500", "141844.887500", "141845.675000", "141846.462500", "141847.250000", "141848.040000", "141848.827500", "141849.615000", "141850.402500", "141851.192500", "141851.980000", "141852.767500", "141853.555000", "141854.345000", "141855.132500", "141855.920000", "141856.707500", "141857.497500", "141858.285000", "141859.072500", "141859.860000", "141900.650000", "141901.437500", "141902.225000", "141903.015000", "141903.802500", "141904.590000", "141905.377500", "141906.167500", "141906.955000", "141907.742500", "141908.530000", "141909.320000", "141910.107500", "141910.895000", "141911.682500", "141912.472500", "141913.260000", "141914.047500", "141914.835000", "141915.625000", "141916.412500", "141917.200000", "141917.987500", "141918.777500", "141919.565000", "141920.352500", "141921.142500", "141921.930000", "141922.717500", "141923.505000", "141924.295000", "141925.082500", "141925.870000", "141926.657500", "141927.447500", "141928.235000", "141929.022500", "141929.810000", "141930.600000", "141931.387500", "141932.175000", "141932.962500", "141933.752500", "141934.540000", "141935.327500", "141936.115000", "141936.905000", "141937.692500", "141938.480000", "141939.270000", "141940.057500", "141940.845000", "141941.632500", "141942.422500", "141943.210000", "141943.997500", "141944.785000", "141945.575000", "141946.362500", "141947.150000", "141947.937500", "141948.727500", "141949.515000", "141950.302500", "141951.090000", "141951.880000", "141952.667500", "141953.455000", "141954.242500", "141955.032500", "141955.820000", "141956.607500", "141957.397500", "141958.185000", "141958.972500", "141959.760000", "142000.550000", "142001.337500", "142002.125000", "142002.912500", "142003.702500", "142004.490000", "142005.277500", "142006.065000", "142006.855000", "142007.642500", "142008.430000", "142009.217500", "142010.007500", "142010.795000", "142011.582500", "142012.370000", "142013.160000", "142013.947500", "142014.735000", "142015.525000", "142016.312500", "142017.100000", "142017.887500", "142018.677500", "142019.465000", "142020.252500", "142021.040000", "142021.830000", "142022.617500", "142023.405000", "142024.192500", "142024.982500", "142025.770000", "142026.557500", "142027.345000", "142028.135000", "142028.922500", "142029.710000", "142030.497500", "142031.287500", "142032.075000", "142032.862500", "142033.652500", "142034.440000", "142035.227500", "142036.015000", "142036.805000", "142037.592500", "142038.380000", "142039.167500", "142039.957500", "142040.745000", "142041.532500", "142042.320000", "142043.110000", "142043.897500", "142044.685000", "142045.472500", "142046.262500", "142047.050000", "142047.837500", "142048.625000", "142049.415000", "142050.202500", "142050.990000", "142051.780000", "142052.567500", "142053.355000", "142054.142500", "142054.932500", "142055.720000", "142056.507500", "142057.295000", "142058.085000", "142058.872500", "142059.660000", "142100.447500", "142101.237500", "142102.025000", "142102.812500", "142103.600000", "142104.390000", "142105.177500", "142105.965000", "142106.752500", "142107.542500", "142108.330000", "142109.117500", "142109.907500", "142110.695000", "142111.482500", "142112.270000", "142113.060000", "142113.847500", "142114.635000", "142115.422500", "142116.212500", "142117.000000", "142117.787500", "142118.575000", "142119.365000", "142120.152500", "142120.940000", "142121.727500", "142122.517500", "142123.305000", "142124.092500", "142124.882500", "142125.670000", "142126.457500", "142127.245000", "142128.035000", "142128.822500", "142129.610000", "142130.397500", "142131.187500", "142131.975000", "142132.762500", "142133.550000", "142134.340000", "142135.127500", "142135.915000", "142136.702500", "142137.492500", "142138.280000", "142139.067500", "142139.855000", "142140.645000", "142141.432500", "142142.220000", "142143.010000", "142143.797500", "142144.585000", "142145.372500", "142146.162500", "142146.950000", "142147.737500", "142148.525000", "142149.315000", "142150.102500", "142150.890000", "142151.677500", "142152.467500", "142153.255000", "142154.042500", "142154.830000", "142155.620000", "142156.407500", "142157.195000", "142157.982500", "142158.772500", "142159.560000", "142200.347500", "142201.137500", "142201.925000", "142202.712500", "142203.500000", "142204.290000", "142205.077500", "142205.865000", "142206.652500", "142207.442500", "142208.230000", "142209.017500", "142209.805000", "142210.595000", "142211.382500", "142212.170000", "142212.957500", "142213.747500", "142214.535000", "142215.322500", "142216.110000", "142216.900000", "142217.687500", "142218.475000", "142219.265000", "142220.052500", "142220.840000", "142221.627500", "142222.417500", "142223.205000", "142223.992500", "142224.780000", "142225.570000", "142226.357500", "142227.145000", "142227.932500", "142228.722500", "142229.510000", "142230.297500", "142231.085000", "142231.875000", "142232.662500", "142233.450000", "142234.237500", "142235.027500", "142235.815000", "142236.602500", "142237.392500", "142238.180000", "142238.967500", "142239.755000", "142240.545000", "142241.332500", "142242.120000", "142242.907500", "142243.697500", "142244.485000", "142245.272500", "142246.060000", "142246.850000", "142247.637500", "142248.425000", "142249.212500", "142250.002500", "142250.790000", "142251.577500", "142252.365000", "142253.155000", "142253.942500", "142254.730000", "142255.520000", "142256.307500", "142257.095000", "142257.882500", "142258.672500", "142259.460000", "142300.247500", "142301.035000", "142301.825000", "142302.612500", "142303.400000", "142304.187500", "142304.977500", "142305.765000", "142306.552500", "142307.340000", "142308.130000", "142308.917500", "142309.705000", "142310.492500", "142311.282500", "142312.070000", "142312.857500", "142313.647500", "142314.435000", "142315.222500", "142316.010000", "142316.800000", "142317.587500", "142318.375000", "142319.162500", "142319.952500", "142320.740000", "142321.527500", "142322.315000", "142323.105000", "142323.892500", "142324.680000", "142325.467500", "142326.257500", "142327.045000", "142327.832500", "142328.620000", "142329.410000", "142330.197500", "142330.985000", "142331.775000", "142332.562500", "142333.350000", "142334.137500", "142334.927500", "142335.715000", "142336.502500", "142337.290000", "142338.080000", "142338.867500", "142339.655000", "142340.442500", "142341.232500", "142342.020000", "142342.807500", "142343.595000", "142344.385000", "142345.172500", "142345.960000", "142346.747500", "142347.537500", "142348.325000", "142349.112500", "142349.902500", "142350.690000", "142351.477500", "142352.265000", "142353.055000", "142353.842500", "142354.630000", "142355.417500", "142356.207500", "142356.995000", "142357.782500", "142358.570000", "142359.360000", "142400.147500", "142400.935000", "142401.722500", "142402.512500", "142403.300000", "142404.087500", "142404.875000", "142405.665000", "142406.452500", "142407.240000", "142408.030000", "142408.817500", "142409.605000", "142410.392500", "142411.182500", "142411.970000", "142412.757500", "142413.545000", "142414.335000", "142415.122500", "142415.910000", "142416.697500", "142417.487500", "142418.275000", "142419.062500", "142419.850000", "142420.640000", "142421.427500", "142422.215000", "142423.002500", "142423.792500", "142424.580000", "142425.367500", "142426.157500", "142426.945000", "142427.732500", "142428.520000", "142429.310000", "142430.097500", "142430.885000", "142431.672500", "142432.462500", "142433.250000", "142434.037500", "142434.825000", "142435.615000", "142436.402500", "142437.190000", "142437.977500", "142438.767500", "142439.555000", "142440.342500", "142441.132500", "142441.920000", "142442.707500", "142443.495000", "142444.285000", "142445.072500", "142445.860000", "142446.647500", "142447.437500", "142448.225000", "142449.012500", "142449.800000", "142450.590000", "142451.377500", "142452.165000", "142452.952500", "142453.742500", "142454.530000", "142455.317500", "142456.105000", "142456.895000", "142457.682500", "142458.470000", "142459.260000", "142500.047500", "142500.835000", "142501.622500", "142502.412500", "142503.200000", "142503.987500", "142504.775000", "142505.565000", "142506.352500", "142507.140000", "142507.927500", "142508.717500", "142509.505000", "142510.292500", "142511.080000", "142511.870000", "142512.657500", "142513.445000", "142514.232500", "142515.022500", "142515.810000", "142516.597500", "142517.387500", "142518.175000", "142518.962500", "142519.750000", "142520.540000", "142521.327500", "142522.115000", "142522.902500", "142523.692500", "142524.480000", "142525.267500", "142526.055000", "142526.845000", "142527.632500", "142528.420000", "142529.207500", "142529.997500", "142530.785000", "142531.572500", "142532.360000", "142533.150000", "142533.937500", "142534.725000", "142535.515000", "142536.302500", "142537.090000", "142537.877500", "142538.667500", "142539.455000", "142540.242500", "142541.030000", "142541.820000", "142542.607500", "142543.395000", "142544.182500", "142544.972500", "142545.760000", "142546.547500", "142547.335000", "142548.125000", "142548.912500", "142549.700000", "142550.487500", "142551.277500", "142552.065000", "142552.852500", "142553.642500", "142554.430000", "142555.217500", "142556.005000", "142556.795000", "142557.582500", "142558.370000", "142559.157500", "142559.947500", "142600.735000", "142601.522500", "142602.310000", "142603.100000", "142603.887500", "142604.675000", "142605.462500", "142606.252500", "142607.040000", "142607.827500", "142608.615000", "142609.405000", "142610.192500", "142610.980000", "142611.770000", "142612.557500", "142613.345000", "142614.132500", "142614.922500", "142615.710000", "142616.497500", "142617.285000", "142618.075000", "142618.862500", "142619.650000", "142620.437500", "142621.227500", "142622.015000", "142622.802500", "142623.590000", "142624.380000", "142625.167500", "142625.955000", "142626.742500", "142627.532500", "142628.320000", "142629.107500", "142629.897500", "142630.685000", "142631.472500", "142632.260000", "142633.050000", "142633.837500", "142634.625000", "142635.412500", "142636.202500", "142636.990000", "142637.777500", "142638.565000", "142639.355000", "142640.142500", "142640.930000", "142641.717500", "142642.507500", "142643.295000", "142644.082500", "142644.870000", "142645.660000", "142646.447500", "142647.235000", "142648.025000", "142648.812500", "142649.600000", "142650.387500", "142651.177500", "142651.965000", "142652.752500", "142653.540000", "142654.330000", "142655.117500", "142655.905000", "142656.692500", "142657.482500", "142658.270000", "142659.057500", "142659.845000", "142700.635000", "142701.422500", "142702.210000", "142702.997500", "142703.787500", "142704.575000", "142705.362500", "142706.152500", "142706.940000", "142707.727500", "142708.515000", "142709.305000", "142710.092500", "142710.880000", "142711.667500", "142712.457500", "142713.245000", "142714.032500", "142714.820000", "142715.610000", "142716.397500", "142717.185000", "142717.972500", "142718.762500", "142719.550000", "142720.337500", "142721.125000", "142721.915000", "142722.702500", "142723.490000", "142724.280000", "142725.067500", "142725.855000", "142726.642500", "142727.432500", "142728.220000", "142729.007500", "142729.795000", "142730.585000", "142731.372500", "142732.160000", "142732.947500", "142733.737500", "142734.525000", "142735.312500", "142736.100000", "142736.890000", "142737.677500", "142738.465000", "142739.252500", "142740.042500", "142740.830000", "142741.617500", "142742.407500", "142743.195000", "142743.982500", "142744.770000", "142745.560000", "142746.347500", "142747.135000", "142747.922500", "142748.712500", "142749.500000", "142750.287500", "142751.075000", "142751.865000", "142752.652500", "142753.440000", "142754.227500", "142755.017500", "142755.805000", "142756.592500", "142757.382500", "142758.170000", "142758.957500", "142759.745000", "142800.535000", "142801.322500", "142802.110000", "142802.897500", "142803.687500", "142804.475000", "142805.262500", "142806.050000", "142806.840000", "142807.627500", "142808.415000", "142809.202500", "142809.992500", "142810.780000", "142811.567500", "142812.355000", "142813.145000", "142813.932500", "142814.720000", "142815.510000", "142816.297500", "142817.085000", "142817.872500", "142818.662500", "142819.450000", "142820.237500", "142821.025000", "142821.815000", "142822.602500", "142823.390000", "142824.177500", "142824.967500", "142825.755000", "142826.542500", "142827.330000", "142828.120000", "142828.907500", "142829.695000", "142830.482500", "142831.272500", "142832.060000", "142832.847500", "142833.637500", "142834.425000", "142835.212500", "142836.000000", "142836.790000", "142837.577500"],
