{
  "AcquisitionMatrixPE": 104,
  "AcquisitionNumber": 1,
  "AcquisitionTime": "16:39:38.775000",
  "BandwidthPerPixelPhaseEncode": 13.935,
  "BaseResolution": 104,
  "CoilString": "C:HEA;HEP",
  "ConversionSoftware": "dcm2niix",
  "ConversionSoftwareVersion": "v1.0.20210317",
  "DerivedVendorReportedEchoSpacing": 0.000690017,
  "DeviceSerialNumber": "35450",
  "DwellTime": 2.5e-06,
  "EchoTime": 0.0348,
  "EffectiveEchoSpacing": 0.000690017,
  "FlipAngle": 55,
  "ImageComments": "Unaliased MB8/PE3 (remote)",
  "ImageOrientationPatientDICOM": [1, 0, 0, 0, 0.996345, -0.0854169],
  "ImageType": [
    "ORIGINAL",
    "PRIMARY",
    "M",
    "MB",
    "ND",
    "MOSAIC"
],
  "ImagingFrequency": 123.235,
  "InPlanePhaseEncodingDirectionDICOM": "COL",
  "InstitutionAddress": "Univeristy Ave. 197,Newark,North East,US,07102-1814",
  "InstitutionName": "RUBIC",
  "InstitutionalDepartmentName": "Department",
  "MRAcquisitionType": "2D",
  "MagneticFieldStrength": 3,
  "Manufacturer": "Siemens",
  "ManufacturersModelName": "TrioTim",
  "Modality": "MR",
  "MultibandAccelerationFactor": 8,
  "PartialFourier": 0.875,
  "PatientPosition": "HFS",
  "PercentPhaseFOV": 100,
  "PercentSampling": 100,
  "PhaseEncodingDirection": "j-",
  "PhaseEncodingSteps": 91,
  "PhaseResolution": 1,
  "PixelBandwidth": 1923,
  "ProcedureStepDescription": "Cole^Michael",
  "ProtocolName": "cmrr_mbep2d_bold_2mm_MB8_Task_8x",
  "PulseSequenceDetails": "%CustomerSeq%\\cmrr_mbep2d_bold",
  "ReceiveCoilName": "32Ch_Head",
  "ReconMatrixPE": 104,
  "RepetitionTime": 0.785,
  "SAR": 0.141337,
  "ScanOptions": "PFP\\FS",
  "ScanningSequence": "EP",
  "SequenceName": "epfid2d1_104",
  "SequenceVariant": "SK\\SS",
  "SeriesDescription": "cmrr_mbep2d_bold_2mm_MB8_Task_8x",
  "SeriesNumber": 23,
  "ShimSetting": [2111, -294, -7386, 715, -13, 196, -242, -2],
  "SliceThickness": 2,
  "SliceTiming": [0, 0.4375, 0.0875, 0.525, 0.175, 0.6125, 0.2625, 0.7, 0.35, 0, 0.4375, 0.0875, 0.525, 0.175, 0.6125, 0.2625, 0.7, 0.35, 0, 0.4375, 0.0875, 0.525, 0.175, 0.6125, 0.2625, 0.7, 0.35, 0, 0.4375, 0.0875, 0.525, 0.175, 0.6125, 0.2625, 0.7, 0.35, 0, 0.4375, 0.0875, 0.525, 0.175, 0.6125, 0.2625, 0.7, 0.35, 0, 0.4375, 0.0875, 0.525, 0.175, 0.6125, 0.2625, 0.7, 0.35, 0, 0.4375, 0.0875, 0.525, 0.175, 0.6125, 0.2625, 0.7, 0.35, 0, 0.4375, 0.0875, 0.525, 0.175, 0.6125, 0.2625, 0.7, 0.35],
  "SoftwareVersions": "syngo MR B19",
  "SpacingBetweenSlices": 2,
  "StationName": "MRC35450",
  "TaskName": "cpro",
  "TotalReadoutTime": 0.0710717,
  "TxRefAmp": 382.266,
  "dcmmeta_affine": [
    [-2.0, 0.0, 0.0, 105.3559341430664],
    [0.0, 1.9926905632019043, -0.17083384096622467, -70.197998046875],
    [0.0, 0.17083384096622467, 1.9926905632019043, -107.13838958740234],
    [0.0, 0.0, 0.0, 1.0]
],
  "dcmmeta_reorient_transform": [
    [0.0, -1.0, 0.0, 103.0],
    [1.0, 0.0, 0.0, 0.0],
    [0.0, 0.0, 1.0, 0.0],
    [0.0, 0.0, 0.0, 1.0]
],
  "dcmmeta_shape": [104, 104, 72, 581],
  "dcmmeta_slice_dim": 2,
  "dcmmeta_version": 0.6,
  "global": {
    "const": {
      "AcquisitionMatrix": [104, 0, 0, 104],
      "AngioFlag": "N",
      "BitsAllocated": 16,
      "BitsStored": 12,
      "Columns": 936,
      "EchoNumbers": 1,
      "EchoTime": 34.8,
      "EchoTrainLength": 1,
      "FlipAngle": 55.0,
      "HighBit": 11,
      "ImageOrientationPatient": [1.0, 0.0, 0.0, 0.0, 0.99634529631223, -0.0854169217223],
      "ImagePositionPatient": [-937.35593223572, -964.00841945518, -18.47562644131],
      "ImageType": [
        "ORIGINAL",
        "PRIMARY",
        "M",
        "MB",
        "ND",
        "MOSAIC"
],
      "ImagedNucleus": "1H",
      "ImagingFrequency": 123.234545,
      "InPlanePhaseEncodingDirection": "COL",
      "MRAcquisitionType": "2D",
      "MagneticFieldStrength": 3.0,
      "Manufacturer": "SIEMENS",
      "ManufacturerModelName": "TrioTim",
      "Modality": "MR",
      "NumberOfAverages": 1.0,
      "NumberOfPhaseEncodingSteps": 91,
      "PercentPhaseFieldOfView": 100.0,
      "PercentSampling": 100.0,
      "PerformedProcedureStepStartTime": "150639.843000",
      "PhotometricInterpretation": "MONOCHROME2",
      "PixelBandwidth": 1923.0,
      "PixelRepresentation": 0,
      "PixelSpacing": [2.0, 2.0],
      "ProtocolName": "cmrr_mbep2d_bold_2mm_MB8_Task_8x",
      "RepetitionTime": 785.0,
      "Rows": 936,
      "SAR": 0.14133655061537,
      "SamplesPerPixel": 1,
      "ScanOptions": [
        "PFP",
        "FS"
],
      "ScanningSequence": "EP",
      "SequenceName": "epfid2d1_104",
      "SequenceVariant": [
        "SK",
        "SS"
],
      "SeriesDescription": "cmrr_mbep2d_bold_2mm_MB8_Task_8x",
      "SeriesNumber": 23,
      "SeriesTime": "163959.046000",
      "SliceLocation": -100.75073520542,
      "SliceThickness": 2.0,
      "SmallestImagePixelValue": 0,
      "SoftwareVersions": "syngo MR B19",
      "SpacingBetweenSlices": 1.9999999650905,
      "SpecificCharacterSet": "ISO_IR 100",
      "StudyID": "1",
      "StudyTime": "150639.812000",
      "TransmitCoilName": "Body",
      "VariableFlipAngleFlag": "N",
      "WindowCenterWidthExplanation": "Algo1",
      "dBdt": 0.0},
    "slices": {}
  },
  "time": {
    "samples": {
      "AcquisitionNumber": [1, 2, 3, 4, 5, 6, 7, 8, 9, 10, 11, 12, 13, 14, 15, 16, 17, 18, 19, 20, 21, 22, 23, 24, 25, 26, 27, 28, 29, 30, 31, 32, 33, 34, 35, 36, 37, 38, 39, 40, 41, 42, 43, 44, 45, 46, 47, 48, 49, 50, 51, 52, 53, 54, 55, 56, 57, 58, 59, 60, 61, 62, 63, 64, 65, 66, 67, 68, 69, 70, 71, 72, 73, 74, 75, 76, 77, 78, 79, 80, 81, 82, 83, 84, 85, 86, 87, 88, 89, 90, 91, 92, 93, 94, 95, 96, 97, 98, 99, 100, 101, 102, 103, 104, 105, 106, 107, 108, 109, 110, 111, 112, 113, 114, 115, 116, 117, 118, 119, 120, 121, 122, 123, 124, 125, 126, 127, 128, 129, 130, 131, 132, 133, 134, 135, 136, 137, 138, 139, 140, 141, 142, 143, 144, 145, 146, 147, 148, 149, 150, 151, 152, 153, 154, 155, 156, 157, 158, 159, 160, 161, 162, 163, 164, 165, 166, 167, 168, 169, 170, 171, 172, 173, 174, 175, 176, 177, 178, 179, 180, 181, 182, 183, 184, 185, 186, 187, 188, 189, 190, 191, 192, 193, 194, 195, 196, 197, 198, 199, 200, 201, 202, 203, 204, 205, 206, 207, 208, 209, 210, 211, 212, 213, 214, 215, 216, 217, 218, 219, 220, 221, 222, 223, 224, 225, 226, 227, 228, 229, 230, 231, 232, 233, 234, 235, 236, 237, 238, 239, 240, 241, 242, 243, 244, 245, 246, 247, 248, 249, 250, 251, 252, 253, 254, 255, 256, 257, 258, 259, 260, 261, 262, 263, 264, 265, 266, 267, 268, 269, 270, 271, 272, 273, 274, 275, 276, 277, 278, 279, 280, 281, 282, 283, 284, 285, 286, 287, 288, 289, 290, 291, 292, 293, 294, 295, 296, 297, 298, 299, 300, 301, 302, 303, 304, 305, 306, 307, 308, 309, 310, 311, 312, 313, 314, 315, 316, 317, 318, 319, 320, 321, 322, 323, 324, 325, 326, 327, 328, 329, 330, 331, 332, 333, 334, 335, 336, 337, 338, 339, 340, 341, 342, 343, 344, 345, 346, 347, 348, 349, 350, 351, 352, 353, 354, 355, 356, 357, 358, 359, 360, 361, 362, 363, 364, 365, 366, 367, 368, 369, 370, 371, 372, 373, 374, 375, 376, 377, 378, 379, 380, 381, 382, 383, 384, 385, 386, 387, 388, 389, 390, 391, 392, 393, 394, 395, 396, 397, 398, 399, 400, 401, 402, 403, 404, 405, 406, 407, 408, 409, 410, 411, 412, 413, 414, 415, 416, 417, 418, 419, 420, 421, 422, 423, 424, 425, 426, 427, 428, 429, 430, 431, 432, 433, 434, 435, 436, 437, 438, 439, 440, 441, 442, 443, 444, 445, 446, 447, 448, 449, 450, 451, 452, 453, 454, 455, 456, 457, 458, 459, 460, 461, 462, 463, 464, 465, 466, 467, 468, 469, 470, 471, 472, 473, 474, 475, 476, 477, 478, 479, 480, 481, 482, 483, 484, 485, 486, 487, 488, 489, 490, 491, 492, 493, 494, 495, 496, 497, 498, 499, 500, 501, 502, 503, 504, 505, 506, 507, 508, 509, 510, 511, 512, 513, 514, 515, 516, 517, 518, 519, 520, 521, 522, 523, 524, 525, 526, 527, 528, 529, 530, 531, 532, 533, 534, 535, 536, 537, 538, 539, 540, 541, 542, 543, 544, 545, 546, 547, 548, 549, 550, 551, 552, 553, 554, 555, 556, 557, 558, 559, 560, 561, 562, 563, 564, 565, 566, 567, 568, 569, 570, 571, 572, 573, 574, 575, 576, 577, 578, 579, 580, 581],
      "AcquisitionTime": ["163938.775000", "163939.562500", "163940.350000", "163941.140000", "163941.927500", "163942.715000", "163943.502500", "163944.292500", "163945.080000", "163945.867500", "163946.655000", "163947.445000", "163948.232500", "163949.020000", "163949.807500", "163950.597500", "163951.385000", "163952.172500", "163952.962500", "163953.750000", "163954.537500", "163955.325000", "163956.115000", "163956.902500", "163957.690000", "163958.477500", "163959.267500", "164000.055000", "164000.842500", "164001.630000", "164002.420000", "164003.207500", "164003.995000", "164004.782500", "164005.572500", "164006.360000", "164007.147500", "164007.935000", "164008.725000", "164009.512500", "164010.300000", "164011.090000", "164011.877500", "164012.665000", "164013.452500", "164014.242500", "164015.030000", "164015.817500", "164016.605000", "164017.395000", "164018.182500", "164018.970000", "164019.757500", "164020.547500", "164021.335000", "164022.122500", "164022.910000", "164023.700000", "164024.487500", "164025.275000", "164026.062500", "164026.852500", "164027.640000", "164028.427500", "164029.217500", "164030.005000", "164030.792500", "164031.580000", "164032.370000", "164033.157500", "164033.945000", "164034.732500", "164035.522500", "164036.310000", "164037.097500", "164037.885000", "164038.675000", "164039.462500", "164040.250000", "164041.037500", "164041.827500", "164042.615000", "164043.402500", "164044.190000", "164044.980000", "164045.767500", "164046.555000", "164047.345000", "164048.132500", "164048.920000", "164049.707500", "164050.497500", "164051.285000", "164052.072500", "164052.860000", "164053.650000", "164054.437500", "164055.225000", "164056.012500", "164056.802500", "164057.590000", "164058.377500", "164059.165000", "164059.955000", "164100.742500", "164101.530000", "164102.317500", "164103.107500", "164103.895000", "164104.682500", "164105.472500", "164106.260000", "164107.047500", "164107.835000", "164108.625000", "164109.412500", "164110.200000", "164110.987500", "164111.777500", "164112.565000", "164113.352500", "164114.140000", "164114.930000", "164115.717500", "164116.505000", "164117.292500", "164118.082500", "164118.870000", "164119.657500", "164120.445000", "164121.235000", "164122.022500", "164122.810000", "164123.600000", "164124.387500", "164125.175000", "164125.962500", "164126.752500", "164127.540000", "164128.327500", "164129.115000", "164129.905000", "164130.692500", "164131.480000", "164132.267500", "164133.057500", "164133.845000", "164134.632500", "164135.420000", "164136.210000", "164136.997500", "164137.785000", "164138.572500", "164139.362500", "164140.150000", "164140.937500", "164141.727500", "164142.515000", "164143.302500", "164144.090000", "164144.880000", "164145.667500", "164146.455000", "164147.242500", "164148.032500", "164148.820000", "164149.607500", "164150.395000", "164151.185000", "164151.972500", "164152.760000", "164153.547500", "164154.337500", "164155.125000", "164155.912500", "164156.700000", "164157.490000", "164158.277500", "164159.065000", "164159.855000", "164200.642500", "164201.430000", "164202.217500", "164203.007500", "164203.795000", "164204.582500", "164205.370000", "164206.160000", "164206.947500", "164207.735000", "164208.522500", "164209.312500", "164210.100000", "164210.887500", "164211.675000", "164212.465000", "164213.252500", "164214.040000", "164214.830000", "164215.617500", "164216.405000", "164217.192500", "164217.982500", "164218.770000", "164219.557500", "164220.345000", "164221.135000", "164221.922500", "164222.710000", "164223.497500", "164224.287500", "164225.075000", "164225.862500", "164226.650000", "164227.440000", "164228.227500", "164229.015000", "164229.802500", "164230.592500", "164231.380000", "164232.167500", "164232.957500", "164233.745000", "164234.532500", "164235.320000", "164236.110000", "164236.897500", "164237.685000", "164238.472500", "164239.262500", "164240.050000", "164240.837500", "164241.625000", "164242.415000", "164243.202500", "164243.990000", "164244.777500", "164245.567500", "164246.355000", "164247.142500", "164247.930000", "164248.720000", "164249.507500", "164250.295000", "164251.085000", "164251.872500", "164252.660000", "164253.447500", "164254.237500", "164255.025000", "164255.812500", "164256.600000", "164257.390000", "164258.177500", "164258.965000", "164259.752500", "164300.542500", "164301.330000", "164302.117500", "164302.905000", "164303.695000", "164304.482500", "164305.270000", "164306.057500", "164306.847500", "164307.635000", "164308.422500", "164309.212500", "164310.000000", "164310.787500", "164311.575000", "164312.365000", "164313.152500", "164313.940000", "164314.727500", "164315.517500", "164316.305000", "164317.092500", "164317.880000", "164318.670000", "164319.457500", "164320.245000", "164321.032500", "164321.822500", "164322.610000", "164323.397500", "164324.185000", "164324.975000", "164325.762500", "164326.550000", "164327.340000", "164328.127500", "164328.915000", "164329.702500", "164330.492500", "164331.280000", "164332.067500", "164332.855000", "164333.645000", "164334.432500", "164335.220000", "164336.007500", "164336.797500", "164337.585000", "164338.372500", "164339.160000", "164339.950000", "164340.737500", "164341.525000", "164342.312500", "164343.102500", "164343.890000", "164344.677500", "164345.467500", "164346.255000", "164347.042500", "164347.830000", "164348.620000", "164349.407500", "164350.195000", "164350.982500", "164351.772500", "164352.560000", "164353.347500", "164354.135000", "164354.925000", "164355.712500", "164356.500000", "164357.287500", "164358.077500", "164358.865000", "164359.652500", "164400.440000", "164401.230000", "164402.017500", "164402.805000", "164403.595000", "164404.382500", "164405.170000", "164405.957500", "164406.747500", "164407.535000", "164408.322500", "164409.110000", "164409.900000", "164410.687500", "164411.475000", "164412.262500", "164413.052500", "164413.840000", "164414.627500", "164415.415000", "164416.205000", "164416.992500", "164417.780000", "164418.567500", "164419.357500", "164420.145000", "164420.932500", "164421.722500", "164422.510000", "164423.297500", "164424.085000", "164424.875000", "164425.662500", "164426.450000", "164427.237500", "164428.027500", "164428.815000", "164429.602500", "164430.390000", "164431.180000", "164431.967500", "164432.755000", "164433.542500", "164434.332500", "164435.120000", "164435.907500", "164436.695000", "164437.485000", "164438.272500", "164439.060000", "164439.850000", "164440.637500", "164441.425000", "164442.212500", "164443.002500", "164443.790000", "164444.577500", "164445.365000", "164446.155000", "164446.942500", "164447.730000", "164448.517500", "164449.307500", "164450.095000", "164450.882500", "164451.670000", "164452.460000", "164453.247500", "164454.035000", "164454.822500", "164455.612500", "164456.400000", "164457.187500", "164457.977500", "164458.765000", "164459.552500", "164500.340000", "164501.130000", "164501.917500", "164502.705000", "164503.492500", "164504.282500", "164505.070000", "164505.857500", "164506.645000", "164507.435000", "164508.222500", "164509.010000", "164509.797500", "164510.587500", "164511.375000", "164512.162500", "164512.950000", "164513.740000", "164514.527500", "164515.315000", "164516.105000", "164516.892500", "164517.680000", "164518.467500", "164519.257500", "164520.045000", "164520.832500", "164521.620000", "164522.410000", "164523.197500", "164523.985000", "164524.772500", "164525.562500", "164526.350000", "164527.137500", "164527.925000", "164528.715000", "164529.502500", "164530.290000", "164531.080000", "164531.867500", "164532.655000", "164533.442500", "164534.232500", "164535.020000", "164535.807500", "164536.595000", "164537.385000", "164538.172500", "164538.960000", "164539.747500", "164540.537500", "164541.325000", "164542.112500", "164542.900000", "164543.690000", "164544.477500", "164545.265000", "164546.052500", "164546.842500", "164547.630000", "164548.417500", "164549.207500", "164549.995000", "164550.782500", "164551.570000", "164552.360000", "164553.147500", "164553.935000", "164554.722500", "164555.512500", "164556.300000", "164557.087500", "164557.875000", "164558.665000", "164559.452500", "164600.240000", "164601.027500", "164601.817500", "164602.605000", "164603.392500", "164604.180000", "164604.970000", "164605.757500", "164606.545000", "164607.335000", "164608.122500", "164608.910000", "164609.697500", "164610.487500", "164611.275000", "164612.062500", "164612.850000", "164613.640000", "164614.427500", "164615.215000", "164616.002500", "164616.792500", "164617.580000", "164618.367500", "164619.155000", "164619.945000", "164620.732500", "164621.520000", "164622.307500", "164623.097500", "164623.885000", "164624.672500", "164625.462500", "164626.250000", "164627.037500", "164627.825000", "164628.615000", "164629.402500", "164630.190000", "164630.977500", "164631.767500", "164632.555000", "164633.342500", "164634.130000", "164634.920000", "164635.707500", "164636.495000", "164637.282500", "164638.072500", "164638.860000", "164639.647500", "164640.435000", "164641.225000", "164642.012500", "164642.800000", "164643.590000", "164644.377500", "164645.165000", "164645.952500", "164646.742500", "164647.530000", "164648.317500", "164649.105000", "164649.895000", "164650.682500", "164651.470000", "164652.257500", "164653.047500", "164653.835000", "164654.622500", "164655.410000", "164656.200000", "164656.987500", "164657.775000", "164658.562500", "164659.352500", "164700.140000", "164700.927500", "164701.717500", "164702.505000", "164703.292500", "164704.080000", "164704.870000", "164705.657500", "164706.445000", "164707.232500", "164708.022500", "164708.810000", "164709.597500", "164710.385000", "164711.175000", "164711.962500", "164712.750000", "164713.537500", "164714.327500", "164715.115000", "164715.902500"],
      "ContentTime": ["163959.046000", "163959.046000", "163959.046000", "163959.046000", "163959.046000", "163959.046000", "163959.062000", "163959.062000", "163959.062000", "163959.062000", "163959.062000", "163959.062000", "163959.062000", "163959.078000", "163959.078000", "163959.078000", "163959.078000", "163959.078000", "163959.093000", "163959.093000", "163959.093000", "163959.093000", "163959.093000", "164019.015000", "164019.015000", "164019.015000", "164019.015000", "164019.031000", "164019.031000", "164019.031000", "164019.031000", "164019.031000", "164019.031000", "164019.031000", "164019.046000", "164019.046000", "164019.046000", "164019.046000", "164019.046000", "164019.062000", "164019.062000", "164019.062000", "164019.062000", "164019.062000", "164019.062000", "164019.062000", "164019.078000", "164019.078000", "164039.015000", "164039.015000", "164039.015000", "164039.015000", "164039.031000", "164039.031000", "164039.031000", "164039.031000", "164039.031000", "164039.031000", "164039.031000", "164039.046000", "164039.046000", "164039.046000", "164039.046000", "164039.046000", "164039.046000", "164039.046000", "164039.062000", "164039.062000", "164039.062000", "164039.062000", "164039.062000", "164039.062000", "164039.062000", "164039.078000", "164059.015000", "164059.015000", "164059.015000", "164059.015000", "164059.031000", "164059.031000", "164059.031000", "164059.031000", "164059.031000", "164059.031000", "164059.031000", "164059.046000", "164059.046000", "164059.046000", "164059.046000", "164059.046000", "164059.046000", "164059.046000", "164059.062000", "164059.062000", "164059.062000", "164059.062000", "164059.062000", "164059.062000", "164059.062000", "164119.015000", "164119.015000", "164119.015000", "164119.015000", "164119.031000", "164119.031000", "164119.031000", "164119.031000", "164119.031000", "164119.031000", "164119.031000", "164119.046000", "164119.046000", "164119.046000", "164119.046000", "164119.046000", "164119.046000", "164119.062000", "164119.062000", "164119.062000", "164119.062000", "164119.062000", "164119.062000", "164119.062000", "164119.078000", "164119.078000", "164139.015000", "164139.015000", "164139.015000", "164139.015000", "164139.031000", "164139.031000", "164139.031000", "164139.031000", "164139.031000", "164139.031000", "164139.031000", "164139.046000", "164139.046000", "164139.046000", "164139.046000", "164139.046000", "164139.046000", "164139.046000", "164139.062000", "164139.062000", "164139.062000", "164139.062000", "164139.062000", "164139.062000", "164139.078000", "164159.015000", "164159.015000", "164159.015000", "164159.015000", "164159.031000", "164159.031000", "164159.031000", "164159.031000", "164159.031000", "164159.031000", "164159.046000", "164159.046000", "164159.046000", "164159.046000", "164159.046000", "164159.046000", "164159.046000", "164159.046000", "164159.062000", "164159.062000", "164159.062000", "164159.062000", "164159.062000", "164159.078000", "164159.078000", "164159.078000", "164219.015000", "164219.015000", "164219.015000", "164219.015000", "164219.031000", "164219.031000", "164219.031000", "164219.031000", "164219.031000", "164219.031000", "164219.031000", "164219.046000", "164219.046000", "164219.046000", "164219.046000", "164219.046000", "164219.046000", "164219.046000", "164219.062000", "164219.062000", "164219.062000", "164219.062000", "164219.062000", "164219.078000", "164219.078000", "164239.015000", "164239.015000", "164239.015000", "164239.031000", "164239.031000", "164239.031000", "164239.031000", "164239.031000", "164239.031000", "164239.031000", "164239.046000", "164239.046000", "164239.046000", "164239.046000", "164239.046000", "164239.046000", "164239.046000", "164239.062000", "164239.062000", "164239.062000", "164239.062000", "164239.062000", "164239.062000", "164239.062000", "164239.078000", "164239.078000", "164259.015000", "164259.015000", "164259.015000", "164259.015000", "164259.031000", "164259.031000", "164259.031000", "164259.031000", "164259.031000", "164259.031000", "164259.031000", "164259.046000", "164259.046000", "164259.046000", "164259.046000", "164259.046000", "164259.046000", "164259.046000", "164259.062000", "164259.062000", "164259.062000", "164259.062000", "164259.062000", "164259.062000", "164259.062000", "164319.015000", "164319.015000", "164319.015000", "164319.015000", "164319.031000", "164319.031000", "164319.031000", "164319.031000", "164319.031000", "164319.031000", "164319.031000", "164319.046000", "164319.046000", "164319.046000", "164319.046000", "164319.046000", "164319.046000", "164319.062000", "164319.062000", "164319.062000", "164319.062000", "164319.062000", "164319.062000", "164319.078000", "164319.078000", "164319.078000", "164339.015000", "164339.015000", "164339.015000", "164339.015000", "164339.031000", "164339.031000", "164339.031000", "164339.031000", "164339.031000", "164339.031000", "164339.031000", "164339.046000", "164339.046000", "164339.046000", "164339.046000", "164339.046000", "164339.046000", "164339.046000", "164339.062000", "164339.062000", "164339.062000", "164339.062000", "164339.062000", "164339.062000", "164339.062000", "164359.015000", "164359.015000", "164359.015000", "164359.015000", "164359.031000", "164359.031000", "164359.031000", "164359.031000", "164359.031000", "164359.031000", "164359.031000", "164359.046000", "164359.046000", "164359.046000", "164359.046000", "164359.046000", "164359.062000", "164359.062000", "164359.062000", "164359.062000", "164359.062000", "164359.062000", "164359.062000", "164359.078000", "164359.078000", "164419.015000", "164419.015000", "164419.015000", "164419.015000", "164419.031000", "164419.031000", "164419.031000", "164419.031000", "164419.031000", "164419.031000", "164419.031000", "164419.046000", "164419.046000", "164419.046000", "164419.046000", "164419.046000", "164419.046000", "164419.046000", "164419.062000", "164419.062000", "164419.062000", "164419.062000", "164419.062000", "164419.062000", "164419.062000", "164419.078000", "164439.015000", "164439.015000", "164439.015000", "164439.015000", "164439.031000", "164439.031000", "164439.031000", "164439.031000", "164439.031000", "164439.031000", "164439.031000", "164439.046000", "164439.046000", "164439.046000", "164439.046000", "164439.046000", "164439.062000", "164439.062000", "164439.062000", "164439.062000", "164439.062000", "164439.062000", "164439.078000", "164439.078000", "164439.078000", "164459.015000", "164459.015000", "164459.015000", "164459.015000", "164459.031000", "164459.031000", "164459.031000", "164459.031000", "164459.031000", "164459.031000", "164459.031000", "164459.046000", "164459.046000", "164459.046000", "164459.046000", "164459.046000", "164459.046000", "164459.046000", "164459.062000", "164459.062000", "164459.062000", "164459.062000", "164459.062000", "164459.062000", "164459.062000", "164459.078000", "164519.015000", "164519.015000", "164519.015000", "164519.015000", "164519.031000", "164519.031000", "164519.031000", "164519.031000", "164519.031000", "164519.031000", "164519.031000", "164519.046000", "164519.046000", "164519.046000", "164519.046000", "164519.062000", "164519.062000", "164519.062000", "164519.062000", "164519.062000", "164519.078000", "164519.078000", "164519.078000", "164519.078000", "164519.078000", "164539.015000", "164539.015000", "164539.015000", "164539.015000", "164539.031000", "164539.031000", "164539.031000", "164539.031000", "164539.031000", "164539.031000", "164539.031000", "164539.046000", "164539.046000", "164539.046000", "164539.046000", "164539.046000", "164539.046000", "164539.046000", "164539.062000", "164539.062000", "164539.062000", "164539.062000", "164539.062000", "164539.078000", "164539.078000", "164539.078000", "164559.015000", "164559.015000", "164559.015000", "164559.015000", "164559.031000", "164559.031000", "164559.031000", "164559.031000", "164559.031000", "164559.031000", "164559.031000", "164559.046000", "164559.046000", "164559.046000", "164559.046000", "164559.046000", "164559.046000", "164559.062000", "164559.062000", "164559.062000", "164559.062000", "164559.062000", "164559.062000", "164559.062000", "164559.078000", "164619.015000", "164619.015000", "164619.015000", "164619.015000", "164619.031000", "164619.031000", "164619.031000", "164619.031000", "164619.031000", "164619.031000", "164619.031000", "164619.046000", "164619.046000", "164619.046000", "164619.046000", "164619.046000", "164619.046000", "164619.046000", "164619.062000", "164619.062000", "164619.062000", "164619.062000", "164619.078000", "164619.078000", "164619.078000", "164619.093000", "164639.015000", "164639.015000", "164639.015000", "164639.015000", "164639.031000", "164639.031000", "164639.031000", "164639.031000", "164639.031000", "164639.031000", "164639.046000", "164639.046000", "164639.046000", "164639.046000", "164639.046000", "164639.046000", "164639.046000", "164639.062000", "164639.062000", "164639.062000", "164639.062000", "164639.062000", "164639.062000", "164639.062000", "164639.078000", "164659.015000", "164659.015000", "164659.015000", "164659.015000", "164659.031000", "164659.031000", "164659.031000", "164659.031000", "164659.031000", "164659.031000", "164659.031000", "164659.046000", "164659.046000", "164659.046000", "164659.046000", "164659.046000", "164659.046000", "164659.046000", "164659.062000", "164659.062000", "164659.062000", "164659.062000", "164659.062000", "164659.062000", "164659.062000", "164659.078000", "164716.937000", "164716.953000", "164716.953000", "164716.953000", "164716.953000", "164716.953000", "164716.953000", "164716.968000", "164716.968000", "164716.968000", "164716.968000", "164716.968000", "164716.968000", "164716.968000", "164716.984000", "164716.984000", "164716.984000", "164716.984000", "164716.984000", "164716.984000", "164716.984000", "164717.000000", "164717.000000"],
      "DataSetTrailingPadding": [
        "\u0000\u0000\u0000\u0000\u0000\u0000\u0000\u0000\u0000\u0000\u0000\u0000\u0000\u0000\u0000\u0000\u0000\u0000\u0000\u0000\u0000\u0000\u0000\u0000\u0000\u0000\u0000\u0000\u0000\u0000\u0000\u0000\u0000\u0000\u0000\u0000\u0000\u0000\u0000\u0000\u0000\u0000\u0000\u0000\u0000\u0000\u0000\u0000\u0000\u0000\u0000\u0000\u0000\u0000\u0000\u0000\u0000\u0000\u0000\u0000\u0000\u0000\u0000\u0000\u0000\u0000\u0000\u0000\u0000\u0000\u0000\u0000\u0000\u0000\u0000\u0000\u0000\u0000\u0000\u0000\u0000\u0000\u0000\u0000\u0000\u0000\u0000\u0000\u0000\u0000\u0000\u0000\u0000\u0000\u0000\u0000\u0000\u0000\u0000\u0000\u0000\u0000\u0000\u0000\u0000\u0000\u0000\u0000\u0000\u0000\u0000\u0000\u0000\u0000\u0000\u0000\u0000\u0000\u0000\u0000\u0000\u0000\u0000\u0000\u0000\u0000\u0000\u0000\u0000\u0000\u0000\u0000\u0000\u0000\u0000\u0000\u0000\u0000\u0000\u0000\u0000\u0000\u0000\u0000\u0000\u0000\u0000\u0000\u0000\u0000\u0000\u0000\u0000\u0000\u0000\u0000\u0000\u0000\u0000\u0000\u0000\u0000\u0000\u0000\u0000\u0000\u0000\u0000\u0000\u0000\u0000\u0000\u0000\u0000\u0000\u0000\u0000\u0000\u0000\u0000\u0000\u0000\u0000\u0000\u0000\u0000\u0000\u0000\u0000\u0000\u0000\u0000\u0000\u0000\u0000\u0000\u0000\u0000\u0000\u0000\u0000\u0000",
