{
  "AcquisitionMatrixPE": 104,
  "AcquisitionNumber": 1,
  "AcquisitionTime": "15:39:53.532500",
  "BandwidthPerPixelPhaseEncode": 13.935,
  "BaseResolution": 104,
  "CoilString": "C:HEA;HEP",
  "ConversionSoftware": "dcm2niix",
  "ConversionSoftwareVersion": "v1.0.20210317",
  "DerivedVendorReportedEchoSpacing": 0.000690017,
  "DeviceSerialNumber": "35450",
  "DwellTime": 2.5e-06,
  "EchoTime": 0.0348,
  "EffectiveEchoSpacing": 0.000690017,
  "FlipAngle": 55,
  "ImageComments": "Unaliased MB8/PE3 (remote)",
  "ImageOrientationPatientDICOM": [1, 0, 0, 0, 0.996345, -0.0854169],
  "ImageType": [
    "ORIGINAL",
    "PRIMARY",
    "M",
    "MB",
    "ND",
    "MOSAIC"
],
  "ImagingFrequency": 123.234,
  "InPlanePhaseEncodingDirectionDICOM": "COL",
  "InstitutionAddress": "Univeristy Ave. 197,Newark,North East,US,07102-1814",
  "InstitutionName": "RUBIC",
  "InstitutionalDepartmentName": "Department",
  "MRAcquisitionType": "2D",
  "MagneticFieldStrength": 3,
  "Manufacturer": "Siemens",
  "ManufacturersModelName": "TrioTim",
  "Modality": "MR",
  "MultibandAccelerationFactor": 8,
  "PartialFourier": 0.875,
  "PatientPosition": "HFS",
  "PercentPhaseFOV": 100,
  "PercentSampling": 100,
  "PhaseEncodingDirection": "j-",
  "PhaseEncodingSteps": 91,
  "PhaseResolution": 1,
  "PixelBandwidth": 1923,
  "ProcedureStepDescription": "Cole^Michael",
  "ProtocolName": "cmrr_mbep2d_bold_2mm_MB8_Rest",
  "PulseSequenceDetails": "%CustomerSeq%\\cmrr_mbep2d_bold",
  "ReceiveCoilName": "32Ch_Head",
  "ReconMatrixPE": 104,
  "RepetitionTime": 0.785,
  "SAR": 0.152166,
  "ScanOptions": "PFP\\FS",
  "ScanningSequence": "EP",
  "SequenceName": "epfid2d1_104",
  "SequenceVariant": "SK\\SS",
  "SeriesDescription": "cmrr_mbep2d_bold_2mm_MB8_Rest",
  "SeriesNumber": 9,
  "ShimSetting": [2111, -294, -7386, 715, -13, 196, -242, -2],
  "SliceThickness": 2,
  "SliceTiming": [0, 0.4375, 0.0875, 0.525, 0.175, 0.6125, 0.2625, 0.7, 0.35, 0, 0.4375, 0.0875, 0.525, 0.175, 0.6125, 0.2625, 0.7, 0.35, 0, 0.4375, 0.0875, 0.525, 0.175, 0.6125, 0.2625, 0.7, 0.35, 0, 0.4375, 0.0875, 0.525, 0.175, 0.6125, 0.2625, 0.7, 0.35, 0, 0.4375, 0.0875, 0.525, 0.175, 0.6125, 0.2625, 0.7, 0.35, 0, 0.4375, 0.0875, 0.525, 0.175, 0.6125, 0.2625, 0.7, 0.35, 0, 0.4375, 0.0875, 0.525, 0.175, 0.6125, 0.2625, 0.7, 0.35, 0, 0.4375, 0.0875, 0.525, 0.175, 0.6125, 0.2625, 0.7, 0.35],
  "SoftwareVersions": "syngo MR B19",
  "SpacingBetweenSlices": 2,
  "StationName": "MRC35450",
  "TaskName": "rest",
  "TotalReadoutTime": 0.0710717,
  "TxRefAmp": 382.266,
  "dcmmeta_affine": [
    [-2.0, 0.0, 0.0, 105.3559341430664],
    [0.0, 1.9926905632019043, -0.17083384096622467, -70.197998046875],
    [0.0, 0.17083384096622467, 1.9926905632019043, -107.13838958740234],
    [0.0, 0.0, 0.0, 1.0]
],
  "dcmmeta_reorient_transform": [
    [0.0, -1.0, 0.0, 103.0],
    [1.0, 0.0, 0.0, 0.0],
    [0.0, 0.0, 1.0, 0.0],
    [0.0, 0.0, 0.0, 1.0]
],
  "dcmmeta_shape": [104, 104, 72, 1070],
  "dcmmeta_slice_dim": 2,
  "dcmmeta_version": 0.6,
  "global": {
    "const": {
      "AcquisitionMatrix": [104, 0, 0, 104],
      "AngioFlag": "N",
      "BitsAllocated": 16,
      "BitsStored": 12,
      "Columns": 936,
      "EchoNumbers": 1,
      "EchoTime": 34.8,
      "EchoTrainLength": 1,
      "FlipAngle": 55.0,
      "HighBit": 11,
      "ImageOrientationPatient": [1.0, 0.0, 0.0, 0.0, 0.99634529631223, -0.0854169217223],
      "ImagePositionPatient": [-937.35593223572, -964.00841945518, -18.47562644131],
      "ImageType": [
        "ORIGINAL",
        "PRIMARY",
        "M",
        "MB",
        "ND",
        "MOSAIC"
],
      "ImagedNucleus": "1H",
      "ImagingFrequency": 123.234493,
      "InPlanePhaseEncodingDirection": "COL",
      "MRAcquisitionType": "2D",
      "MagneticFieldStrength": 3.0,
      "Manufacturer": "SIEMENS",
      "ManufacturerModelName": "TrioTim",
      "Modality": "MR",
      "NumberOfAverages": 1.0,
      "NumberOfPhaseEncodingSteps": 91,
      "PercentPhaseFieldOfView": 100.0,
      "PercentSampling": 100.0,
      "PerformedProcedureStepStartTime": "150639.843000",
      "PhotometricInterpretation": "MONOCHROME2",
      "PixelBandwidth": 1923.0,
      "PixelRepresentation": 0,
      "PixelSpacing": [2.0, 2.0],
      "ProtocolName": "cmrr_mbep2d_bold_2mm_MB8_Rest",
      "RepetitionTime": 785.0,
      "Rows": 936,
      "SAR": 0.15216597581469,
      "SamplesPerPixel": 1,
      "ScanOptions": [
        "PFP",
        "FS"
],
      "ScanningSequence": "EP",
      "SequenceName": "epfid2d1_104",
      "SequenceVariant": [
        "SK",
        "SS"
],
      "SeriesDescription": "cmrr_mbep2d_bold_2mm_MB8_Rest",
      "SeriesNumber": 9,
      "SeriesTime": "154029.015000",
      "SliceLocation": -100.75073520542,
      "SliceThickness": 2.0,
      "SmallestImagePixelValue": 0,
      "SoftwareVersions": "syngo MR B19",
      "SpacingBetweenSlices": 1.9999999650905,
      "SpecificCharacterSet": "ISO_IR 100",
      "StudyID": "1",
      "StudyTime": "150639.812000",
      "TransmitCoilName": "Body",
      "VariableFlipAngleFlag": "N",
      "WindowCenterWidthExplanation": "Algo1",
      "dBdt": 0.0},
    "slices": {}
  },
  "time": {
    "samples": {
      "AcquisitionNumber": [1, 2, 3, 4, 5, 6, 7, 8, 9, 10, 11, 12, 13, 14, 15, 16, 17, 18, 19, 20, 21, 22, 23, 24, 25, 26, 27, 28, 29, 30, 31, 32, 33, 34, 35, 36, 37, 38, 39, 40, 41, 42, 43, 44, 45, 46, 47, 48, 49, 50, 51, 52, 53, 54, 55, 56, 57, 58, 59, 60, 61, 62, 63, 64, 65, 66, 67, 68, 69, 70, 71, 72, 73, 74, 75, 76, 77, 78, 79, 80, 81, 82, 83, 84, 85, 86, 87, 88, 89, 90, 91, 92, 93, 94, 95, 96, 97, 98, 99, 100, 101, 102, 103, 104, 105, 106, 107, 108, 109, 110, 111, 112, 113, 114, 115, 116, 117, 118, 119, 120, 121, 122, 123, 124, 125, 126, 127, 128, 129, 130, 131, 132, 133, 134, 135, 136, 137, 138, 139, 140, 141, 142, 143, 144, 145, 146, 147, 148, 149, 150, 151, 152, 153, 154, 155, 156, 157, 158, 159, 160, 161, 162, 163, 164, 165, 166, 167, 168, 169, 170, 171, 172, 173, 174, 175, 176, 177, 178, 179, 180, 181, 182, 183, 184, 185, 186, 187, 188, 189, 190, 191, 192, 193, 194, 195, 196, 197, 198, 199, 200, 201, 202, 203, 204, 205, 206, 207, 208, 209, 210, 211, 212, 213, 214, 215, 216, 217, 218, 219, 220, 221, 222, 223, 224, 225, 226, 227, 228, 229, 230, 231, 232, 233, 234, 235, 236, 237, 238, 239, 240, 241, 242, 243, 244, 245, 246, 247, 248, 249, 250, 251, 252, 253, 254, 255, 256, 257, 258, 259, 260, 261, 262, 263, 264, 265, 266, 267, 268, 269, 270, 271, 272, 273, 274, 275, 276, 277, 278, 279, 280, 281, 282, 283, 284, 285, 286, 287, 288, 289, 290, 291, 292, 293, 294, 295, 296, 297, 298, 299, 300, 301, 302, 303, 304, 305, 306, 307, 308, 309, 310, 311, 312, 313, 314, 315, 316, 317, 318, 319, 320, 321, 322, 323, 324, 325, 326, 327, 328, 329, 330, 331, 332, 333, 334, 335, 336, 337, 338, 339, 340, 341, 342, 343, 344, 345, 346, 347, 348, 349, 350, 351, 352, 353, 354, 355, 356, 357, 358, 359, 360, 361, 362, 363, 364, 365, 366, 367, 368, 369, 370, 371, 372, 373, 374, 375, 376, 377, 378, 379, 380, 381, 382, 383, 384, 385, 386, 387, 388, 389, 390, 391, 392, 393, 394, 395, 396, 397, 398, 399, 400, 401, 402, 403, 404, 405, 406, 407, 408, 409, 410, 411, 412, 413, 414, 415, 416, 417, 418, 419, 420, 421, 422, 423, 424, 425, 426, 427, 428, 429, 430, 431, 432, 433, 434, 435, 436, 437, 438, 439, 440, 441, 442, 443, 444, 445, 446, 447, 448, 449, 450, 451, 452, 453, 454, 455, 456, 457, 458, 459, 460, 461, 462, 463, 464, 465, 466, 467, 468, 469, 470, 471, 472, 473, 474, 475, 476, 477, 478, 479, 480, 481, 482, 483, 484, 485, 486, 487, 488, 489, 490, 491, 492, 493, 494, 495, 496, 497, 498, 499, 500, 501, 502, 503, 504, 505, 506, 507, 508, 509, 510, 511, 512, 513, 514, 515, 516, 517, 518, 519, 520, 521, 522, 523, 524, 525, 526, 527, 528, 529, 530, 531, 532, 533, 534, 535, 536, 537, 538, 539, 540, 541, 542, 543, 544, 545, 546, 547, 548, 549, 550, 551, 552, 553, 554, 555, 556, 557, 558, 559, 560, 561, 562, 563, 564, 565, 566, 567, 568, 569, 570, 571, 572, 573, 574, 575, 576, 577, 578, 579, 580, 581, 582, 583, 584, 585, 586, 587, 588, 589, 590, 591, 592, 593, 594, 595, 596, 597, 598, 599, 600, 601, 602, 603, 604, 605, 606, 607, 608, 609, 610, 611, 612, 613, 614, 615, 616, 617, 618, 619, 620, 621, 622, 623, 624, 625, 626, 627, 628, 629, 630, 631, 632, 633, 634, 635, 636, 637, 638, 639, 640, 641, 642, 643, 644, 645, 646, 647, 648, 649, 650, 651, 652, 653, 654, 655, 656, 657, 658, 659, 660, 661, 662, 663, 664, 665, 666, 667, 668, 669, 670, 671, 672, 673, 674, 675, 676, 677, 678, 679, 680, 681, 682, 683, 684, 685, 686, 687, 688, 689, 690, 691, 692, 693, 694, 695, 696, 697, 698, 699, 700, 701, 702, 703, 704, 705, 706, 707, 708, 709, 710, 711, 712, 713, 714, 715, 716, 717, 718, 719, 720, 721, 722, 723, 724, 725, 726, 727, 728, 729, 730, 731, 732, 733, 734, 735, 736, 737, 738, 739, 740, 741, 742, 743, 744, 745, 746, 747, 748, 749, 750, 751, 752, 753, 754, 755, 756, 757, 758, 759, 760, 761, 762, 763, 764, 765, 766, 767, 768, 769, 770, 771, 772, 773, 774, 775, 776, 777, 778, 779, 780, 781, 782, 783, 784, 785, 786, 787, 788, 789, 790, 791, 792, 793, 794, 795, 796, 797, 798, 799, 800, 801, 802, 803, 804, 805, 806, 807, 808, 809, 810, 811, 812, 813, 814, 815, 816, 817, 818, 819, 820, 821, 822, 823, 824, 825, 826, 827, 828, 829, 830, 831, 832, 833, 834, 835, 836, 837, 838, 839, 840, 841, 842, 843, 844, 845, 846, 847, 848, 849, 850, 851, 852, 853, 854, 855, 856, 857, 858, 859, 860, 861, 862, 863, 864, 865, 866, 867, 868, 869, 870, 871, 872, 873, 874, 875, 876, 877, 878, 879, 880, 881, 882, 883, 884, 885, 886, 887, 888, 889, 890, 891, 892, 893, 894, 895, 896, 897, 898, 899, 900, 901, 902, 903, 904, 905, 906, 907, 908, 909, 910, 911, 912, 913, 914, 915, 916, 917, 918, 919, 920, 921, 922, 923, 924, 925, 926, 927, 928, 929, 930, 931, 932, 933, 934, 935, 936, 937, 938, 939, 940, 941, 942, 943, 944, 945, 946, 947, 948, 949, 950, 951, 952, 953, 954, 955, 956, 957, 958, 959, 960, 961, 962, 963, 964, 965, 966, 967, 968, 969, 970, 971, 972, 973, 974, 975, 976, 977, 978, 979, 980, 981, 982, 983, 984, 985, 986, 987, 988, 989, 990, 991, 992, 993, 994, 995, 996, 997, 998, 999, 1000, 1001, 1002, 1003, 1004, 1005, 1006, 1007, 1008, 1009, 1010, 1011, 1012, 1013, 1014, 1015, 1016, 1017, 1018, 1019, 1020, 1021, 1022, 1023, 1024, 1025, 1026, 1027, 1028, 1029, 1030, 1031, 1032, 1033, 1034, 1035, 1036, 1037, 1038, 1039, 1040, 1041, 1042, 1043, 1044, 1045, 1046, 1047, 1048, 1049, 1050, 1051, 1052, 1053, 1054, 1055, 1056, 1057, 1058, 1059, 1060, 1061, 1062, 1063, 1064, 1065, 1066, 1067, 1068, 1069, 1070],
      "AcquisitionTime": ["153953.532500", "153954.322500", "153955.110000", "153955.897500", "153956.685000", "153957.475000", "153958.262500", "153959.050000", "153959.837500", "154000.627500", "154001.415000", "154002.202500", "154002.992500", "154003.780000", "154004.567500", "154005.355000", "154006.145000", "154006.932500", "154007.720000", "154008.507500", "154009.297500", "154010.085000", "154010.872500", "154011.660000", "154012.450000", "154013.237500", "154014.025000", "154014.812500", "154015.602500", "154016.390000", "154017.177500", "154017.965000", "154018.755000", "154019.542500", "154020.330000", "154021.120000", "154021.907500", "154022.695000", "154023.482500", "154024.272500", "154025.060000", "154025.847500", "154026.635000", "154027.425000", "154028.212500", "154029.000000", "154029.787500", "154030.577500", "154031.365000", "154032.152500", "154032.940000", "154033.730000", "154034.517500", "154035.305000", "154036.092500", "154036.882500", "154037.670000", "154038.457500", "154039.247500", "154040.035000", "154040.822500", "154041.610000", "154042.400000", "154043.187500", "154043.975000", "154044.762500", "154045.552500", "154046.340000", "154047.127500", "154047.915000", "154048.705000", "154049.492500", "154050.280000", "154051.067500", "154051.857500", "154052.645000", "154053.432500", "154054.220000", "154055.010000", "154055.797500", "154056.585000", "154057.375000", "154058.162500", "154058.950000", "154059.737500", "154100.527500", "154101.315000", "154102.102500", "154102.890000", "154103.680000", "154104.467500", "154105.255000", "154106.042500", "154106.832500", "154107.620000", "154108.407500", "154109.195000", "154109.985000", "154110.772500", "154111.560000", "154112.350000", "154113.137500", "154113.925000", "154114.712500", "154115.502500", "154116.290000", "154117.077500", "154117.865000", "154118.655000", "154119.442500", "154120.230000", "154121.017500", "154121.807500", "154122.595000", "154123.382500", "154124.170000", "154124.960000", "154125.747500", "154126.535000", "154127.322500", "154128.112500", "154128.900000", "154129.687500", "154130.477500", "154131.265000", "154132.052500", "154132.840000", "154133.630000", "154134.417500", "154135.205000", "154135.992500", "154136.782500", "154137.570000", "154138.357500", "154139.145000", "154139.935000", "154140.722500", "154141.510000", "154142.297500", "154143.087500", "154143.875000", "154144.662500", "154145.450000", "154146.240000", "154147.027500", "154147.815000", "154148.605000", "154149.392500", "154150.180000", "154150.967500", "154151.757500", "154152.545000", "154153.332500", "154154.120000", "154154.910000", "154155.697500", "154156.485000", "154157.272500", "154158.062500", "154158.850000", "154159.637500", "154200.425000", "154201.215000", "154202.002500", "154202.790000", "154203.577500", "154204.367500", "154205.155000", "154205.942500", "154206.732500", "154207.520000", "154208.307500", "154209.095000", "154209.885000", "154210.672500", "154211.460000", "154212.247500", "154213.037500", "154213.825000", "154214.612500", "154215.400000", "154216.190000", "154216.977500", "154217.765000", "154218.552500", "154219.342500", "154220.130000", "154220.917500", "154221.705000", "154222.495000", "154223.282500", "154224.070000", "154224.860000", "154225.647500", "154226.435000", "154227.222500", "154228.012500", "154228.800000", "154229.587500", "154230.375000", "154231.165000", "154231.952500", "154232.740000", "154233.527500", "154234.317500", "154235.105000", "154235.892500", "154236.680000", "154237.470000", "154238.257500", "154239.045000", "154239.832500", "154240.622500", "154241.410000", "154242.197500", "154242.987500", "154243.775000", "154244.562500", "154245.350000", "154246.140000", "154246.927500", "154247.715000", "154248.502500", "154249.292500", "154250.080000", "154250.867500", "154251.655000", "154252.445000", "154253.232500", "154254.020000", "154254.807500", "154255.597500", "154256.385000", "154257.172500", "154257.960000", "154258.750000", "154259.537500", "154300.325000", "154301.115000", "154301.902500", "154302.690000", "154303.477500", "154304.267500", "154305.055000", "154305.842500", "154306.630000", "154307.420000", "154308.207500", "154308.995000", "154309.782500", "154310.572500", "154311.360000", "154312.147500", "154312.935000", "154313.725000", "154314.512500", "154315.300000", "154316.087500", "154316.877500", "154317.665000", "154318.452500", "154319.242500", "154320.030000", "154320.817500", "154321.605000", "154322.395000", "154323.182500", "154323.970000", "154324.757500", "154325.547500", "154326.335000", "154327.122500", "154327.910000", "154328.700000", "154329.487500", "154330.275000", "154331.062500", "154331.852500", "154332.640000", "154333.427500", "154334.215000", "154335.005000", "154335.792500", "154336.580000", "154337.370000", "154338.157500", "154338.945000", "154339.732500", "154340.522500", "154341.310000", "154342.097500", "154342.885000", "154343.675000", "154344.462500", "154345.250000", "154346.037500", "154346.827500", "154347.615000", "154348.402500", "154349.190000", "154349.980000", "154350.767500", "154351.555000", "154352.342500", "154353.132500", "154353.920000", "154354.707500", "154355.497500", "154356.285000", "154357.072500", "154357.860000", "154358.650000", "154359.437500", "154400.225000", "154401.012500", "154401.802500", "154402.590000", "154403.377500", "154404.165000", "154404.955000", "154405.742500", "154406.530000", "154407.317500", "154408.107500", "154408.895000", "154409.682500", "154410.470000", "154411.260000", "154412.047500", "154412.835000", "154413.625000", "154414.412500", "154415.200000", "154415.987500", "154416.777500", "154417.565000", "154418.352500", "154419.140000", "154419.930000", "154420.717500", "154421.505000", "154422.292500", "154423.082500", "154423.870000", "154424.657500", "154425.445000", "154426.235000", "154427.022500", "154427.810000", "154428.600000", "154429.387500", "154430.175000", "154430.962500", "154431.752500", "154432.540000", "154433.327500", "154434.115000", "154434.905000", "154435.692500", "154436.480000", "154437.267500", "154438.057500", "154438.845000", "154439.632500", "154440.420000", "154441.210000", "154441.997500", "154442.785000", "154443.572500", "154444.362500", "154445.150000", "154445.937500", "154446.727500", "154447.515000", "154448.302500", "154449.090000", "154449.880000", "154450.667500", "154451.455000", "154452.242500", "154453.032500", "154453.820000", "154454.607500", "154455.395000", "154456.185000", "154456.972500", "154457.760000", "154458.547500", "154459.337500", "154500.125000", "154500.912500", "154501.700000", "154502.490000", "154503.277500", "154504.065000", "154504.855000", "154505.642500", "154506.430000", "154507.217500", "154508.007500", "154508.795000", "154509.582500", "154510.370000", "154511.160000", "154511.947500", "154512.735000", "154513.522500", "154514.312500", "154515.100000", "154515.887500", "154516.675000", "154517.465000", "154518.252500", "154519.040000", "154519.827500", "154520.617500", "154521.405000", "154522.192500", "154522.982500", "154523.770000", "154524.557500", "154525.345000", "154526.135000", "154526.922500", "154527.710000", "154528.497500", "154529.287500", "154530.075000", "154530.862500", "154531.650000", "154532.440000", "154533.227500", "154534.015000", "154534.802500", "154535.592500", "154536.380000", "154537.167500", "154537.955000", "154538.745000", "154539.532500", "154540.320000", "154541.110000", "154541.897500", "154542.685000", "154543.472500", "154544.262500", "154545.050000", "154545.837500", "154546.625000", "154547.415000", "154548.202500", "154548.990000", "154549.777500", "154550.567500", "154551.355000", "154552.142500", "154552.930000", "154553.720000", "154554.507500", "154555.295000", "154556.082500", "154556.872500", "154557.660000", "154558.447500", "154559.237500", "154600.025000", "154600.812500", "154601.600000", "154602.390000", "154603.177500", "154603.965000", "154604.752500", "154605.542500", "154606.330000", "154607.117500", "154607.905000", "154608.695000", "154609.482500", "154610.270000", "154611.057500", "154611.847500", "154612.635000", "154613.422500", "154614.210000", "154615.000000", "154615.787500", "154616.575000", "154617.365000", "154618.152500", "154618.940000", "154619.727500", "154620.517500", "154621.305000", "154622.092500", "154622.880000", "154623.670000", "154624.457500", "154625.245000", "154626.032500", "154626.822500", "154627.610000", "154628.397500", "154629.185000", "154629.975000", "154630.762500", "154631.550000", "154632.337500", "154633.127500", "154633.915000", "154634.702500", "154635.492500", "154636.280000", "154637.067500", "154637.855000", "154638.645000", "154639.432500", "154640.220000", "154641.007500", "154641.797500", "154642.585000", "154643.372500", "154644.160000", "154644.950000", "154645.737500", "154646.525000", "154647.312500", "154648.102500", "154648.890000", "154649.677500", "154650.465000", "154651.255000", "154652.042500", "154652.830000", "154653.620000", "154654.407500", "154655.195000", "154655.982500", "154656.772500", "154657.560000", "154658.347500", "154659.135000", "154659.925000", "154700.712500", "154701.500000", "154702.287500", "154703.077500", "154703.865000", "154704.652500", "154705.440000", "154706.230000", "154707.017500", "154707.805000", "154708.592500", "154709.382500", "154710.170000", "154710.957500", "154711.747500", "154712.535000", "154713.322500", "154714.110000", "154714.900000", "154715.687500", "154716.475000", "154717.262500", "154718.052500", "154718.840000", "154719.627500", "154720.415000", "154721.205000", "154721.992500", "154722.780000", "154723.567500", "154724.357500", "154725.145000", "154725.932500", "154726.720000", "154727.510000", "154728.297500", "154729.085000", "154729.875000", "154730.662500", "154731.450000", "154732.237500", "154733.027500", "154733.815000", "154734.602500", "154735.390000", "154736.180000", "154736.967500", "154737.755000", "154738.542500", "154739.332500", "154740.120000", "154740.907500", "154741.695000", "154742.485000", "154743.272500", "154744.060000", "154744.850000", "154745.637500", "154746.425000", "154747.212500", "154748.002500", "154748.790000", "154749.577500", "154750.365000", "154751.155000", "154751.942500", "154752.730000", "154753.517500", "154754.307500", "154755.095000", "154755.882500", "154756.670000", "154757.460000", "154758.247500", "154759.035000", "154759.822500", "154800.612500", "154801.400000", "154802.187500", "154802.977500", "154803.765000", "154804.552500", "154805.340000", "154806.130000", "154806.917500", "154807.705000", "154808.492500", "154809.282500", "154810.070000", "154810.857500", "154811.645000", "154812.435000", "154813.222500", "154814.010000", "154814.797500", "154815.587500", "154816.375000", "154817.162500", "154817.950000", "154818.740000", "154819.527500", "154820.315000", "154821.105000", "154821.892500", "154822.680000", "154823.467500", "154824.257500", "154825.045000", "154825.832500", "154826.620000", "154827.410000", "154828.197500", "154828.985000", "154829.772500", "154830.562500", "154831.350000", "154832.137500", "154832.925000", "154833.715000", "154834.502500", "154835.290000", "154836.077500", "154836.867500", "154837.655000", "154838.442500", "154839.232500", "154840.020000", "154840.807500", "154841.595000", "154842.385000", "154843.172500", "154843.960000", "154844.747500", "154845.537500", "154846.325000", "154847.112500", "154847.900000", "154848.690000", "154849.477500", "154850.265000", "154851.052500", "154851.842500", "154852.630000", "154853.417500", "154854.205000", "154854.995000", "154855.782500", "154856.570000", "154857.360000", "154858.147500", "154858.935000", "154859.722500", "154900.512500", "154901.300000", "154902.087500", "154902.875000", "154903.665000", "154904.452500", "154905.240000", "154906.027500", "154906.817500", "154907.605000", "154908.392500", "154909.180000", "154909.970000", "154910.757500", "154911.545000", "154912.332500", "154913.122500", "154913.910000", "154914.697500", "154915.487500", "154916.275000", "154917.062500", "154917.850000", "154918.640000", "154919.427500", "154920.215000", "154921.002500", "154921.792500", "154922.580000", "154923.367500", "154924.155000", "154924.945000", "154925.732500", "154926.520000", "154927.307500", "154928.097500", "154928.885000", "154929.672500", "154930.460000", "154931.250000", "154932.037500", "154932.825000", "154933.615000", "154934.402500", "154935.190000", "154935.977500", "154936.767500", "154937.555000", "154938.342500", "154939.130000", "154939.920000", "154940.707500", "154941.495000", "154942.282500", "154943.072500", "154943.860000", "154944.647500", "154945.435000", "154946.225000", "154947.012500", "154947.800000", "154948.587500", "154949.377500", "154950.165000", "154950.952500", "154951.742500", "154952.530000", "154953.317500", "154954.105000", "154954.895000", "154955.682500", "154956.470000", "154957.257500", "154958.047500", "154958.835000", "154959.622500", "155000.410000", "155001.200000", "155001.987500", "155002.775000", "155003.562500", "155004.352500", "155005.140000", "155005.927500", "155006.715000", "155007.505000", "155008.292500", "155009.080000", "155009.870000", "155010.657500", "155011.445000", "155012.232500", "155013.022500", "155013.810000", "155014.597500", "155015.385000", "155016.175000", "155016.962500", "155017.750000", "155018.537500", "155019.327500", "155020.115000", "155020.902500", "155021.690000", "155022.480000", "155023.267500", "155024.055000", "155024.842500", "155025.632500", "155026.420000", "155027.207500", "155027.997500", "155028.785000", "155029.572500", "155030.360000", "155031.150000", "155031.937500", "155032.725000", "155033.512500", "155034.302500", "155035.090000", "155035.877500", "155036.665000", "155037.455000", "155038.242500", "155039.030000", "155039.817500", "155040.607500", "155041.395000", "155042.182500", "155042.970000", "155043.760000", "155044.547500", "155045.335000", "155046.125000", "155046.912500", "155047.700000", "155048.487500", "155049.277500", "155050.065000", "155050.852500", "155051.640000", "155052.430000", "155053.217500", "155054.005000", "155054.792500", "155055.582500", "155056.370000", "155057.157500", "155057.945000", "155058.735000", "155059.522500", "155100.310000", "155101.100000", "155101.887500", "155102.675000", "155103.462500", "155104.252500", "155105.040000", "155105.827500", "155106.615000", "155107.405000", "155108.192500", "155108.980000", "155109.767500", "155110.557500", "155111.345000", "155112.132500", "155112.920000", "155113.710000", "155114.497500", "155115.285000", "155116.072500", "155116.862500", "155117.650000", "155118.437500", "155119.227500", "155120.015000", "155120.802500", "155121.590000", "155122.380000", "155123.167500", "155123.955000", "155124.742500", "155125.532500", "155126.320000", "155127.107500", "155127.895000", "155128.685000", "155129.472500", "155130.260000", "155131.047500", "155131.837500", "155132.625000", "155133.412500", "155134.200000", "155134.990000", "155135.777500", "155136.565000", "155137.355000", "155138.142500", "155138.930000", "155139.717500", "155140.507500", "155141.295000", "155142.082500", "155142.870000", "155143.660000", "155144.447500", "155145.235000", "155146.022500", "155146.812500", "155147.600000", "155148.387500", "155149.175000", "155149.965000", "155150.752500", "155151.540000", "155152.327500", "155153.117500", "155153.905000", "155154.692500", "155155.482500", "155156.270000", "155157.057500", "155157.845000", "155158.635000", "155159.422500", "155200.210000", "155200.997500", "155201.787500", "155202.575000", "155203.362500", "155204.150000", "155204.940000", "155205.727500", "155206.515000", "155207.302500", "155208.092500", "155208.880000", "155209.667500", "155210.455000", "155211.245000", "155212.032500", "155212.820000", "155213.610000", "155214.397500", "155215.185000", "155215.972500", "155216.762500", "155217.550000", "155218.337500", "155219.125000", "155219.915000", "155220.702500", "155221.490000", "155222.277500", "155223.067500", "155223.855000", "155224.642500", "155225.430000", "155226.220000", "155227.007500", "155227.795000", "155228.582500", "155229.372500", "155230.160000", "155230.947500", "155231.737500", "155232.525000", "155233.312500", "155234.100000", "155234.890000", "155235.677500", "155236.465000", "155237.252500", "155238.042500", "155238.830000", "155239.617500", "155240.405000", "155241.195000", "155241.982500", "155242.770000", "155243.557500", "155244.347500", "155245.135000", "155245.922500", "155246.710000", "155247.500000", "155248.287500", "155249.075000", "155249.865000", "155250.652500", "155251.440000", "155252.227500", "155253.017500", "155253.805000", "155254.592500", "155255.380000", "155256.170000", "155256.957500", "155257.745000", "155258.532500", "155259.322500", "155300.110000", "155300.897500", "155301.685000", "155302.475000", "155303.262500", "155304.050000", "155304.837500", "155305.627500", "155306.415000", "155307.202500", "155307.992500", "155308.780000", "155309.567500", "155310.355000", "155311.145000", "155311.932500", "155312.720000", "155313.507500", "155314.297500", "155315.085000", "155315.872500", "155316.660000", "155317.450000", "155318.237500", "155319.025000", "155319.812500", "155320.602500", "155321.390000", "155322.177500", "155322.965000", "155323.755000", "155324.542500", "155325.330000", "155326.120000", "155326.907500", "155327.695000", "155328.482500", "155329.272500", "155330.060000", "155330.847500", "155331.635000", "155332.425000", "155333.212500", "155334.000000", "155334.787500", "155335.577500", "155336.365000", "155337.152500", "155337.940000", "155338.730000", "155339.517500", "155340.305000", "155341.092500", "155341.882500", "155342.670000", "155343.457500", "155344.247500", "155345.035000", "155345.822500", "155346.610000", "155347.400000", "155348.187500", "155348.975000", "155349.762500", "155350.552500", "155351.340000", "155352.127500", "155352.915000", "155353.705000", "155354.492500", "155355.280000", "155356.067500"],
