{
  "AcquisitionMatrixPE": 104,
  "AcquisitionNumber": 1,
  "AcquisitionTime": "16:38:4.810000",
  "BandwidthPerPixelPhaseEncode": 13.935,
  "BaseResolution": 104,
  "CoilString": "C:HEA;HEP",
  "ConversionSoftware": "dcm2niix",
  "ConversionSoftwareVersion": "v1.0.20210317",
  "DerivedVendorReportedEchoSpacing": 0.000690017,
  "DeviceSerialNumber": "35450",
  "DwellTime": 2.5e-06,
  "EchoTime": 0.0348,
  "EffectiveEchoSpacing": 0.000690017,
  "FlipAngle": 55,
  "ImageComments": "Unaliased MB8/PE3",
  "ImageOrientationPatientDICOM": [1, 0, 0, 0, 0.989016, -0.147809],
  "ImageType": [
    "ORIGINAL",
    "PRIMARY",
    "M",
    "MB",
    "ND",
    "MOSAIC"
],
  "ImagingFrequency": 123.235,
  "InPlanePhaseEncodingDirectionDICOM": "COL",
  "InstitutionAddress": "Univeristy Ave. 197,Newark,North East,US,07102-1814",
  "InstitutionName": "RUBIC",
  "InstitutionalDepartmentName": "Department",
  "MRAcquisitionType": "2D",
  "MagneticFieldStrength": 3,
  "Manufacturer": "Siemens",
  "ManufacturersModelName": "TrioTim",
  "Modality": "MR",
  "MultibandAccelerationFactor": 8,
  "PartialFourier": 0.875,
  "PatientPosition": "HFS",
  "PercentPhaseFOV": 100,
  "PercentSampling": 100,
  "PhaseEncodingDirection": "j-",
  "PhaseEncodingSteps": 91,
  "PhaseResolution": 1,
  "PixelBandwidth": 1923,
  "ProcedureStepDescription": "Cole^Michael",
  "ProtocolName": "cmrr_mbep2d_bold_2mm_MB8_Task_8x",
  "PulseSequenceDetails": "%CustomerSeq%\\cmrr_mbep2d_bold",
  "ReceiveCoilName": "32Ch_Head",
  "ReconMatrixPE": 104,
  "RepetitionTime": 0.785,
  "SAR": 0.125509,
  "ScanOptions": "PFP\\FS",
  "ScanningSequence": "EP",
  "SequenceName": "epfid2d1_104",
  "SequenceVariant": "SK\\SS",
  "SeriesDescription": "cmrr_mbep2d_bold_2mm_MB8_Task_8x",
  "SeriesNumber": 25,
  "ShimSetting": [2115, -323, -7280, 637, -301, -524, -59, 39],
  "SliceThickness": 2,
  "SliceTiming": [0, 0.4375, 0.0875, 0.525, 0.175, 0.6125, 0.2625, 0.7, 0.35, 0, 0.4375, 0.0875, 0.525, 0.175, 0.6125, 0.2625, 0.7, 0.35, 0, 0.4375, 0.0875, 0.525, 0.175, 0.6125, 0.2625, 0.7, 0.35, 0, 0.4375, 0.0875, 0.525, 0.175, 0.6125, 0.2625, 0.7, 0.35, 0, 0.4375, 0.0875, 0.525, 0.175, 0.6125, 0.2625, 0.7, 0.35, 0, 0.4375, 0.0875, 0.525, 0.175, 0.6125, 0.2625, 0.7, 0.35, 0, 0.4375, 0.0875, 0.525, 0.175, 0.6125, 0.2625, 0.7, 0.35, 0, 0.4375, 0.0875, 0.525, 0.175, 0.6125, 0.2625, 0.7, 0.35],
  "SoftwareVersions": "syngo MR B19",
  "SpacingBetweenSlices": 2,
  "StationName": "MRC35450",
  "TaskName": "cpro",
  "TotalReadoutTime": 0.0710717,
  "TxRefAmp": 356.725,
  "dcmmeta_affine": [
    [-2.0, 0.0, 0.0, 105.3559341430664],
    [0.0, 1.9780317544937134, -0.29561883211135864, -76.20597076416016],
    [0.0, 0.29561883211135864, 1.9780317544937134, -108.96739196777344],
    [0.0, 0.0, 0.0, 1.0]
],
  "dcmmeta_reorient_transform": [
    [0.0, -1.0, 0.0, 103.0],
    [1.0, 0.0, 0.0, 0.0],
    [0.0, 0.0, 1.0, 0.0],
    [0.0, 0.0, 0.0, 1.0]
],
  "dcmmeta_shape": [104, 104, 72, 581],
  "dcmmeta_slice_dim": 2,
  "dcmmeta_version": 0.6,
  "global": {
    "const": {
      "AcquisitionMatrix": [104, 0, 0, 104],
      "AngioFlag": "N",
      "BitsAllocated": 16,
      "BitsStored": 12,
      "Columns": 936,
      "EchoNumbers": 1,
      "EchoTime": 34.8,
      "EchoTrainLength": 1,
      "FlipAngle": 55.0,
      "HighBit": 11,
      "ImageOrientationPatient": [1.0, 0.0, 0.0, 0.0, 0.98901586285082, -0.1478094145494],
      "ImagePositionPatient": [-937.35593223572, -950.3924926479, 44.458781024595],
      "ImageType": [
        "ORIGINAL",
        "PRIMARY",
        "M",
        "MB",
        "ND",
        "MOSAIC"
],
      "ImagedNucleus": "1H",
      "ImagingFrequency": 123.234593,
      "InPlanePhaseEncodingDirection": "COL",
      "MRAcquisitionType": "2D",
      "MagneticFieldStrength": 3.0,
      "Manufacturer": "SIEMENS",
      "ManufacturerModelName": "TrioTim",
      "Modality": "MR",
      "NumberOfAverages": 1.0,
      "NumberOfPhaseEncodingSteps": 91,
      "PercentPhaseFieldOfView": 100.0,
      "PercentSampling": 100.0,
      "PerformedProcedureStepStartTime": "143249.500000",
      "PhotometricInterpretation": "MONOCHROME2",
      "PixelBandwidth": 1923.0,
      "PixelRepresentation": 0,
      "PixelSpacing": [2.0, 2.0],
      "ProtocolName": "cmrr_mbep2d_bold_2mm_MB8_Task_8x",
      "RepetitionTime": 785.0,
      "Rows": 936,
      "SAR": 0.12550929979743,
      "SamplesPerPixel": 1,
      "ScanOptions": [
        "PFP",
        "FS"
],
      "ScanningSequence": "EP",
      "SequenceName": "epfid2d1_104",
      "SequenceVariant": [
        "SK",
        "SS"
],
      "SeriesDescription": "cmrr_mbep2d_bold_2mm_MB8_Task_8x",
      "SeriesNumber": 25,
      "SeriesTime": "182356.609000",
      "SliceLocation": -96.506518254105,
      "SliceThickness": 2.0,
      "SmallestImagePixelValue": 0,
      "SoftwareVersions": "syngo MR B19",
      "SpacingBetweenSlices": 2.0000000220781,
      "SpecificCharacterSet": "ISO_IR 100",
      "StudyID": "1",
      "StudyTime": "143249.453000",
      "TransmitCoilName": "Body",
      "VariableFlipAngleFlag": "N",
      "WindowCenterWidthExplanation": "Algo1",
      "dBdt": 0.0},
    "slices": {}
  },
  "time": {
    "samples": {
      "AcquisitionNumber": [1, 2, 3, 4, 5, 6, 7, 8, 9, 10, 11, 12, 13, 14, 15, 16, 17, 18, 19, 20, 21, 22, 23, 24, 25, 26, 27, 28, 29, 30, 31, 32, 33, 34, 35, 36, 37, 38, 39, 40, 41, 42, 43, 44, 45, 46, 47, 48, 49, 50, 51, 52, 53, 54, 55, 56, 57, 58, 59, 60, 61, 62, 63, 64, 65, 66, 67, 68, 69, 70, 71, 72, 73, 74, 75, 76, 77, 78, 79, 80, 81, 82, 83, 84, 85, 86, 87, 88, 89, 90, 91, 92, 93, 94, 95, 96, 97, 98, 99, 100, 101, 102, 103, 104, 105, 106, 107, 108, 109, 110, 111, 112, 113, 114, 115, 116, 117, 118, 119, 120, 121, 122, 123, 124, 125, 126, 127, 128, 129, 130, 131, 132, 133, 134, 135, 136, 137, 138, 139, 140, 141, 142, 143, 144, 145, 146, 147, 148, 149, 150, 151, 152, 153, 154, 155, 156, 157, 158, 159, 160, 161, 162, 163, 164, 165, 166, 167, 168, 169, 170, 171, 172, 173, 174, 175, 176, 177, 178, 179, 180, 181, 182, 183, 184, 185, 186, 187, 188, 189, 190, 191, 192, 193, 194, 195, 196, 197, 198, 199, 200, 201, 202, 203, 204, 205, 206, 207, 208, 209, 210, 211, 212, 213, 214, 215, 216, 217, 218, 219, 220, 221, 222, 223, 224, 225, 226, 227, 228, 229, 230, 231, 232, 233, 234, 235, 236, 237, 238, 239, 240, 241, 242, 243, 244, 245, 246, 247, 248, 249, 250, 251, 252, 253, 254, 255, 256, 257, 258, 259, 260, 261, 262, 263, 264, 265, 266, 267, 268, 269, 270, 271, 272, 273, 274, 275, 276, 277, 278, 279, 280, 281, 282, 283, 284, 285, 286, 287, 288, 289, 290, 291, 292, 293, 294, 295, 296, 297, 298, 299, 300, 301, 302, 303, 304, 305, 306, 307, 308, 309, 310, 311, 312, 313, 314, 315, 316, 317, 318, 319, 320, 321, 322, 323, 324, 325, 326, 327, 328, 329, 330, 331, 332, 333, 334, 335, 336, 337, 338, 339, 340, 341, 342, 343, 344, 345, 346, 347, 348, 349, 350, 351, 352, 353, 354, 355, 356, 357, 358, 359, 360, 361, 362, 363, 364, 365, 366, 367, 368, 369, 370, 371, 372, 373, 374, 375, 376, 377, 378, 379, 380, 381, 382, 383, 384, 385, 386, 387, 388, 389, 390, 391, 392, 393, 394, 395, 396, 397, 398, 399, 400, 401, 402, 403, 404, 405, 406, 407, 408, 409, 410, 411, 412, 413, 414, 415, 416, 417, 418, 419, 420, 421, 422, 423, 424, 425, 426, 427, 428, 429, 430, 431, 432, 433, 434, 435, 436, 437, 438, 439, 440, 441, 442, 443, 444, 445, 446, 447, 448, 449, 450, 451, 452, 453, 454, 455, 456, 457, 458, 459, 460, 461, 462, 463, 464, 465, 466, 467, 468, 469, 470, 471, 472, 473, 474, 475, 476, 477, 478, 479, 480, 481, 482, 483, 484, 485, 486, 487, 488, 489, 490, 491, 492, 493, 494, 495, 496, 497, 498, 499, 500, 501, 502, 503, 504, 505, 506, 507, 508, 509, 510, 511, 512, 513, 514, 515, 516, 517, 518, 519, 520, 521, 522, 523, 524, 525, 526, 527, 528, 529, 530, 531, 532, 533, 534, 535, 536, 537, 538, 539, 540, 541, 542, 543, 544, 545, 546, 547, 548, 549, 550, 551, 552, 553, 554, 555, 556, 557, 558, 559, 560, 561, 562, 563, 564, 565, 566, 567, 568, 569, 570, 571, 572, 573, 574, 575, 576, 577, 578, 579, 580, 581],
      "AcquisitionTime": ["163804.810000", "163805.597500", "163806.385000", "163807.172500", "163807.962500", "163808.750000", "163809.537500", "163810.327500", "163811.115000", "163811.902500", "163812.690000", "163813.480000", "163814.267500", "163815.055000", "163815.842500", "163816.632500", "163817.420000", "163818.207500", "163818.995000", "163819.785000", "163820.572500", "163821.360000", "163822.147500", "163822.937500", "163823.725000", "163824.512500", "163825.300000", "163826.090000", "163826.877500", "163827.665000", "163828.455000", "163829.242500", "163830.030000", "163830.817500", "163831.607500", "163832.395000", "163833.182500", "163833.970000", "163834.760000", "163835.547500", "163836.335000", "163837.122500", "163837.912500", "163838.700000", "163839.487500", "163840.275000", "163841.065000", "163841.852500", "163842.640000", "163843.427500", "163844.217500", "163845.005000", "163845.792500", "163846.582500", "163847.370000", "163848.157500", "163848.945000", "163849.735000", "163850.522500", "163851.310000", "163852.097500", "163852.887500", "163853.675000", "163854.462500", "163855.250000", "163856.040000", "163856.827500", "163857.615000", "163858.402500", "163859.192500", "163859.980000", "163900.767500", "163901.555000", "163902.345000", "163903.132500", "163903.920000", "163904.710000", "163905.497500", "163906.285000", "163907.072500", "163907.862500", "163908.650000", "163909.437500", "163910.225000", "163911.015000", "163911.802500", "163912.590000", "163913.377500", "163914.167500", "163914.955000", "163915.742500", "163916.530000", "163917.320000", "163918.107500", "163918.895000", "163919.682500", "163920.472500", "163921.260000", "163922.047500", "163922.837500", "163923.625000", "163924.412500", "163925.200000", "163925.990000", "163926.777500", "163927.565000", "163928.352500", "163929.142500", "163929.930000", "163930.717500", "163931.505000", "163932.295000", "163933.082500", "163933.870000", "163934.657500", "163935.447500", "163936.235000", "163937.022500", "163937.810000", "163938.600000", "163939.387500", "163940.175000", "163940.965000", "163941.752500", "163942.540000", "163943.327500", "163944.117500", "163944.905000", "163945.692500", "163946.480000", "163947.270000", "163948.057500", "163948.845000", "163949.632500", "163950.422500", "163951.210000", "163951.997500", "163952.785000", "163953.575000", "163954.362500", "163955.150000", "163955.937500", "163956.727500", "163957.515000", "163958.302500", "163959.092500", "163959.880000", "164000.667500", "164001.455000", "164002.245000", "164003.032500", "164003.820000", "164004.607500", "164005.397500", "164006.185000", "164006.972500", "164007.760000", "164008.550000", "164009.337500", "164010.125000", "164010.912500", "164011.702500", "164012.490000", "164013.277500", "164014.065000", "164014.855000", "164015.642500", "164016.430000", "164017.220000", "164018.007500", "164018.795000", "164019.582500", "164020.372500", "164021.160000", "164021.947500", "164022.735000", "164023.525000", "164024.312500", "164025.100000", "164025.887500", "164026.677500", "164027.465000", "164028.252500", "164029.040000", "164029.830000", "164030.617500", "164031.405000", "164032.192500", "164032.982500", "164033.770000", "164034.557500", "164035.347500", "164036.135000", "164036.922500", "164037.710000", "164038.500000", "164039.287500", "164040.075000", "164040.862500", "164041.652500", "164042.440000", "164043.227500", "164044.015000", "164044.805000", "164045.592500", "164046.380000", "164047.167500", "164047.957500", "164048.745000", "164049.532500", "164050.320000", "164051.110000", "164051.897500", "164052.685000", "164053.475000", "164054.262500", "164055.050000", "164055.837500", "164056.627500", "164057.415000", "164058.202500", "164058.990000", "164059.780000", "164100.567500", "164101.355000", "164102.142500", "164102.932500", "164103.720000", "164104.507500", "164105.295000", "164106.085000", "164106.872500", "164107.660000", "164108.450000", "164109.237500", "164110.025000", "164110.812500", "164111.602500", "164112.390000", "164113.177500", "164113.965000", "164114.755000", "164115.542500", "164116.330000", "164117.117500", "164117.907500", "164118.695000", "164119.482500", "164120.270000", "164121.060000", "164121.847500", "164122.635000", "164123.422500", "164124.212500", "164125.000000", "164125.787500", "164126.577500", "164127.365000", "164128.152500", "164128.940000", "164129.730000", "164130.517500", "164131.305000", "164132.092500", "164132.882500", "164133.670000", "164134.457500", "164135.245000", "164136.035000", "164136.822500", "164137.610000", "164138.397500", "164139.187500", "164139.975000", "164140.762500", "164141.550000", "164142.340000", "164143.127500", "164143.915000", "164144.705000", "164145.492500", "164146.280000", "164147.067500", "164147.857500", "164148.645000", "164149.432500", "164150.220000", "164151.010000", "164151.797500", "164152.585000", "164153.372500", "164154.162500", "164154.950000", "164155.737500", "164156.525000", "164157.315000", "164158.102500", "164158.890000", "164159.677500", "164200.467500", "164201.255000", "164202.042500", "164202.832500", "164203.620000", "164204.407500", "164205.195000", "164205.985000", "164206.772500", "164207.560000", "164208.347500", "164209.137500", "164209.925000", "164210.712500", "164211.500000", "164212.290000", "164213.077500", "164213.865000", "164214.652500", "164215.442500", "164216.230000", "164217.017500", "164217.805000", "164218.595000", "164219.382500", "164220.170000", "164220.960000", "164221.747500", "164222.535000", "164223.322500", "164224.112500", "164224.900000", "164225.687500", "164226.475000", "164227.265000", "164228.052500", "164228.840000", "164229.627500", "164230.417500", "164231.205000", "164231.992500", "164232.780000", "164233.570000", "164234.357500", "164235.145000", "164235.932500", "164236.722500", "164237.510000", "164238.297500", "164239.087500", "164239.875000", "164240.662500", "164241.450000", "164242.240000", "164243.027500", "164243.815000", "164244.602500", "164245.392500", "164246.180000", "164246.967500", "164247.755000", "164248.545000", "164249.332500", "164250.120000", "164250.907500", "164251.697500", "164252.485000", "164253.272500", "164254.060000", "164254.850000", "164255.637500", "164256.425000", "164257.215000", "164258.002500", "164258.790000", "164259.577500", "164300.367500", "164301.155000", "164301.942500", "164302.730000", "164303.520000", "164304.307500", "164305.095000", "164305.882500", "164306.672500", "164307.460000", "164308.247500", "164309.035000", "164309.825000", "164310.612500", "164311.400000", "164312.187500", "164312.977500", "164313.765000", "164314.552500", "164315.342500", "164316.130000", "164316.917500", "164317.705000", "164318.495000", "164319.282500", "164320.070000", "164320.857500", "164321.647500", "164322.435000", "164323.222500", "164324.010000", "164324.800000", "164325.587500", "164326.375000", "164327.162500", "164327.952500", "164328.740000", "164329.527500", "164330.315000", "164331.105000", "164331.892500", "164332.680000", "164333.470000", "164334.257500", "164335.045000", "164335.832500", "164336.622500", "164337.410000", "164338.197500", "164338.985000", "164339.775000", "164340.562500", "164341.350000", "164342.137500", "164342.927500", "164343.715000", "164344.502500", "164345.290000", "164346.080000", "164346.867500", "164347.655000", "164348.442500", "164349.232500", "164350.020000", "164350.807500", "164351.597500", "164352.385000", "164353.172500", "164353.960000", "164354.750000", "164355.537500", "164356.325000", "164357.112500", "164357.902500", "164358.690000", "164359.477500", "164400.265000", "164401.055000", "164401.842500", "164402.630000", "164403.417500", "164404.207500", "164404.995000", "164405.782500", "164406.570000", "164407.360000", "164408.147500", "164408.935000", "164409.725000", "164410.512500", "164411.300000", "164412.087500", "164412.877500", "164413.665000", "164414.452500", "164415.240000", "164416.030000", "164416.817500", "164417.605000", "164418.392500", "164419.182500", "164419.970000", "164420.757500", "164421.545000", "164422.335000", "164423.122500", "164423.910000", "164424.700000", "164425.487500", "164426.275000", "164427.062500", "164427.852500", "164428.640000", "164429.427500", "164430.215000", "164431.005000", "164431.792500", "164432.580000", "164433.367500", "164434.157500", "164434.945000", "164435.732500", "164436.520000", "164437.310000", "164438.097500", "164438.885000", "164439.672500", "164440.462500", "164441.250000", "164442.037500", "164442.827500", "164443.615000", "164444.402500", "164445.190000", "164445.980000", "164446.767500", "164447.555000", "164448.342500", "164449.132500", "164449.920000", "164450.707500", "164451.495000", "164452.285000", "164453.072500", "164453.860000", "164454.647500", "164455.437500", "164456.225000", "164457.012500", "164457.800000", "164458.590000", "164459.377500", "164500.165000", "164500.955000", "164501.742500", "164502.530000", "164503.317500", "164504.107500", "164504.895000", "164505.682500", "164506.470000", "164507.260000", "164508.047500", "164508.835000", "164509.622500", "164510.412500", "164511.200000", "164511.987500", "164512.775000", "164513.565000", "164514.352500", "164515.140000", "164515.927500", "164516.717500", "164517.505000", "164518.292500", "164519.082500", "164519.870000", "164520.657500", "164521.445000", "164522.235000", "164523.022500", "164523.810000", "164524.597500", "164525.387500", "164526.175000", "164526.962500", "164527.750000", "164528.540000", "164529.327500", "164530.115000", "164530.902500", "164531.692500", "164532.480000", "164533.267500", "164534.055000", "164534.845000", "164535.632500", "164536.420000", "164537.210000", "164537.997500", "164538.785000", "164539.572500", "164540.362500", "164541.150000", "164541.937500"],
      "ContentTime": ["182356.609000", "182356.609000", "182356.609000", "182356.625000", "182456.578000", "182456.578000", "182456.578000", "182456.578000", "182456.593000", "182456.593000", "182456.593000", "182456.593000", "182456.593000", "182456.593000", "182456.593000", "182456.609000", "182456.609000", "182456.609000", "182456.609000", "182456.609000", "182456.609000", "182456.609000", "182456.625000", "182456.625000", "182456.625000", "182456.625000", "182456.625000", "182456.625000", "182456.625000", "182456.640000", "182456.640000", "182456.640000", "182556.578000", "182556.578000", "182556.578000", "182556.578000", "182556.593000", "182556.593000", "182556.593000", "182556.593000", "182556.593000", "182556.593000", "182556.593000", "182556.609000", "182556.609000", "182556.609000", "182556.609000", "182556.609000", "182556.609000", "182556.609000", "182556.625000", "182556.625000", "182556.625000", "182556.625000", "182556.625000", "182556.625000", "182556.640000", "182556.640000", "182556.640000", "182556.640000", "182556.640000", "182656.578000", "182656.578000", "182656.578000", "182656.578000", "182656.593000", "182656.593000", "182656.593000", "182656.593000", "182656.593000", "182656.593000", "182656.593000", "182656.609000", "182656.609000", "182656.609000", "182656.609000", "182656.609000", "182656.609000", "182656.609000", "182656.625000", "182656.625000", "182656.625000", "182656.625000", "182656.625000", "182656.625000", "182656.625000", "182656.640000", "182656.640000", "182656.640000", "182756.578000", "182756.578000", "182756.578000", "182756.578000", "182756.593000", "182756.593000", "182756.593000", "182756.593000", "182756.593000", "182756.593000", "182756.593000", "182756.609000", "182756.609000", "182756.609000", "182756.609000", "182756.609000", "182756.609000", "182756.609000", "182756.625000", "182756.625000", "182756.625000", "182756.625000", "182756.625000", "182756.625000", "182756.625000", "182756.640000", "182756.640000", "182756.640000", "182816.578000", "182816.578000", "182816.593000", "182816.593000", "182816.593000", "182816.593000", "182816.609000", "182816.609000", "182816.609000", "182916.578000", "182916.578000", "182916.578000", "182916.578000", "182916.593000", "182916.593000", "182916.593000", "182916.593000", "182916.593000", "182916.593000", "182916.593000", "182916.609000", "182916.609000", "182916.609000", "182916.609000", "182916.609000", "182916.609000", "182916.609000", "182916.625000", "182916.625000", "182916.625000", "182916.625000", "182916.625000", "182916.640000", "182916.640000", "182916.640000", "182916.640000", "182916.640000", "182916.640000", "183016.578000", "183016.578000", "183016.578000", "183016.578000", "183016.593000", "183016.593000", "183016.593000", "183016.593000", "183016.593000", "183016.593000", "183016.593000", "183016.609000", "183016.609000", "183016.609000", "183016.625000", "183016.625000", "183016.625000", "183016.625000", "183016.625000", "183016.625000", "183016.640000", "183016.640000", "183016.640000", "183016.640000", "183016.640000", "183016.640000", "183016.656000", "183016.656000", "183116.578000", "183116.578000", "183116.578000", "183116.578000", "183116.593000", "183116.593000", "183116.593000", "183116.593000", "183116.593000", "183116.593000", "183116.593000", "183116.609000", "183116.609000", "183116.609000", "183116.609000", "183116.609000", "183116.609000", "183116.609000", "183116.625000", "183116.625000", "183116.625000", "183116.625000", "183116.625000", "183116.625000", "183116.625000", "183116.640000", "183116.640000", "183116.640000", "183216.578000", "183216.578000", "183216.578000", "183216.578000", "183216.593000", "183216.593000", "183216.593000", "183216.593000", "183216.593000", "183216.593000", "183216.593000", "183216.609000", "183216.609000", "183216.609000", "183216.609000", "183216.609000", "183216.609000", "183216.625000", "183216.625000", "183216.625000", "183216.625000", "183216.625000", "183216.625000", "183216.640000", "183216.640000", "183216.640000", "183216.640000", "183216.640000", "183216.640000", "183316.578000", "183316.578000", "183316.578000", "183316.578000", "183316.593000", "183316.593000", "183316.593000", "183316.593000", "183316.593000", "183316.593000", "183316.593000", "183316.609000", "183316.609000", "183316.609000", "183316.609000", "183316.609000", "183316.609000", "183316.609000", "183316.625000", "183316.625000", "183316.625000", "183316.625000", "183316.625000", "183316.625000", "183316.640000", "183316.640000", "183316.640000", "183316.640000", "183416.578000", "183416.578000", "183416.578000", "183416.578000", "183416.593000", "183416.593000", "183416.593000", "183416.593000", "183416.593000", "183416.593000", "183416.593000", "183416.609000", "183416.609000", "183416.609000", "183416.609000", "183416.609000", "183416.609000", "183416.625000", "183416.625000", "183416.625000", "183416.625000", "183416.625000", "183416.625000", "183416.640000", "183416.640000", "183416.640000", "183416.640000", "183416.640000", "183516.578000", "183516.578000", "183516.578000", "183516.578000", "183516.593000", "183516.593000", "183516.593000", "183516.593000", "183516.593000", "183516.593000", "183516.593000", "183516.609000", "183516.609000", "183516.609000", "183516.609000", "183516.609000", "183516.609000", "183516.625000", "183516.625000", "183516.625000", "183516.625000", "183516.625000", "183516.625000", "183516.625000", "183516.640000", "183516.640000", "183516.640000", "183516.640000", "183616.578000", "183616.578000", "183616.578000", "183616.578000", "183616.593000", "183616.593000", "183616.593000", "183616.593000", "183616.593000", "183616.593000", "183616.609000", "183616.609000", "183616.609000", "183616.609000", "183616.609000", "183616.609000", "183616.609000", "183616.625000", "183616.625000", "183616.625000", "183616.625000", "183616.625000", "183616.625000", "183616.625000", "183616.640000", "183616.640000", "183616.640000", "183616.640000", "183616.640000", "183716.578000", "183716.578000", "183716.578000", "183716.578000", "183716.593000", "183716.593000", "183716.593000", "183716.593000", "183716.593000", "183716.593000", "183716.593000", "183716.609000", "183716.609000", "183716.609000", "183716.609000", "183716.609000", "183716.609000", "183716.609000", "183716.625000", "183716.625000", "183716.625000", "183716.625000", "183716.625000", "183716.625000", "183716.640000", "183716.640000", "183716.640000", "183716.640000", "183756.578000", "183756.578000", "183756.578000", "183756.578000", "183756.593000", "183756.593000", "183756.593000", "183756.593000", "183756.593000", "183756.593000", "183756.593000", "183756.609000", "183756.609000", "183756.609000", "183756.609000", "183756.609000", "183756.609000", "183756.609000", "183756.625000", "183856.578000", "183856.578000", "183856.578000", "183856.578000", "183856.593000", "183856.593000", "183856.593000", "183856.593000", "183856.593000", "183856.593000", "183856.593000", "183856.609000", "183856.609000", "183856.609000", "183856.609000", "183856.609000", "183856.609000", "183856.609000", "183856.625000", "183856.625000", "183856.625000", "183856.625000", "183856.625000", "183856.625000", "183856.640000", "183856.640000", "183856.640000", "183856.640000", "183956.578000", "183956.578000", "183956.593000", "183956.593000", "183956.593000", "183956.593000", "183956.593000", "183956.593000", "183956.593000", "183956.609000", "183956.609000", "183956.609000", "183956.609000", "183956.609000", "183956.609000", "183956.609000", "183956.625000", "183956.625000", "183956.625000", "183956.625000", "183956.625000", "183956.625000", "183956.625000", "183956.640000", "183956.640000", "183956.640000", "183956.640000", "183956.640000", "184056.578000", "184056.578000", "184056.578000", "184056.578000", "184056.593000", "184056.593000", "184056.593000", "184056.593000", "184056.593000", "184056.593000", "184056.593000", "184056.609000", "184056.609000", "184056.609000", "184056.609000", "184056.609000", "184056.609000", "184056.625000", "184056.625000", "184056.625000", "184056.625000", "184056.625000", "184056.625000", "184056.640000", "184056.640000", "184056.640000", "184056.640000", "184056.640000", "184056.640000", "184156.578000", "184156.578000", "184156.578000", "184156.578000", "184156.593000", "184156.593000", "184156.593000", "184156.593000", "184156.593000", "184156.593000", "184156.593000", "184156.609000", "184156.609000", "184156.609000", "184156.609000", "184156.609000", "184156.609000", "184156.625000", "184156.625000", "184156.625000", "184156.625000", "184156.625000", "184156.625000", "184156.625000", "184156.640000", "184156.640000", "184156.640000", "184156.640000", "184256.578000", "184256.578000", "184256.578000", "184256.578000", "184256.593000", "184256.593000", "184256.593000", "184256.593000", "184256.593000", "184256.593000", "184256.593000", "184256.609000", "184256.609000", "184256.609000", "184256.609000", "184256.609000", "184256.609000", "184256.625000", "184256.625000", "184256.625000", "184256.625000", "184256.625000", "184256.625000", "184256.625000", "184256.640000", "184256.640000", "184256.640000", "184256.640000", "184356.578000", "184356.578000", "184356.578000", "184356.578000", "184356.593000", "184356.593000", "184356.593000", "184356.593000", "184356.593000", "184356.593000", "184356.593000", "184356.609000", "184356.609000", "184356.609000", "184356.609000", "184356.609000", "184356.625000", "184356.625000", "184356.625000", "184356.625000", "184356.625000", "184356.625000", "184356.640000", "184356.640000", "184356.640000", "184356.640000", "184356.640000", "184356.640000", "184356.640000", "184419.218000", "184419.218000", "184419.218000", "184419.218000", "184419.218000", "184419.234000", "184419.234000", "184419.234000", "184419.234000", "184419.234000", "184419.250000"],
      "DataSetTrailingPadding": [
        "\u0000\u0000\u0000\u0000\u0000\u0000\u0000\u0000\u0000\u0000\u0000\u0000\u0000\u0000\u0000\u0000\u0000\u0000\u0000\u0000\u0000\u0000\u0000\u0000\u0000\u0000\u0000\u0000\u0000\u0000\u0000\u0000\u0000\u0000\u0000\u0000\u0000\u0000\u0000\u0000\u0000\u0000\u0000\u0000\u0000\u0000\u0000\u0000\u0000\u0000\u0000\u0000\u0000\u0000\u0000\u0000\u0000\u0000\u0000\u0000\u0000\u0000\u0000\u0000\u0000\u0000\u0000\u0000\u0000\u0000\u0000\u0000\u0000\u0000\u0000\u0000\u0000\u0000\u0000\u0000\u0000\u0000\u0000\u0000\u0000\u0000\u0000\u0000\u0000\u0000\u0000\u0000\u0000\u0000\u0000\u0000\u0000\u0000\u0000\u0000\u0000\u0000\u0000\u0000\u0000\u0000\u0000\u0000\u0000\u0000\u0000\u0000\u0000\u0000\u0000\u0000\u0000\u0000\u0000\u0000\u0000\u0000\u0000\u0000\u0000\u0000\u0000\u0000\u0000\u0000\u0000\u0000\u0000\u0000\u0000\u0000\u0000\u0000\u0000\u0000\u0000\u0000\u0000\u0000\u0000\u0000\u0000\u0000\u0000\u0000\u0000\u0000\u0000\u0000\u0000\u0000\u0000\u0000\u0000\u0000\u0000\u0000\u0000\u0000\u0000\u0000\u0000\u0000\u0000\u0000\u0000\u0000\u0000\u0000\u0000\u0000\u0000\u0000\u0000\u0000\u0000\u0000\u0000\u0000\u0000\u0000\u0000\u0000\u0000\u0000\u0000\u0000\u0000\u0000\u0000\u0000\u0000\u0000\u0000\u0000\u0000\u0000\u0000\u0000\u0000\u0000\u0000\u0000\u0000\u0000\u0000\u0000\u0000\u0000\u0000\u0000\u0000\u0000\u0000\u0000\u0000\u0000\u0000\u0000\u0000\u0000\u0000\u0000\u0000\u0000\u0000\u0000\u0000\u0000\u0000\u0000\u0000\u0000\u0000\u0000\u0000\u0000\u0000\u0000\u0000\u0000\u0000\u0000\u0000\u0000\u0000\u0000\u0000\u0000\u0000\u0000\u0000\u0000\u0000\u0000\u0000\u0000\u0000\u0000\u0000\u0000\u0000\u0000\u0000\u0000\u0000\u0000\u0000\u0000\u0000\u0000\u0000\u0000\u0000\u0000\u0000\u0000\u0000\u0000\u0000\u0000\u0000\u0000\u0000\u0000\u0000\u0000\u0000\u0000\u0000\u0000\u0000\u0000\u0000\u0000\u0000\u0000\u0000\u0000\u0000\u0000\u0000\u0000\u0000\u0000\u0000\u0000\u0000\u0000\u0000\u0000\u0000\u0000\u0000\u0000\u0000\u0000\u0000\u0000\u0000\u0000\u0000\u0000\u0000\u0000\u0000\u0000\u0000\u0000\u0000\u0000\u0000\u0000\u0000\u0000",
