{
  "AcquisitionMatrixPE": 104,
  "AcquisitionNumber": 1,
  "AcquisitionTime": "15:23:46.785000",
  "BandwidthPerPixelPhaseEncode": 13.935,
  "BaseResolution": 104,
  "CoilString": "C:HEA;HEP",
  "ConversionSoftware": "dcm2niix",
  "ConversionSoftwareVersion": "v1.0.20210317",
  "DerivedVendorReportedEchoSpacing": 0.000690017,
  "DeviceSerialNumber": "35450",
  "DwellTime": 2.5e-06,
  "EchoTime": 0.0348,
  "EffectiveEchoSpacing": 0.000690017,
  "FlipAngle": 55,
  "ImageComments": "Unaliased MB8/PE3",
  "ImageOrientationPatientDICOM": [1, 0, 0, 0, 0.989016, -0.147809],
  "ImageType": [
    "ORIGINAL",
    "PRIMARY",
    "M",
    "MB",
    "ND",
    "MOSAIC"
],
  "ImagingFrequency": 123.235,
  "InPlanePhaseEncodingDirectionDICOM": "COL",
  "InstitutionAddress": "Univeristy Ave. 197,Newark,North East,US,07102-1814",
  "InstitutionName": "RUBIC",
  "InstitutionalDepartmentName": "Department",
  "MRAcquisitionType": "2D",
  "MagneticFieldStrength": 3,
  "Manufacturer": "Siemens",
  "ManufacturersModelName": "TrioTim",
  "Modality": "MR",
  "MultibandAccelerationFactor": 8,
  "PartialFourier": 0.875,
  "PatientPosition": "HFS",
  "PercentPhaseFOV": 100,
  "PercentSampling": 100,
  "PhaseEncodingDirection": "j-",
  "PhaseEncodingSteps": 91,
  "PhaseResolution": 1,
  "PixelBandwidth": 1923,
  "ProcedureStepDescription": "Cole^Michael",
  "ProtocolName": "cmrr_mbep2d_bold_2mm_MB8_Rest",
  "PulseSequenceDetails": "%CustomerSeq%\\cmrr_mbep2d_bold",
  "ReceiveCoilName": "32Ch_Head",
  "ReconMatrixPE": 104,
  "RepetitionTime": 0.785,
  "SAR": 0.132594,
  "ScanOptions": "PFP\\FS",
  "ScanningSequence": "EP",
  "SequenceName": "epfid2d1_104",
  "SequenceVariant": "SK\\SS",
  "SeriesDescription": "cmrr_mbep2d_bold_2mm_MB8_Rest",
  "SeriesNumber": 9,
  "ShimSetting": [2115, -323, -7280, 637, -301, -524, -59, 39],
  "SliceThickness": 2,
  "SliceTiming": [0, 0.4375, 0.0875, 0.525, 0.175, 0.6125, 0.2625, 0.7, 0.35, 0, 0.4375, 0.0875, 0.525, 0.175, 0.6125, 0.2625, 0.7, 0.35, 0, 0.4375, 0.0875, 0.525, 0.175, 0.6125, 0.2625, 0.7, 0.35, 0, 0.4375, 0.0875, 0.525, 0.175, 0.6125, 0.2625, 0.7, 0.35, 0, 0.4375, 0.0875, 0.525, 0.175, 0.6125, 0.2625, 0.7, 0.35, 0, 0.4375, 0.0875, 0.525, 0.175, 0.6125, 0.2625, 0.7, 0.35, 0, 0.4375, 0.0875, 0.525, 0.175, 0.6125, 0.2625, 0.7, 0.35, 0, 0.4375, 0.0875, 0.525, 0.175, 0.6125, 0.2625, 0.7, 0.35],
  "SoftwareVersions": "syngo MR B19",
  "SpacingBetweenSlices": 2,
  "StationName": "MRC35450",
  "TaskName": "rest",
  "TotalReadoutTime": 0.0710717,
  "TxRefAmp": 356.725,
  "dcmmeta_affine": [
    [-2.0, 0.0, 0.0, 105.3559341430664],
    [0.0, 1.9780317544937134, -0.29561883211135864, -76.20597076416016],
    [0.0, 0.29561883211135864, 1.9780317544937134, -108.96739196777344],
    [0.0, 0.0, 0.0, 1.0]
],
  "dcmmeta_reorient_transform": [
    [0.0, -1.0, 0.0, 103.0],
    [1.0, 0.0, 0.0, 0.0],
    [0.0, 0.0, 1.0, 0.0],
    [0.0, 0.0, 0.0, 1.0]
],
  "dcmmeta_shape": [104, 104, 72, 1070],
  "dcmmeta_slice_dim": 2,
  "dcmmeta_version": 0.6,
  "global": {
    "const": {
      "AcquisitionMatrix": [104, 0, 0, 104],
      "AngioFlag": "N",
      "BitsAllocated": 16,
      "BitsStored": 12,
      "Columns": 936,
      "EchoNumbers": 1,
      "EchoTime": 34.8,
      "EchoTrainLength": 1,
      "FlipAngle": 55.0,
      "HighBit": 11,
      "ImageOrientationPatient": [1.0, 0.0, 0.0, 0.0, 0.98901586285082, -0.1478094145494],
      "ImagePositionPatient": [-937.35593223572, -950.3924926479, 44.458781024595],
      "ImageType": [
        "ORIGINAL",
        "PRIMARY",
        "M",
        "MB",
        "ND",
        "MOSAIC"
],
      "ImagedNucleus": "1H",
      "ImagingFrequency": 123.234533,
      "InPlanePhaseEncodingDirection": "COL",
      "MRAcquisitionType": "2D",
      "MagneticFieldStrength": 3.0,
      "Manufacturer": "SIEMENS",
      "ManufacturerModelName": "TrioTim",
      "Modality": "MR",
      "NumberOfAverages": 1.0,
      "NumberOfPhaseEncodingSteps": 91,
      "PercentPhaseFieldOfView": 100.0,
      "PercentSampling": 100.0,
      "PerformedProcedureStepStartTime": "143249.500000",
      "PhotometricInterpretation": "MONOCHROME2",
      "PixelBandwidth": 1923.0,
      "PixelRepresentation": 0,
      "PixelSpacing": [2.0, 2.0],
      "ProtocolName": "cmrr_mbep2d_bold_2mm_MB8_Rest",
      "RepetitionTime": 785.0,
      "Rows": 936,
      "SAR": 0.13259406067056,
      "SamplesPerPixel": 1,
      "ScanOptions": [
        "PFP",
        "FS"
],
      "ScanningSequence": "EP",
      "SequenceName": "epfid2d1_104",
      "SequenceVariant": [
        "SK",
        "SS"
],
      "SeriesDescription": "cmrr_mbep2d_bold_2mm_MB8_Rest",
      "SeriesNumber": 9,
      "SeriesTime": "152448.265000",
      "SliceLocation": -96.506518254105,
      "SliceThickness": 2.0,
      "SmallestImagePixelValue": 0,
      "SoftwareVersions": "syngo MR B19",
      "SpacingBetweenSlices": 2.0000000220781,
      "SpecificCharacterSet": "ISO_IR 100",
      "StudyID": "1",
      "StudyTime": "143249.453000",
      "TransmitCoilName": "Body",
      "VariableFlipAngleFlag": "N",
      "WindowCenterWidthExplanation": "Algo1",
      "dBdt": 0.0},
    "slices": {}
  },
  "time": {
    "samples": {
      "AcquisitionNumber": [1, 2, 3, 4, 5, 6, 7, 8, 9, 10, 11, 12, 13, 14, 15, 16, 17, 18, 19, 20, 21, 22, 23, 24, 25, 26, 27, 28, 29, 30, 31, 32, 33, 34, 35, 36, 37, 38, 39, 40, 41, 42, 43, 44, 45, 46, 47, 48, 49, 50, 51, 52, 53, 54, 55, 56, 57, 58, 59, 60, 61, 62, 63, 64, 65, 66, 67, 68, 69, 70, 71, 72, 73, 74, 75, 76, 77, 78, 79, 80, 81, 82, 83, 84, 85, 86, 87, 88, 89, 90, 91, 92, 93, 94, 95, 96, 97, 98, 99, 100, 101, 102, 103, 104, 105, 106, 107, 108, 109, 110, 111, 112, 113, 114, 115, 116, 117, 118, 119, 120, 121, 122, 123, 124, 125, 126, 127, 128, 129, 130, 131, 132, 133, 134, 135, 136, 137, 138, 139, 140, 141, 142, 143, 144, 145, 146, 147, 148, 149, 150, 151, 152, 153, 154, 155, 156, 157, 158, 159, 160, 161, 162, 163, 164, 165, 166, 167, 168, 169, 170, 171, 172, 173, 174, 175, 176, 177, 178, 179, 180, 181, 182, 183, 184, 185, 186, 187, 188, 189, 190, 191, 192, 193, 194, 195, 196, 197, 198, 199, 200, 201, 202, 203, 204, 205, 206, 207, 208, 209, 210, 211, 212, 213, 214, 215, 216, 217, 218, 219, 220, 221, 222, 223, 224, 225, 226, 227, 228, 229, 230, 231, 232, 233, 234, 235, 236, 237, 238, 239, 240, 241, 242, 243, 244, 245, 246, 247, 248, 249, 250, 251, 252, 253, 254, 255, 256, 257, 258, 259, 260, 261, 262, 263, 264, 265, 266, 267, 268, 269, 270, 271, 272, 273, 274, 275, 276, 277, 278, 279, 280, 281, 282, 283, 284, 285, 286, 287, 288, 289, 290, 291, 292, 293, 294, 295, 296, 297, 298, 299, 300, 301, 302, 303, 304, 305, 306, 307, 308, 309, 310, 311, 312, 313, 314, 315, 316, 317, 318, 319, 320, 321, 322, 323, 324, 325, 326, 327, 328, 329, 330, 331, 332, 333, 334, 335, 336, 337, 338, 339, 340, 341, 342, 343, 344, 345, 346, 347, 348, 349, 350, 351, 352, 353, 354, 355, 356, 357, 358, 359, 360, 361, 362, 363, 364, 365, 366, 367, 368, 369, 370, 371, 372, 373, 374, 375, 376, 377, 378, 379, 380, 381, 382, 383, 384, 385, 386, 387, 388, 389, 390, 391, 392, 393, 394, 395, 396, 397, 398, 399, 400, 401, 402, 403, 404, 405, 406, 407, 408, 409, 410, 411, 412, 413, 414, 415, 416, 417, 418, 419, 420, 421, 422, 423, 424, 425, 426, 427, 428, 429, 430, 431, 432, 433, 434, 435, 436, 437, 438, 439, 440, 441, 442, 443, 444, 445, 446, 447, 448, 449, 450, 451, 452, 453, 454, 455, 456, 457, 458, 459, 460, 461, 462, 463, 464, 465, 466, 467, 468, 469, 470, 471, 472, 473, 474, 475, 476, 477, 478, 479, 480, 481, 482, 483, 484, 485, 486, 487, 488, 489, 490, 491, 492, 493, 494, 495, 496, 497, 498, 499, 500, 501, 502, 503, 504, 505, 506, 507, 508, 509, 510, 511, 512, 513, 514, 515, 516, 517, 518, 519, 520, 521, 522, 523, 524, 525, 526, 527, 528, 529, 530, 531, 532, 533, 534, 535, 536, 537, 538, 539, 540, 541, 542, 543, 544, 545, 546, 547, 548, 549, 550, 551, 552, 553, 554, 555, 556, 557, 558, 559, 560, 561, 562, 563, 564, 565, 566, 567, 568, 569, 570, 571, 572, 573, 574, 575, 576, 577, 578, 579, 580, 581, 582, 583, 584, 585, 586, 587, 588, 589, 590, 591, 592, 593, 594, 595, 596, 597, 598, 599, 600, 601, 602, 603, 604, 605, 606, 607, 608, 609, 610, 611, 612, 613, 614, 615, 616, 617, 618, 619, 620, 621, 622, 623, 624, 625, 626, 627, 628, 629, 630, 631, 632, 633, 634, 635, 636, 637, 638, 639, 640, 641, 642, 643, 644, 645, 646, 647, 648, 649, 650, 651, 652, 653, 654, 655, 656, 657, 658, 659, 660, 661, 662, 663, 664, 665, 666, 667, 668, 669, 670, 671, 672, 673, 674, 675, 676, 677, 678, 679, 680, 681, 682, 683, 684, 685, 686, 687, 688, 689, 690, 691, 692, 693, 694, 695, 696, 697, 698, 699, 700, 701, 702, 703, 704, 705, 706, 707, 708, 709, 710, 711, 712, 713, 714, 715, 716, 717, 718, 719, 720, 721, 722, 723, 724, 725, 726, 727, 728, 729, 730, 731, 732, 733, 734, 735, 736, 737, 738, 739, 740, 741, 742, 743, 744, 745, 746, 747, 748, 749, 750, 751, 752, 753, 754, 755, 756, 757, 758, 759, 760, 761, 762, 763, 764, 765, 766, 767, 768, 769, 770, 771, 772, 773, 774, 775, 776, 777, 778, 779, 780, 781, 782, 783, 784, 785, 786, 787, 788, 789, 790, 791, 792, 793, 794, 795, 796, 797, 798, 799, 800, 801, 802, 803, 804, 805, 806, 807, 808, 809, 810, 811, 812, 813, 814, 815, 816, 817, 818, 819, 820, 821, 822, 823, 824, 825, 826, 827, 828, 829, 830, 831, 832, 833, 834, 835, 836, 837, 838, 839, 840, 841, 842, 843, 844, 845, 846, 847, 848, 849, 850, 851, 852, 853, 854, 855, 856, 857, 858, 859, 860, 861, 862, 863, 864, 865, 866, 867, 868, 869, 870, 871, 872, 873, 874, 875, 876, 877, 878, 879, 880, 881, 882, 883, 884, 885, 886, 887, 888, 889, 890, 891, 892, 893, 894, 895, 896, 897, 898, 899, 900, 901, 902, 903, 904, 905, 906, 907, 908, 909, 910, 911, 912, 913, 914, 915, 916, 917, 918, 919, 920, 921, 922, 923, 924, 925, 926, 927, 928, 929, 930, 931, 932, 933, 934, 935, 936, 937, 938, 939, 940, 941, 942, 943, 944, 945, 946, 947, 948, 949, 950, 951, 952, 953, 954, 955, 956, 957, 958, 959, 960, 961, 962, 963, 964, 965, 966, 967, 968, 969, 970, 971, 972, 973, 974, 975, 976, 977, 978, 979, 980, 981, 982, 983, 984, 985, 986, 987, 988, 989, 990, 991, 992, 993, 994, 995, 996, 997, 998, 999, 1000, 1001, 1002, 1003, 1004, 1005, 1006, 1007, 1008, 1009, 1010, 1011, 1012, 1013, 1014, 1015, 1016, 1017, 1018, 1019, 1020, 1021, 1022, 1023, 1024, 1025, 1026, 1027, 1028, 1029, 1030, 1031, 1032, 1033, 1034, 1035, 1036, 1037, 1038, 1039, 1040, 1041, 1042, 1043, 1044, 1045, 1046, 1047, 1048, 1049, 1050, 1051, 1052, 1053, 1054, 1055, 1056, 1057, 1058, 1059, 1060, 1061, 1062, 1063, 1064, 1065, 1066, 1067, 1068, 1069, 1070],
      "AcquisitionTime": ["152346.785000", "152347.575000", "152348.362500", "152349.150000", "152349.937500", "152350.727500", "152351.515000", "152352.302500", "152353.090000", "152353.880000", "152354.667500", "152355.455000", "152356.242500", "152357.032500", "152357.820000", "152358.607500", "152359.397500", "152400.185000", "152400.972500", "152401.760000", "152402.550000", "152403.337500", "152404.125000", "152404.912500", "152405.702500", "152406.490000", "152407.277500", "152408.065000", "152408.855000", "152409.642500", "152410.430000", "152411.217500", "152412.007500", "152412.795000", "152413.582500", "152414.370000", "152415.160000", "152415.947500", "152416.735000", "152417.525000", "152418.312500", "152419.100000", "152419.887500", "152420.677500", "152421.465000", "152422.252500", "152423.040000", "152423.830000", "152424.617500", "152425.405000", "152426.192500", "152426.982500", "152427.770000", "152428.557500", "152429.345000", "152430.135000", "152430.922500", "152431.710000", "152432.497500", "152433.287500", "152434.075000", "152434.862500", "152435.652500", "152436.440000", "152437.227500", "152438.015000", "152438.805000", "152439.592500", "152440.380000", "152441.167500", "152441.957500", "152442.745000", "152443.532500", "152444.320000", "152445.110000", "152445.897500", "152446.685000", "152447.472500", "152448.262500", "152449.050000", "152449.837500", "152450.625000", "152451.415000", "152452.202500", "152452.990000", "152453.780000", "152454.567500", "152455.355000", "152456.142500", "152456.932500", "152457.720000", "152458.507500", "152459.295000", "152500.085000", "152500.872500", "152501.660000", "152502.447500", "152503.237500", "152504.025000", "152504.812500", "152505.600000", "152506.390000", "152507.177500", "152507.965000", "152508.755000", "152509.542500", "152510.330000", "152511.117500", "152511.907500", "152512.695000", "152513.482500", "152514.270000", "152515.060000", "152515.847500", "152516.635000", "152517.422500", "152518.212500", "152519.000000", "152519.787500", "152520.575000", "152521.365000", "152522.152500", "152522.940000", "152523.727500", "152524.517500", "152525.305000", "152526.092500", "152526.882500", "152527.670000", "152528.457500", "152529.245000", "152530.035000", "152530.822500", "152531.610000", "152532.397500", "152533.187500", "152533.975000", "152534.762500", "152535.550000", "152536.340000", "152537.127500", "152537.915000", "152538.702500", "152539.492500", "152540.280000", "152541.067500", "152541.855000", "152542.645000", "152543.432500", "152544.220000", "152545.010000", "152545.797500", "152546.585000", "152547.372500", "152548.162500", "152548.950000", "152549.737500", "152550.525000", "152551.315000", "152552.102500", "152552.890000", "152553.677500", "152554.467500", "152555.255000", "152556.042500", "152556.830000", "152557.620000", "152558.407500", "152559.195000", "152559.982500", "152600.772500", "152601.560000", "152602.347500", "152603.137500", "152603.925000", "152604.712500", "152605.500000", "152606.290000", "152607.077500", "152607.865000", "152608.652500", "152609.442500", "152610.230000", "152611.017500", "152611.805000", "152612.595000", "152613.382500", "152614.170000", "152614.957500", "152615.747500", "152616.535000", "152617.322500", "152618.110000", "152618.900000", "152619.687500", "152620.475000", "152621.265000", "152622.052500", "152622.840000", "152623.627500", "152624.417500", "152625.205000", "152625.992500", "152626.780000", "152627.570000", "152628.357500", "152629.145000", "152629.932500", "152630.722500", "152631.510000", "152632.297500", "152633.085000", "152633.875000", "152634.662500", "152635.450000", "152636.237500", "152637.027500", "152637.815000", "152638.602500", "152639.392500", "152640.180000", "152640.967500", "152641.755000", "152642.545000", "152643.332500", "152644.120000", "152644.907500", "152645.697500", "152646.485000", "152647.272500", "152648.060000", "152648.850000", "152649.637500", "152650.425000", "152651.212500", "152652.002500", "152652.790000", "152653.577500", "152654.365000", "152655.155000", "152655.942500", "152656.730000", "152657.520000", "152658.307500", "152659.095000", "152659.882500", "152700.672500", "152701.460000", "152702.247500", "152703.035000", "152703.825000", "152704.612500", "152705.400000", "152706.187500", "152706.977500", "152707.765000", "152708.552500", "152709.340000", "152710.130000", "152710.917500", "152711.705000", "152712.492500", "152713.282500", "152714.070000", "152714.857500", "152715.647500", "152716.435000", "152717.222500", "152718.010000", "152718.800000", "152719.587500", "152720.375000", "152721.162500", "152721.952500", "152722.740000", "152723.527500", "152724.315000", "152725.105000", "152725.892500", "152726.680000", "152727.467500", "152728.257500", "152729.045000", "152729.832500", "152730.620000", "152731.410000", "152732.197500", "152732.985000", "152733.775000", "152734.562500", "152735.350000", "152736.137500", "152736.927500", "152737.715000", "152738.502500", "152739.290000", "152740.080000", "152740.867500", "152741.655000", "152742.442500", "152743.232500", "152744.020000", "152744.807500", "152745.595000", "152746.385000", "152747.172500", "152747.960000", "152748.747500", "152749.537500", "152750.325000", "152751.112500", "152751.902500", "152752.690000", "152753.477500", "152754.265000", "152755.055000", "152755.842500", "152756.630000", "152757.417500", "152758.207500", "152758.995000", "152759.782500", "152800.570000", "152801.360000", "152802.147500", "152802.935000", "152803.722500", "152804.512500", "152805.300000", "152806.087500", "152806.875000", "152807.665000", "152808.452500", "152809.240000", "152810.030000", "152810.817500", "152811.605000", "152812.392500", "152813.182500", "152813.970000", "152814.757500", "152815.545000", "152816.335000", "152817.122500", "152817.910000", "152818.697500", "152819.487500", "152820.275000", "152821.062500", "152821.850000", "152822.640000", "152823.427500", "152824.215000", "152825.005000", "152825.792500", "152826.580000", "152827.367500", "152828.157500", "152828.945000", "152829.732500", "152830.520000", "152831.310000", "152832.097500", "152832.885000", "152833.672500", "152834.462500", "152835.250000", "152836.037500", "152836.825000", "152837.615000", "152838.402500", "152839.190000", "152839.977500", "152840.767500", "152841.555000", "152842.342500", "152843.132500", "152843.920000", "152844.707500", "152845.495000", "152846.285000", "152847.072500", "152847.860000", "152848.647500", "152849.437500", "152850.225000", "152851.012500", "152851.800000", "152852.590000", "152853.377500", "152854.165000", "152854.952500", "152855.742500", "152856.530000", "152857.317500", "152858.105000", "152858.895000", "152859.682500", "152900.470000", "152901.260000", "152902.047500", "152902.835000", "152903.622500", "152904.412500", "152905.200000", "152905.987500", "152906.775000", "152907.565000", "152908.352500", "152909.140000", "152909.927500", "152910.717500", "152911.505000", "152912.292500", "152913.080000", "152913.870000", "152914.657500", "152915.445000", "152916.232500", "152917.022500", "152917.810000", "152918.597500", "152919.387500", "152920.175000", "152920.962500", "152921.750000", "152922.540000", "152923.327500", "152924.115000", "152924.902500", "152925.692500", "152926.480000", "152927.267500", "152928.055000", "152928.845000", "152929.632500", "152930.420000", "152931.207500", "152931.997500", "152932.785000", "152933.572500", "152934.360000", "152935.150000", "152935.937500", "152936.725000", "152937.515000", "152938.302500", "152939.090000", "152939.877500", "152940.667500", "152941.455000", "152942.242500", "152943.030000", "152943.820000", "152944.607500", "152945.395000", "152946.182500", "152946.972500", "152947.760000", "152948.547500", "152949.335000", "152950.125000", "152950.912500", "152951.700000", "152952.487500", "152953.277500", "152954.065000", "152954.852500", "152955.642500", "152956.430000", "152957.217500", "152958.005000", "152958.795000", "152959.582500", "153000.370000", "153001.157500", "153001.947500", "153002.735000", "153003.522500", "153004.310000", "153005.100000", "153005.887500", "153006.675000", "153007.462500", "153008.252500", "153009.040000", "153009.827500", "153010.615000", "153011.405000", "153012.192500", "153012.980000", "153013.770000", "153014.557500", "153015.345000", "153016.132500", "153016.922500", "153017.710000", "153018.497500", "153019.285000", "153020.075000", "153020.862500", "153021.650000", "153022.437500", "153023.227500", "153024.015000", "153024.802500", "153025.590000", "153026.380000", "153027.167500", "153027.955000", "153028.742500", "153029.532500", "153030.320000", "153031.107500", "153031.897500", "153032.685000", "153033.472500", "153034.260000", "153035.050000", "153035.837500", "153036.625000", "153037.412500", "153038.202500", "153038.990000", "153039.777500", "153040.565000", "153041.355000", "153042.142500", "153042.930000", "153043.717500", "153044.507500", "153045.295000", "153046.082500", "153046.870000", "153047.660000", "153048.447500", "153049.235000", "153050.025000", "153050.812500", "153051.600000", "153052.387500", "153053.177500", "153053.965000", "153054.752500", "153055.540000", "153056.330000", "153057.117500", "153057.905000", "153058.692500", "153059.482500", "153100.270000", "153101.057500", "153101.845000", "153102.635000", "153103.422500", "153104.210000", "153104.997500", "153105.787500", "153106.575000", "153107.362500", "153108.152500", "153108.940000", "153109.727500", "153110.515000", "153111.305000", "153112.092500", "153112.880000", "153113.667500", "153114.457500", "153115.245000", "153116.032500", "153116.820000", "153117.610000", "153118.397500", "153119.185000", "153119.972500", "153120.762500", "153121.550000", "153122.337500", "153123.125000", "153123.915000", "153124.702500", "153125.490000", "153126.280000", "153127.067500", "153127.855000", "153128.642500", "153129.432500", "153130.220000", "153131.007500", "153131.795000", "153132.585000", "153133.372500", "153134.160000", "153134.947500", "153135.737500", "153136.525000", "153137.312500", "153138.100000", "153138.890000", "153139.677500", "153140.465000", "153141.255000", "153142.042500", "153142.830000", "153143.617500", "153144.407500", "153145.195000", "153145.982500", "153146.770000", "153147.560000", "153148.347500", "153149.135000", "153149.922500", "153150.712500", "153151.500000", "153152.287500", "153153.075000", "153153.865000", "153154.652500", "153155.440000", "153156.227500", "153157.017500", "153157.805000", "153158.592500", "153159.382500", "153200.170000", "153200.957500", "153201.745000", "153202.535000", "153203.322500", "153204.110000", "153204.897500", "153205.687500", "153206.475000", "153207.262500", "153208.050000", "153208.840000", "153209.627500", "153210.415000", "153211.202500", "153211.992500", "153212.780000", "153213.567500", "153214.355000", "153215.145000", "153215.932500", "153216.720000", "153217.510000", "153218.297500", "153219.085000", "153219.872500", "153220.662500", "153221.450000", "153222.237500", "153223.025000", "153223.815000", "153224.602500", "153225.390000", "153226.177500", "153226.967500", "153227.755000", "153228.542500", "153229.330000", "153230.120000", "153230.907500", "153231.695000", "153232.482500", "153233.272500", "153234.060000", "153234.847500", "153235.637500", "153236.425000", "153237.212500", "153238.000000", "153238.790000", "153239.577500", "153240.365000", "153241.152500", "153241.942500", "153242.730000", "153243.517500", "153244.305000", "153245.095000", "153245.882500", "153246.670000", "153247.457500", "153248.247500", "153249.035000", "153249.822500", "153250.610000", "153251.400000", "153252.187500", "153252.975000", "153253.765000", "153254.552500", "153255.340000", "153256.127500", "153256.917500", "153257.705000", "153258.492500", "153259.280000", "153300.070000", "153300.857500", "153301.645000", "153302.432500", "153303.222500", "153304.010000", "153304.797500", "153305.585000", "153306.375000", "153307.162500", "153307.950000", "153308.737500", "153309.527500", "153310.315000", "153311.102500", "153311.892500", "153312.680000", "153313.467500", "153314.255000", "153315.045000", "153315.832500", "153316.620000", "153317.407500", "153318.197500", "153318.985000", "153319.772500", "153320.560000", "153321.350000", "153322.137500", "153322.925000", "153323.712500", "153324.502500", "153325.290000", "153326.077500", "153326.865000", "153327.655000", "153328.442500", "153329.230000", "153330.020000", "153330.807500", "153331.595000", "153332.382500", "153333.172500", "153333.960000", "153334.747500", "153335.535000", "153336.325000", "153337.112500", "153337.900000", "153338.687500", "153339.477500", "153340.265000", "153341.052500", "153341.840000", "153342.630000", "153343.417500", "153344.205000", "153344.992500", "153345.782500", "153346.570000", "153347.357500", "153348.147500", "153348.935000", "153349.722500", "153350.510000", "153351.300000", "153352.087500", "153352.875000", "153353.662500", "153354.452500", "153355.240000", "153356.027500", "153356.815000", "153357.605000", "153358.392500", "153359.180000", "153359.967500", "153400.757500", "153401.545000", "153402.332500", "153403.120000", "153403.910000", "153404.697500", "153405.485000", "153406.275000", "153407.062500", "153407.850000", "153408.637500", "153409.427500", "153410.215000", "153411.002500", "153411.790000", "153412.580000", "153413.367500", "153414.155000", "153414.942500", "153415.732500", "153416.520000", "153417.307500", "153418.095000", "153418.885000", "153419.672500", "153420.460000", "153421.247500", "153422.037500", "153422.825000", "153423.612500", "153424.402500", "153425.190000", "153425.977500", "153426.765000", "153427.555000", "153428.342500", "153429.130000", "153429.917500", "153430.707500", "153431.495000", "153432.282500", "153433.070000", "153433.860000", "153434.647500", "153435.435000", "153436.222500", "153437.012500", "153437.800000", "153438.587500", "153439.375000", "153440.165000", "153440.952500", "153441.740000", "153442.530000", "153443.317500", "153444.105000", "153444.892500", "153445.682500", "153446.470000", "153447.257500", "153448.045000", "153448.835000", "153449.622500", "153450.410000", "153451.197500", "153451.987500", "153452.775000", "153453.562500", "153454.350000", "153455.140000", "153455.927500", "153456.715000", "153457.505000", "153458.292500", "153459.080000", "153459.867500", "153500.657500", "153501.445000", "153502.232500", "153503.020000", "153503.810000", "153504.597500", "153505.385000", "153506.172500", "153506.962500", "153507.750000", "153508.537500", "153509.325000", "153510.115000", "153510.902500", "153511.690000", "153512.477500", "153513.267500", "153514.055000", "153514.842500", "153515.632500", "153516.420000", "153517.207500", "153517.995000", "153518.785000", "153519.572500", "153520.360000", "153521.147500", "153521.937500", "153522.725000", "153523.512500", "153524.300000", "153525.090000", "153525.877500", "153526.665000", "153527.452500", "153528.242500", "153529.030000", "153529.817500", "153530.605000", "153531.395000", "153532.182500", "153532.970000", "153533.760000", "153534.547500", "153535.335000", "153536.122500", "153536.912500", "153537.700000", "153538.487500", "153539.275000", "153540.065000", "153540.852500", "153541.640000", "153542.427500", "153543.217500", "153544.005000", "153544.792500", "153545.580000", "153546.370000", "153547.157500", "153547.945000", "153548.732500", "153549.522500", "153550.310000", "153551.097500", "153551.887500", "153552.675000", "153553.462500", "153554.250000", "153555.040000", "153555.827500", "153556.615000", "153557.402500", "153558.192500", "153558.980000", "153559.767500", "153600.555000", "153601.345000", "153602.132500", "153602.920000", "153603.707500", "153604.497500", "153605.285000", "153606.072500", "153606.860000", "153607.650000", "153608.437500", "153609.225000", "153610.015000", "153610.802500", "153611.590000", "153612.377500", "153613.167500", "153613.955000", "153614.742500", "153615.530000", "153616.320000", "153617.107500", "153617.895000", "153618.682500", "153619.472500", "153620.260000", "153621.047500", "153621.835000", "153622.625000", "153623.412500", "153624.200000", "153624.987500", "153625.777500", "153626.565000", "153627.352500", "153628.142500", "153628.930000", "153629.717500", "153630.505000", "153631.295000", "153632.082500", "153632.870000", "153633.657500", "153634.447500", "153635.235000", "153636.022500", "153636.810000", "153637.600000", "153638.387500", "153639.175000", "153639.962500", "153640.752500", "153641.540000", "153642.327500", "153643.115000", "153643.905000", "153644.692500", "153645.480000", "153646.270000", "153647.057500", "153647.845000", "153648.632500", "153649.422500", "153650.210000", "153650.997500", "153651.785000", "153652.575000", "153653.362500", "153654.150000", "153654.937500", "153655.727500", "153656.515000", "153657.302500", "153658.090000", "153658.880000", "153659.667500", "153700.455000", "153701.242500", "153702.032500", "153702.820000", "153703.607500", "153704.397500", "153705.185000", "153705.972500", "153706.760000", "153707.550000", "153708.337500", "153709.125000", "153709.912500", "153710.702500", "153711.490000", "153712.277500", "153713.065000", "153713.855000", "153714.642500", "153715.430000", "153716.217500", "153717.007500", "153717.795000", "153718.582500", "153719.370000", "153720.160000", "153720.947500", "153721.735000", "153722.525000", "153723.312500", "153724.100000", "153724.887500", "153725.677500", "153726.465000", "153727.252500", "153728.040000", "153728.830000", "153729.617500", "153730.405000", "153731.192500", "153731.982500", "153732.770000", "153733.557500", "153734.345000", "153735.135000", "153735.922500", "153736.710000", "153737.497500", "153738.287500", "153739.075000", "153739.862500", "153740.652500", "153741.440000", "153742.227500", "153743.015000", "153743.805000", "153744.592500", "153745.380000", "153746.167500", "153746.957500", "153747.745000", "153748.532500", "153749.320000"],
