{
  "AcquisitionMatrixPE": 104,
  "AcquisitionNumber": 1,
  "AcquisitionTime": "16:08:51.707500",
  "BandwidthPerPixelPhaseEncode": 13.935,
  "BaseResolution": 104,
  "CoilString": "C:HEA;HEP",
  "ConversionSoftware": "dcm2niix",
  "ConversionSoftwareVersion": "v1.0.20210317",
  "DerivedVendorReportedEchoSpacing": 0.000690017,
  "DeviceSerialNumber": "35450",
  "DwellTime": 2.5e-06,
  "EchoTime": 0.0348,
  "EffectiveEchoSpacing": 0.000690017,
  "FlipAngle": 55,
  "ImageComments": "Unaliased MB8/PE3",
  "ImageOrientationPatientDICOM": [1, 0, 0, 0, 0.997441, -0.0714974],
  "ImageType": [
    "ORIGINAL",
    "PRIMARY",
    "M",
    "MB",
    "ND",
    "MOSAIC"
],
  "ImagingFrequency": 123.234,
  "InPlanePhaseEncodingDirectionDICOM": "COL",
  "InstitutionAddress": "Univeristy Ave. 197,Newark,North East,US,07102-1814",
  "InstitutionName": "RUBIC",
  "InstitutionalDepartmentName": "Department",
  "MRAcquisitionType": "2D",
  "MagneticFieldStrength": 3,
  "Manufacturer": "Siemens",
  "ManufacturersModelName": "TrioTim",
  "Modality": "MR",
  "MultibandAccelerationFactor": 8,
  "PartialFourier": 0.875,
  "PatientPosition": "HFS",
  "PercentPhaseFOV": 100,
  "PercentSampling": 100,
  "PhaseEncodingDirection": "j-",
  "PhaseEncodingSteps": 91,
  "PhaseResolution": 1,
  "PixelBandwidth": 1923,
  "ProcedureStepDescription": "Cole^Michael",
  "ProtocolName": "cmrr_mbep2d_bold_2mm_MB8_Task_8x",
  "PulseSequenceDetails": "%CustomerSeq%\\cmrr_mbep2d_bold",
  "ReceiveCoilName": "32Ch_Head",
  "ReconMatrixPE": 104,
  "RepetitionTime": 0.785,
  "SAR": 0.125115,
  "ScanOptions": "PFP\\FS",
  "ScanningSequence": "EP",
  "SequenceName": "epfid2d1_104",
  "SequenceVariant": "SK\\SS",
  "SeriesDescription": "cmrr_mbep2d_bold_2mm_MB8_Task_8x",
  "SeriesNumber": 17,
  "ShimSetting": [2108, -443, -7205, 544, -101, 33, 116, 58],
  "SliceThickness": 2,
  "SliceTiming": [0, 0.4375, 0.0875, 0.525, 0.175, 0.6125, 0.2625, 0.7, 0.35, 0, 0.4375, 0.0875, 0.525, 0.175, 0.6125, 0.2625, 0.7, 0.35, 0, 0.4375, 0.0875, 0.525, 0.175, 0.6125, 0.2625, 0.7, 0.35, 0, 0.4375, 0.0875, 0.525, 0.175, 0.6125, 0.2625, 0.7, 0.35, 0, 0.4375, 0.0875, 0.525, 0.175, 0.6125, 0.2625, 0.7, 0.35, 0, 0.4375, 0.0875, 0.525, 0.175, 0.6125, 0.2625, 0.7, 0.35, 0, 0.4375, 0.0875, 0.525, 0.175, 0.6125, 0.2625, 0.7, 0.35, 0, 0.4375, 0.0875, 0.525, 0.175, 0.6125, 0.2625, 0.7, 0.35],
  "SoftwareVersions": "syngo MR B19",
  "SpacingBetweenSlices": 2,
  "StationName": "MRC35450",
  "TaskName": "cpro",
  "TotalReadoutTime": 0.0710717,
  "TxRefAmp": 330.454,
  "dcmmeta_affine": [
    [-2.0, 0.0, 0.0, 104.67796325683594],
    [0.0, 1.994881510734558, -0.14299488067626953, -79.09363555908203],
    [0.0, 0.14299488067626953, 1.994881510734558, -105.79141998291016],
    [0.0, 0.0, 0.0, 1.0]
],
  "dcmmeta_reorient_transform": [
    [0.0, -1.0, 0.0, 103.0],
    [1.0, 0.0, 0.0, 0.0],
    [0.0, 0.0, 1.0, 0.0],
    [0.0, 0.0, 0.0, 1.0]
],
  "dcmmeta_shape": [104, 104, 72, 581],
  "dcmmeta_slice_dim": 2,
  "dcmmeta_version": 0.6,
  "global": {
    "const": {
      "AcquisitionMatrix": [104, 0, 0, 104],
      "AngioFlag": "N",
      "BitsAllocated": 16,
      "BitsStored": 12,
      "Columns": 936,
      "EchoNumbers": 1,
      "EchoTime": 34.8,
      "EchoTrainLength": 1,
      "FlipAngle": 55.0,
      "HighBit": 11,
      "ImageOrientationPatient": [1.0, 0.0, 0.0, 0.0, 0.99744078313723, -0.0714974414548],
      "ImagePositionPatient": [-936.67796611786, -956.24989963083, -31.577074913028],
      "ImageType": [
        "ORIGINAL",
        "PRIMARY",
        "M",
        "MB",
        "ND",
        "MOSAIC"
],
      "ImagedNucleus": "1H",
      "ImagingFrequency": 123.234412,
      "InPlanePhaseEncodingDirection": "COL",
      "MRAcquisitionType": "2D",
      "MagneticFieldStrength": 3.0,
      "Manufacturer": "SIEMENS",
      "ManufacturerModelName": "TrioTim",
      "Modality": "MR",
      "NumberOfAverages": 1.0,
      "NumberOfPhaseEncodingSteps": 91,
      "PercentPhaseFieldOfView": 100.0,
      "PercentSampling": 100.0,
      "PerformedProcedureStepStartTime": "144407.328000",
      "PhotometricInterpretation": "MONOCHROME2",
      "PixelBandwidth": 1923.0,
      "PixelRepresentation": 0,
      "PixelSpacing": [2.0, 2.0],
      "ProtocolName": "cmrr_mbep2d_bold_2mm_MB8_Task_8x",
      "RepetitionTime": 785.0,
      "Rows": 936,
      "SAR": 0.12511488449852,
      "SamplesPerPixel": 1,
      "ScanOptions": [
        "PFP",
        "FS"
],
      "ScanningSequence": "EP",
      "SequenceName": "epfid2d1_104",
      "SequenceVariant": [
        "SK",
        "SS"
],
      "SeriesDescription": "cmrr_mbep2d_bold_2mm_MB8_Task_8x",
      "SeriesNumber": 17,
      "SeriesTime": "170553.484000",
      "SliceLocation": -99.865683545473,
      "SliceThickness": 2.0,
      "SmallestImagePixelValue": 0,
      "SoftwareVersions": "syngo MR B19",
      "SpacingBetweenSlices": 1.9999999705235,
      "SpecificCharacterSet": "ISO_IR 100",
      "StudyID": "1",
      "StudyTime": "144407.265000",
      "TransmitCoilName": "Body",
      "VariableFlipAngleFlag": "N",
      "WindowCenterWidthExplanation": "Algo1",
      "dBdt": 0.0},
    "slices": {}
  },
  "time": {
    "samples": {
      "AcquisitionNumber": [1, 2, 3, 4, 5, 6, 7, 8, 9, 10, 11, 12, 13, 14, 15, 16, 17, 18, 19, 20, 21, 22, 23, 24, 25, 26, 27, 28, 29, 30, 31, 32, 33, 34, 35, 36, 37, 38, 39, 40, 41, 42, 43, 44, 45, 46, 47, 48, 49, 50, 51, 52, 53, 54, 55, 56, 57, 58, 59, 60, 61, 62, 63, 64, 65, 66, 67, 68, 69, 70, 71, 72, 73, 74, 75, 76, 77, 78, 79, 80, 81, 82, 83, 84, 85, 86, 87, 88, 89, 90, 91, 92, 93, 94, 95, 96, 97, 98, 99, 100, 101, 102, 103, 104, 105, 106, 107, 108, 109, 110, 111, 112, 113, 114, 115, 116, 117, 118, 119, 120, 121, 122, 123, 124, 125, 126, 127, 128, 129, 130, 131, 132, 133, 134, 135, 136, 137, 138, 139, 140, 141, 142, 143, 144, 145, 146, 147, 148, 149, 150, 151, 152, 153, 154, 155, 156, 157, 158, 159, 160, 161, 162, 163, 164, 165, 166, 167, 168, 169, 170, 171, 172, 173, 174, 175, 176, 177, 178, 179, 180, 181, 182, 183, 184, 185, 186, 187, 188, 189, 190, 191, 192, 193, 194, 195, 196, 197, 198, 199, 200, 201, 202, 203, 204, 205, 206, 207, 208, 209, 210, 211, 212, 213, 214, 215, 216, 217, 218, 219, 220, 221, 222, 223, 224, 225, 226, 227, 228, 229, 230, 231, 232, 233, 234, 235, 236, 237, 238, 239, 240, 241, 242, 243, 244, 245, 246, 247, 248, 249, 250, 251, 252, 253, 254, 255, 256, 257, 258, 259, 260, 261, 262, 263, 264, 265, 266, 267, 268, 269, 270, 271, 272, 273, 274, 275, 276, 277, 278, 279, 280, 281, 282, 283, 284, 285, 286, 287, 288, 289, 290, 291, 292, 293, 294, 295, 296, 297, 298, 299, 300, 301, 302, 303, 304, 305, 306, 307, 308, 309, 310, 311, 312, 313, 314, 315, 316, 317, 318, 319, 320, 321, 322, 323, 324, 325, 326, 327, 328, 329, 330, 331, 332, 333, 334, 335, 336, 337, 338, 339, 340, 341, 342, 343, 344, 345, 346, 347, 348, 349, 350, 351, 352, 353, 354, 355, 356, 357, 358, 359, 360, 361, 362, 363, 364, 365, 366, 367, 368, 369, 370, 371, 372, 373, 374, 375, 376, 377, 378, 379, 380, 381, 382, 383, 384, 385, 386, 387, 388, 389, 390, 391, 392, 393, 394, 395, 396, 397, 398, 399, 400, 401, 402, 403, 404, 405, 406, 407, 408, 409, 410, 411, 412, 413, 414, 415, 416, 417, 418, 419, 420, 421, 422, 423, 424, 425, 426, 427, 428, 429, 430, 431, 432, 433, 434, 435, 436, 437, 438, 439, 440, 441, 442, 443, 444, 445, 446, 447, 448, 449, 450, 451, 452, 453, 454, 455, 456, 457, 458, 459, 460, 461, 462, 463, 464, 465, 466, 467, 468, 469, 470, 471, 472, 473, 474, 475, 476, 477, 478, 479, 480, 481, 482, 483, 484, 485, 486, 487, 488, 489, 490, 491, 492, 493, 494, 495, 496, 497, 498, 499, 500, 501, 502, 503, 504, 505, 506, 507, 508, 509, 510, 511, 512, 513, 514, 515, 516, 517, 518, 519, 520, 521, 522, 523, 524, 525, 526, 527, 528, 529, 530, 531, 532, 533, 534, 535, 536, 537, 538, 539, 540, 541, 542, 543, 544, 545, 546, 547, 548, 549, 550, 551, 552, 553, 554, 555, 556, 557, 558, 559, 560, 561, 562, 563, 564, 565, 566, 567, 568, 569, 570, 571, 572, 573, 574, 575, 576, 577, 578, 579, 580, 581],
      "AcquisitionTime": ["160851.707500", "160852.497500", "160853.285000", "160854.072500", "160854.860000", "160855.650000", "160856.437500", "160857.225000", "160858.012500", "160858.802500", "160859.590000", "160900.377500", "160901.165000", "160901.955000", "160902.742500", "160903.530000", "160904.317500", "160905.107500", "160905.895000", "160906.682500", "160907.472500", "160908.260000", "160909.047500", "160909.835000", "160910.625000", "160911.412500", "160912.200000", "160912.987500", "160913.777500", "160914.565000", "160915.352500", "160916.140000", "160916.930000", "160917.717500", "160918.505000", "160919.292500", "160920.082500", "160920.870000", "160921.657500", "160922.445000", "160923.235000", "160924.022500", "160924.810000", "160925.600000", "160926.387500", "160927.175000", "160927.962500", "160928.752500", "160929.540000", "160930.327500", "160931.115000", "160931.905000", "160932.692500", "160933.480000", "160934.267500", "160935.057500", "160935.845000", "160936.632500", "160937.420000", "160938.210000", "160938.997500", "160939.785000", "160940.572500", "160941.362500", "160942.150000", "160942.937500", "160943.727500", "160944.515000", "160945.302500", "160946.090000", "160946.880000", "160947.667500", "160948.455000", "160949.242500", "160950.032500", "160950.820000", "160951.607500", "160952.395000", "160953.185000", "160953.972500", "160954.760000", "160955.547500", "160956.337500", "160957.125000", "160957.912500", "160958.700000", "160959.490000", "161000.277500", "161001.065000", "161001.855000", "161002.642500", "161003.430000", "161004.217500", "161005.007500", "161005.795000", "161006.582500", "161007.370000", "161008.160000", "161008.947500", "161009.735000", "161010.522500", "161011.312500", "161012.100000", "161012.887500", "161013.675000", "161014.465000", "161015.252500", "161016.040000", "161016.827500", "161017.617500", "161018.405000", "161019.192500", "161019.982500", "161020.770000", "161021.557500", "161022.345000", "161023.135000", "161023.922500", "161024.710000", "161025.497500", "161026.287500", "161027.075000", "161027.862500", "161028.650000", "161029.440000", "161030.227500", "161031.015000", "161031.802500", "161032.592500", "161033.380000", "161034.167500", "161034.955000", "161035.745000", "161036.532500", "161037.320000", "161038.110000", "161038.897500", "161039.685000", "161040.472500", "161041.262500", "161042.050000", "161042.837500", "161043.625000", "161044.415000", "161045.202500", "161045.990000", "161046.777500", "161047.567500", "161048.355000", "161049.142500", "161049.930000", "161050.720000", "161051.507500", "161052.295000", "161053.082500", "161053.872500", "161054.660000", "161055.447500", "161056.237500", "161057.025000", "161057.812500", "161058.600000", "161059.390000", "161100.177500", "161100.965000", "161101.752500", "161102.542500", "161103.330000", "161104.117500", "161104.905000", "161105.695000", "161106.482500", "161107.270000", "161108.057500", "161108.847500", "161109.635000", "161110.422500", "161111.210000", "161112.000000", "161112.787500", "161113.575000", "161114.365000", "161115.152500", "161115.940000", "161116.727500", "161117.517500", "161118.305000", "161119.092500", "161119.880000", "161120.670000", "161121.457500", "161122.245000", "161123.032500", "161123.822500", "161124.610000", "161125.397500", "161126.185000", "161126.975000", "161127.762500", "161128.550000", "161129.337500", "161130.127500", "161130.915000", "161131.702500", "161132.492500", "161133.280000", "161134.067500", "161134.855000", "161135.645000", "161136.432500", "161137.220000", "161138.007500", "161138.797500", "161139.585000", "161140.372500", "161141.160000", "161141.950000", "161142.737500", "161143.525000", "161144.312500", "161145.102500", "161145.890000", "161146.677500", "161147.465000", "161148.255000", "161149.042500", "161149.830000", "161150.620000", "161151.407500", "161152.195000", "161152.982500", "161153.772500", "161154.560000", "161155.347500", "161156.135000", "161156.925000", "161157.712500", "161158.500000", "161159.287500", "161200.077500", "161200.865000", "161201.652500", "161202.440000", "161203.230000", "161204.017500", "161204.805000", "161205.595000", "161206.382500", "161207.170000", "161207.957500", "161208.747500", "161209.535000", "161210.322500", "161211.110000", "161211.900000", "161212.687500", "161213.475000", "161214.262500", "161215.052500", "161215.840000", "161216.627500", "161217.415000", "161218.205000", "161218.992500", "161219.780000", "161220.567500", "161221.357500", "161222.145000", "161222.932500", "161223.722500", "161224.510000", "161225.297500", "161226.085000", "161226.875000", "161227.662500", "161228.450000", "161229.237500", "161230.027500", "161230.815000", "161231.602500", "161232.390000", "161233.180000", "161233.967500", "161234.755000", "161235.542500", "161236.332500", "161237.120000", "161237.907500", "161238.695000", "161239.485000", "161240.272500", "161241.060000", "161241.850000", "161242.637500", "161243.425000", "161244.212500", "161245.002500", "161245.790000", "161246.577500", "161247.365000", "161248.155000", "161248.942500", "161249.730000", "161250.517500", "161251.307500", "161252.095000", "161252.882500", "161253.670000", "161254.460000", "161255.247500", "161256.035000", "161256.822500", "161257.612500", "161258.400000", "161259.187500", "161259.977500", "161300.765000", "161301.552500", "161302.340000", "161303.130000", "161303.917500", "161304.705000", "161305.492500", "161306.282500", "161307.070000", "161307.857500", "161308.645000", "161309.435000", "161310.222500", "161311.010000", "161311.797500", "161312.587500", "161313.375000", "161314.162500", "161314.950000", "161315.740000", "161316.527500", "161317.315000", "161318.105000", "161318.892500", "161319.680000", "161320.467500", "161321.257500", "161322.045000", "161322.832500", "161323.620000", "161324.410000", "161325.197500", "161325.985000", "161326.772500", "161327.562500", "161328.350000", "161329.137500", "161329.925000", "161330.715000", "161331.502500", "161332.290000", "161333.077500", "161333.867500", "161334.655000", "161335.442500", "161336.232500", "161337.020000", "161337.807500", "161338.595000", "161339.385000", "161340.172500", "161340.960000", "161341.747500", "161342.537500", "161343.325000", "161344.112500", "161344.900000", "161345.690000", "161346.477500", "161347.265000", "161348.052500", "161348.842500", "161349.630000", "161350.417500", "161351.205000", "161351.995000", "161352.782500", "161353.570000", "161354.360000", "161355.147500", "161355.935000", "161356.722500", "161357.512500", "161358.300000", "161359.087500", "161359.875000", "161400.665000", "161401.452500", "161402.240000", "161403.027500", "161403.817500", "161404.605000", "161405.392500", "161406.180000", "161406.970000", "161407.757500", "161408.545000", "161409.332500", "161410.122500", "161410.910000", "161411.697500", "161412.487500", "161413.275000", "161414.062500", "161414.850000", "161415.640000", "161416.427500", "161417.215000", "161418.002500", "161418.792500", "161419.580000", "161420.367500", "161421.155000", "161421.945000", "161422.732500", "161423.520000", "161424.307500", "161425.097500", "161425.885000", "161426.672500", "161427.460000", "161428.250000", "161429.037500", "161429.825000", "161430.615000", "161431.402500", "161432.190000", "161432.977500", "161433.767500", "161434.555000", "161435.342500", "161436.130000", "161436.920000", "161437.707500", "161438.495000", "161439.282500", "161440.072500", "161440.860000", "161441.647500", "161442.435000", "161443.225000", "161444.012500", "161444.800000", "161445.587500", "161446.377500", "161447.165000", "161447.952500", "161448.742500", "161449.530000", "161450.317500", "161451.105000", "161451.895000", "161452.682500", "161453.470000", "161454.257500", "161455.047500", "161455.835000", "161456.622500", "161457.410000", "161458.200000", "161458.987500", "161459.775000", "161500.562500", "161501.352500", "161502.140000", "161502.927500", "161503.715000", "161504.505000", "161505.292500", "161506.080000", "161506.870000", "161507.657500", "161508.445000", "161509.232500", "161510.022500", "161510.810000", "161511.597500", "161512.385000", "161513.175000", "161513.962500", "161514.750000", "161515.537500", "161516.327500", "161517.115000", "161517.902500", "161518.690000", "161519.480000", "161520.267500", "161521.055000", "161521.845000", "161522.632500", "161523.420000", "161524.207500", "161524.997500", "161525.785000", "161526.572500", "161527.360000", "161528.150000", "161528.937500", "161529.725000", "161530.512500", "161531.302500", "161532.090000", "161532.877500", "161533.665000", "161534.455000", "161535.242500", "161536.030000", "161536.817500", "161537.607500", "161538.395000", "161539.182500", "161539.972500", "161540.760000", "161541.547500", "161542.335000", "161543.125000", "161543.912500", "161544.700000", "161545.487500", "161546.277500", "161547.065000", "161547.852500", "161548.640000", "161549.430000", "161550.217500", "161551.005000", "161551.792500", "161552.582500", "161553.370000", "161554.157500", "161554.945000", "161555.735000", "161556.522500", "161557.310000", "161558.100000", "161558.887500", "161559.675000", "161600.462500", "161601.252500", "161602.040000", "161602.827500", "161603.615000", "161604.405000", "161605.192500", "161605.980000", "161606.767500", "161607.557500", "161608.345000", "161609.132500", "161609.920000", "161610.710000", "161611.497500", "161612.285000", "161613.072500", "161613.862500", "161614.650000", "161615.437500", "161616.227500", "161617.015000", "161617.802500", "161618.590000", "161619.380000", "161620.167500", "161620.955000", "161621.742500", "161622.532500", "161623.320000", "161624.107500", "161624.895000", "161625.685000", "161626.472500", "161627.260000", "161628.047500", "161628.837500"],
      "ContentTime": ["170553.500000", "170553.500000", "170553.500000", "170553.500000", "170553.500000", "170553.500000", "170553.500000", "170553.515000", "170653.468000", "170653.468000", "170653.468000", "170653.468000", "170653.484000", "170653.484000", "170653.484000", "170653.484000", "170653.484000", "170653.484000", "170653.484000", "170653.500000", "170653.500000", "170653.500000", "170653.500000", "170653.500000", "170653.500000", "170653.500000", "170653.515000", "170653.515000", "170653.515000", "170653.515000", "170653.515000", "170653.515000", "170653.515000", "170653.531000", "170653.531000", "170653.531000", "170753.468000", "170753.468000", "170753.468000", "170753.468000", "170753.484000", "170753.484000", "170753.484000", "170753.484000", "170753.484000", "170753.484000", "170753.484000", "170753.500000", "170753.500000", "170753.500000", "170753.500000", "170753.500000", "170753.500000", "170753.500000", "170753.515000", "170753.515000", "170753.515000", "170753.515000", "170753.515000", "170753.515000", "170753.515000", "170753.531000", "170753.531000", "170753.531000", "170853.468000", "170853.468000", "170853.468000", "170853.468000", "170853.484000", "170853.484000", "170853.484000", "170853.484000", "170853.484000", "170853.484000", "170853.484000", "170853.500000", "170853.500000", "170853.500000", "170853.500000", "170853.500000", "170853.500000", "170853.500000", "170853.515000", "170853.515000", "170853.515000", "170853.515000", "170853.531000", "170853.531000", "170853.531000", "170853.531000", "170853.531000", "170853.531000", "170953.468000", "170953.468000", "170953.468000", "170953.484000", "170953.484000", "170953.484000", "170953.484000", "170953.484000", "170953.484000", "170953.484000", "170953.500000", "170953.500000", "170953.500000", "170953.500000", "170953.500000", "170953.500000", "170953.500000", "170953.515000", "170953.515000", "170953.515000", "170953.515000", "170953.515000", "170953.515000", "170953.515000", "170953.531000", "170953.531000", "170953.531000", "170953.531000", "171053.468000", "171053.468000", "171053.468000", "171053.468000", "171053.484000", "171053.484000", "171053.484000", "171053.484000", "171053.484000", "171053.484000", "171053.484000", "171053.500000", "171053.500000", "171053.500000", "171053.500000", "171053.500000", "171053.500000", "171053.500000", "171053.515000", "171053.515000", "171053.515000", "171053.515000", "171053.515000", "171053.515000", "171053.531000", "171053.531000", "171053.531000", "171053.531000", "171053.531000", "171153.468000", "171153.468000", "171153.468000", "171153.468000", "171153.484000", "171153.484000", "171153.484000", "171153.484000", "171153.484000", "171153.484000", "171153.500000", "171153.500000", "171153.500000", "171153.500000", "171153.500000", "171153.500000", "171153.500000", "171153.515000", "171153.515000", "171153.515000", "171153.515000", "171153.515000", "171153.515000", "171153.515000", "171153.531000", "171153.531000", "171153.531000", "171153.531000", "171253.468000", "171253.468000", "171253.468000", "171253.468000", "171253.484000", "171253.484000", "171253.484000", "171253.484000", "171253.484000", "171253.484000", "171253.484000", "171253.500000", "171253.500000", "171253.500000", "171253.500000", "171253.500000", "171253.500000", "171253.500000", "171253.515000", "171253.515000", "171253.515000", "171253.515000", "171253.515000", "171253.515000", "171253.515000", "171253.531000", "171253.531000", "171253.531000", "171353.468000", "171353.468000", "171353.468000", "171353.468000", "171353.484000", "171353.484000", "171353.484000", "171353.484000", "171353.484000", "171353.484000", "171353.484000", "171353.500000", "171353.500000", "171353.500000", "171353.500000", "171353.500000", "171353.500000", "171353.500000", "171353.515000", "171353.515000", "171353.515000", "171353.515000", "171353.515000", "171353.515000", "171353.515000", "171353.531000", "171353.531000", "171353.531000", "171453.468000", "171453.468000", "171453.468000", "171453.468000", "171453.484000", "171453.484000", "171453.484000", "171453.484000", "171453.484000", "171453.484000", "171453.484000", "171453.500000", "171453.500000", "171453.500000", "171453.500000", "171453.500000", "171453.500000", "171453.500000", "171453.515000", "171453.515000", "171453.515000", "171453.515000", "171453.515000", "171453.515000", "171453.515000", "171453.531000", "171453.531000", "171453.531000", "171533.468000", "171533.468000", "171533.468000", "171533.468000", "171533.484000", "171533.484000", "171533.484000", "171533.484000", "171533.484000", "171533.484000", "171533.484000", "171533.500000", "171533.500000", "171533.500000", "171533.500000", "171533.500000", "171533.500000", "171533.515000", "171533.515000", "171633.468000", "171633.468000", "171633.468000", "171633.468000", "171633.484000", "171633.484000", "171633.484000", "171633.484000", "171633.484000", "171633.484000", "171633.484000", "171633.500000", "171633.500000", "171633.500000", "171633.500000", "171633.515000", "171633.515000", "171633.515000", "171633.515000", "171633.515000", "171633.515000", "171633.531000", "171633.531000", "171633.531000", "171633.531000", "171633.531000", "171633.546000", "171633.546000", "171733.468000", "171733.468000", "171733.468000", "171733.468000", "171733.484000", "171733.484000", "171733.484000", "171733.484000", "171733.484000", "171733.484000", "171733.484000", "171733.500000", "171733.500000", "171733.500000", "171733.500000", "171733.500000", "171733.500000", "171733.515000", "171733.515000", "171733.515000", "171733.515000", "171733.515000", "171733.515000", "171733.515000", "171733.531000", "171733.531000", "171733.531000", "171733.531000", "171833.468000", "171833.468000", "171833.468000", "171833.468000", "171833.484000", "171833.484000", "171833.484000", "171833.484000", "171833.484000", "171833.484000", "171833.484000", "171833.500000", "171833.500000", "171833.500000", "171833.500000", "171833.500000", "171833.500000", "171833.500000", "171833.515000", "171833.515000", "171833.515000", "171833.515000", "171833.515000", "171833.515000", "171833.515000", "171833.531000", "171833.531000", "171833.531000", "171833.531000", "171933.468000", "171933.468000", "171933.468000", "171933.468000", "171933.484000", "171933.484000", "171933.484000", "171933.484000", "171933.484000", "171933.484000", "171933.484000", "171933.500000", "171933.500000", "171933.500000", "171933.500000", "171933.500000", "171933.500000", "171933.500000", "171933.515000", "171933.515000", "171933.515000", "171933.515000", "171933.515000", "171933.515000", "171933.515000", "171933.531000", "171933.531000", "171933.531000", "172033.468000", "172033.468000", "172033.468000", "172033.468000", "172033.484000", "172033.484000", "172033.484000", "172033.484000", "172033.484000", "172033.484000", "172033.484000", "172033.500000", "172033.500000", "172033.500000", "172033.500000", "172033.500000", "172033.500000", "172033.515000", "172033.515000", "172033.515000", "172033.515000", "172033.515000", "172033.515000", "172033.531000", "172033.531000", "172033.531000", "172033.531000", "172033.531000", "172133.468000", "172133.468000", "172133.468000", "172133.468000", "172133.484000", "172133.484000", "172133.484000", "172133.484000", "172133.484000", "172133.484000", "172133.500000", "172133.500000", "172133.500000", "172133.500000", "172133.500000", "172133.500000", "172133.500000", "172133.515000", "172133.515000", "172133.515000", "172133.515000", "172133.515000", "172133.515000", "172133.515000", "172133.531000", "172133.531000", "172133.531000", "172133.531000", "172233.468000", "172233.468000", "172233.468000", "172233.468000", "172233.484000", "172233.484000", "172233.484000", "172233.484000", "172233.484000", "172233.484000", "172233.484000", "172233.500000", "172233.500000", "172233.500000", "172233.500000", "172233.500000", "172233.500000", "172233.500000", "172233.515000", "172233.515000", "172233.515000", "172233.515000", "172233.515000", "172233.515000", "172233.515000", "172233.531000", "172233.531000", "172233.531000", "172333.468000", "172333.468000", "172333.468000", "172333.468000", "172333.484000", "172333.484000", "172333.484000", "172333.484000", "172333.484000", "172333.484000", "172333.484000", "172333.500000", "172333.500000", "172333.500000", "172333.500000", "172333.500000", "172333.500000", "172333.500000", "172333.515000", "172333.515000", "172333.515000", "172333.515000", "172333.515000", "172333.515000", "172333.515000", "172333.531000", "172333.531000", "172333.531000", "172433.468000", "172433.468000", "172433.468000", "172433.484000", "172433.484000", "172433.484000", "172433.484000", "172433.500000", "172433.500000", "172433.500000", "172433.500000", "172433.500000", "172433.500000", "172433.515000", "172433.515000", "172433.515000", "172433.515000", "172433.515000", "172433.515000", "172433.515000", "172433.515000", "172433.531000", "172433.531000", "172433.531000", "172433.531000", "172433.531000", "172433.531000", "172433.546000", "172433.546000", "172533.468000", "172533.468000", "172533.468000", "172533.468000", "172533.484000", "172533.484000", "172533.484000", "172533.484000", "172533.484000", "172533.484000", "172533.484000", "172533.500000", "172533.500000", "172533.500000", "172533.500000", "172533.500000", "172533.500000", "172533.500000", "172533.515000", "172533.515000", "172533.515000", "172533.515000", "172533.515000", "172533.515000", "172533.515000", "172533.531000", "172533.531000", "172533.531000", "172612.843000", "172612.843000", "172612.843000", "172612.843000", "172612.843000", "172612.843000", "172612.859000", "172612.859000", "172612.859000", "172612.859000", "172612.859000", "172612.859000", "172612.859000", "172612.875000", "172612.875000", "172612.875000", "172612.875000", "172612.890000", "172612.890000"],
      "DataSetTrailingPadding": [
        "\u0000\u0000\u0000\u0000\u0000\u0000\u0000\u0000\u0000\u0000\u0000\u0000\u0000\u0000\u0000\u0000\u0000\u0000\u0000\u0000\u0000\u0000\u0000\u0000\u0000\u0000\u0000\u0000\u0000\u0000\u0000\u0000\u0000\u0000\u0000\u0000\u0000\u0000\u0000\u0000\u0000\u0000\u0000\u0000\u0000\u0000\u0000\u0000\u0000\u0000\u0000\u0000\u0000\u0000\u0000\u0000\u0000\u0000\u0000\u0000\u0000\u0000\u0000\u0000\u0000\u0000\u0000\u0000\u0000\u0000\u0000\u0000\u0000\u0000\u0000\u0000\u0000\u0000\u0000\u0000\u0000\u0000\u0000\u0000\u0000\u0000\u0000\u0000\u0000\u0000\u0000\u0000\u0000\u0000\u0000\u0000\u0000\u0000\u0000\u0000\u0000\u0000\u0000\u0000\u0000\u0000\u0000\u0000\u0000\u0000\u0000\u0000",
        "\u0000\u0000\u0000\u0000\u0000\u0000\u0000\u0000\u0000\u0000\u0000\u0000\u0000\u0000\u0000\u0000\u0000\u0000\u0000\u0000\u0000\u0000\u0000\u0000\u0000\u0000\u0000\u0000\u0000\u0000\u0000\u0000\u0000\u0000\u0000\u0000\u0000\u0000\u0000\u0000\u0000\u0000\u0000\u0000\u0000\u0000\u0000\u0000\u0000\u0000\u0000\u0000\u0000\u0000\u0000\u0000\u0000\u0000\u0000\u0000\u0000\u0000\u0000\u0000\u0000\u0000\u0000\u0000\u0000\u0000\u0000\u0000\u0000\u0000\u0000\u0000\u0000\u0000\u0000\u0000\u0000\u0000\u0000\u0000\u0000\u0000\u0000\u0000\u0000\u0000\u0000\u0000\u0000\u0000\u0000\u0000\u0000\u0000\u0000\u0000\u0000\u0000\u0000\u0000\u0000\u0000\u0000\u0000\u0000\u0000\u0000\u0000\u0000\u0000",
        "\u0000\u0000\u0000\u0000\u0000\u0000\u0000\u0000\u0000\u0000\u0000\u0000\u0000\u0000\u0000\u0000\u0000\u0000\u0000\u0000\u0000\u0000\u0000\u0000\u0000\u0000\u0000\u0000\u0000\u0000\u0000\u0000\u0000\u0000\u0000\u0000\u0000\u0000\u0000\u0000\u0000\u0000\u0000\u0000\u0000\u0000\u0000\u0000\u0000\u0000\u0000\u0000\u0000\u0000\u0000\u0000\u0000\u0000\u0000\u0000\u0000\u0000\u0000\u0000\u0000\u0000\u0000\u0000\u0000\u0000\u0000\u0000\u0000\u0000\u0000\u0000\u0000\u0000\u0000\u0000\u0000\u0000\u0000\u0000\u0000\u0000\u0000\u0000\u0000\u0000\u0000\u0000\u0000\u0000\u0000\u0000\u0000\u0000\u0000\u0000\u0000\u0000\u0000\u0000\u0000\u0000\u0000\u0000\u0000\u0000\u0000\u0000",
