{
  "AcquisitionMatrixPE": 104,
  "AcquisitionNumber": 1,
  "AcquisitionTime": "16:49:48.725000",
  "BandwidthPerPixelPhaseEncode": 13.935,
  "BaseResolution": 104,
  "CoilString": "C:HEA;HEP",
  "ConversionSoftware": "dcm2niix",
  "ConversionSoftwareVersion": "v1.0.20210317",
  "DerivedVendorReportedEchoSpacing": 0.000690017,
  "DeviceSerialNumber": "35450",
  "DwellTime": 2.5e-06,
  "EchoTime": 0.0348,
  "EffectiveEchoSpacing": 0.000690017,
  "FlipAngle": 55,
  "ImageComments": "Unaliased MB8/PE3",
  "ImageOrientationPatientDICOM": [1, 0, 0, 0, 0.997441, -0.0714974],
  "ImageType": [
    "ORIGINAL",
    "PRIMARY",
    "M",
    "MB",
    "ND",
    "MOSAIC"
],
  "ImagingFrequency": 123.234,
  "InPlanePhaseEncodingDirectionDICOM": "COL",
  "InstitutionAddress": "Univeristy Ave. 197,Newark,North East,US,07102-1814",
  "InstitutionName": "RUBIC",
  "InstitutionalDepartmentName": "Department",
  "MRAcquisitionType": "2D",
  "MagneticFieldStrength": 3,
  "Manufacturer": "Siemens",
  "ManufacturersModelName": "TrioTim",
  "Modality": "MR",
  "MultibandAccelerationFactor": 8,
  "PartialFourier": 0.875,
  "PatientPosition": "HFS",
  "PercentPhaseFOV": 100,
  "PercentSampling": 100,
  "PhaseEncodingDirection": "j-",
  "PhaseEncodingSteps": 91,
  "PhaseResolution": 1,
  "PixelBandwidth": 1923,
  "ProcedureStepDescription": "Cole^Michael",
  "ProtocolName": "cmrr_mbep2d_bold_2mm_MB8_Task_8x",
  "PulseSequenceDetails": "%CustomerSeq%\\cmrr_mbep2d_bold",
  "ReceiveCoilName": "32Ch_Head",
  "ReconMatrixPE": 104,
  "RepetitionTime": 0.785,
  "SAR": 0.125115,
  "ScanOptions": "PFP\\FS",
  "ScanningSequence": "EP",
  "SequenceName": "epfid2d1_104",
  "SequenceVariant": "SK\\SS",
  "SeriesDescription": "cmrr_mbep2d_bold_2mm_MB8_Task_8x",
  "SeriesNumber": 27,
  "ShimSetting": [2108, -443, -7205, 544, -101, 33, 116, 58],
  "SliceThickness": 2,
  "SliceTiming": [0, 0.4375, 0.0875, 0.525, 0.175, 0.6125, 0.2625, 0.7, 0.35, 0, 0.4375, 0.0875, 0.525, 0.175, 0.6125, 0.2625, 0.7, 0.35, 0, 0.4375, 0.0875, 0.525, 0.175, 0.6125, 0.2625, 0.7, 0.35, 0, 0.4375, 0.0875, 0.525, 0.175, 0.6125, 0.2625, 0.7, 0.35, 0, 0.4375, 0.0875, 0.525, 0.175, 0.6125, 0.2625, 0.7, 0.35, 0, 0.4375, 0.0875, 0.525, 0.175, 0.6125, 0.2625, 0.7, 0.35, 0, 0.4375, 0.0875, 0.525, 0.175, 0.6125, 0.2625, 0.7, 0.35, 0, 0.4375, 0.0875, 0.525, 0.175, 0.6125, 0.2625, 0.7, 0.35],
  "SoftwareVersions": "syngo MR B19",
  "SpacingBetweenSlices": 2,
  "StationName": "MRC35450",
  "TaskName": "cpro",
  "TotalReadoutTime": 0.0710717,
  "TxRefAmp": 330.454,
  "dcmmeta_affine": [
    [-2.0, 0.0, 0.0, 104.67796325683594],
    [0.0, 1.994881510734558, -0.14299488067626953, -79.09363555908203],
    [0.0, 0.14299488067626953, 1.994881510734558, -105.79141998291016],
    [0.0, 0.0, 0.0, 1.0]
],
  "dcmmeta_reorient_transform": [
    [0.0, -1.0, 0.0, 103.0],
    [1.0, 0.0, 0.0, 0.0],
    [0.0, 0.0, 1.0, 0.0],
    [0.0, 0.0, 0.0, 1.0]
],
  "dcmmeta_shape": [104, 104, 72, 581],
  "dcmmeta_slice_dim": 2,
  "dcmmeta_version": 0.6,
  "global": {
    "const": {
      "AcquisitionMatrix": [104, 0, 0, 104],
      "AngioFlag": "N",
      "BitsAllocated": 16,
      "BitsStored": 12,
      "Columns": 936,
      "EchoNumbers": 1,
      "EchoTime": 34.8,
      "EchoTrainLength": 1,
      "FlipAngle": 55.0,
      "HighBit": 11,
      "ImageOrientationPatient": [1.0, 0.0, 0.0, 0.0, 0.99744078313723, -0.0714974414548],
      "ImagePositionPatient": [-936.67796611786, -956.24989963083, -31.577074913028],
      "ImageType": [
        "ORIGINAL",
        "PRIMARY",
        "M",
        "MB",
        "ND",
        "MOSAIC"
],
      "ImagedNucleus": "1H",
      "ImagingFrequency": 123.234412,
      "InPlanePhaseEncodingDirection": "COL",
      "MRAcquisitionType": "2D",
      "MagneticFieldStrength": 3.0,
      "Manufacturer": "SIEMENS",
      "ManufacturerModelName": "TrioTim",
      "Modality": "MR",
      "NumberOfAverages": 1.0,
      "NumberOfPhaseEncodingSteps": 91,
      "PercentPhaseFieldOfView": 100.0,
      "PercentSampling": 100.0,
      "PerformedProcedureStepStartTime": "144407.328000",
      "PhotometricInterpretation": "MONOCHROME2",
      "PixelBandwidth": 1923.0,
      "PixelRepresentation": 0,
      "PixelSpacing": [2.0, 2.0],
      "ProtocolName": "cmrr_mbep2d_bold_2mm_MB8_Task_8x",
      "RepetitionTime": 785.0,
      "Rows": 936,
      "SAR": 0.12511488449852,
      "SamplesPerPixel": 1,
      "ScanOptions": [
        "PFP",
        "FS"
],
      "ScanningSequence": "EP",
      "SequenceName": "epfid2d1_104",
      "SequenceVariant": [
        "SK",
        "SS"
],
      "SeriesDescription": "cmrr_mbep2d_bold_2mm_MB8_Task_8x",
      "SeriesNumber": 27,
      "SeriesTime": "185008.140000",
      "SliceLocation": -99.865683545473,
      "SliceThickness": 2.0,
      "SmallestImagePixelValue": 0,
      "SoftwareVersions": "syngo MR B19",
      "SpacingBetweenSlices": 1.9999999705235,
      "SpecificCharacterSet": "ISO_IR 100",
      "StudyID": "1",
      "StudyTime": "144407.265000",
      "TransmitCoilName": "Body",
      "VariableFlipAngleFlag": "N",
      "WindowCenterWidthExplanation": "Algo1",
      "dBdt": 0.0},
    "slices": {}
  },
  "time": {
    "samples": {
      "AcquisitionNumber": [1, 2, 3, 4, 5, 6, 7, 8, 9, 10, 11, 12, 13, 14, 15, 16, 17, 18, 19, 20, 21, 22, 23, 24, 25, 26, 27, 28, 29, 30, 31, 32, 33, 34, 35, 36, 37, 38, 39, 40, 41, 42, 43, 44, 45, 46, 47, 48, 49, 50, 51, 52, 53, 54, 55, 56, 57, 58, 59, 60, 61, 62, 63, 64, 65, 66, 67, 68, 69, 70, 71, 72, 73, 74, 75, 76, 77, 78, 79, 80, 81, 82, 83, 84, 85, 86, 87, 88, 89, 90, 91, 92, 93, 94, 95, 96, 97, 98, 99, 100, 101, 102, 103, 104, 105, 106, 107, 108, 109, 110, 111, 112, 113, 114, 115, 116, 117, 118, 119, 120, 121, 122, 123, 124, 125, 126, 127, 128, 129, 130, 131, 132, 133, 134, 135, 136, 137, 138, 139, 140, 141, 142, 143, 144, 145, 146, 147, 148, 149, 150, 151, 152, 153, 154, 155, 156, 157, 158, 159, 160, 161, 162, 163, 164, 165, 166, 167, 168, 169, 170, 171, 172, 173, 174, 175, 176, 177, 178, 179, 180, 181, 182, 183, 184, 185, 186, 187, 188, 189, 190, 191, 192, 193, 194, 195, 196, 197, 198, 199, 200, 201, 202, 203, 204, 205, 206, 207, 208, 209, 210, 211, 212, 213, 214, 215, 216, 217, 218, 219, 220, 221, 222, 223, 224, 225, 226, 227, 228, 229, 230, 231, 232, 233, 234, 235, 236, 237, 238, 239, 240, 241, 242, 243, 244, 245, 246, 247, 248, 249, 250, 251, 252, 253, 254, 255, 256, 257, 258, 259, 260, 261, 262, 263, 264, 265, 266, 267, 268, 269, 270, 271, 272, 273, 274, 275, 276, 277, 278, 279, 280, 281, 282, 283, 284, 285, 286, 287, 288, 289, 290, 291, 292, 293, 294, 295, 296, 297, 298, 299, 300, 301, 302, 303, 304, 305, 306, 307, 308, 309, 310, 311, 312, 313, 314, 315, 316, 317, 318, 319, 320, 321, 322, 323, 324, 325, 326, 327, 328, 329, 330, 331, 332, 333, 334, 335, 336, 337, 338, 339, 340, 341, 342, 343, 344, 345, 346, 347, 348, 349, 350, 351, 352, 353, 354, 355, 356, 357, 358, 359, 360, 361, 362, 363, 364, 365, 366, 367, 368, 369, 370, 371, 372, 373, 374, 375, 376, 377, 378, 379, 380, 381, 382, 383, 384, 385, 386, 387, 388, 389, 390, 391, 392, 393, 394, 395, 396, 397, 398, 399, 400, 401, 402, 403, 404, 405, 406, 407, 408, 409, 410, 411, 412, 413, 414, 415, 416, 417, 418, 419, 420, 421, 422, 423, 424, 425, 426, 427, 428, 429, 430, 431, 432, 433, 434, 435, 436, 437, 438, 439, 440, 441, 442, 443, 444, 445, 446, 447, 448, 449, 450, 451, 452, 453, 454, 455, 456, 457, 458, 459, 460, 461, 462, 463, 464, 465, 466, 467, 468, 469, 470, 471, 472, 473, 474, 475, 476, 477, 478, 479, 480, 481, 482, 483, 484, 485, 486, 487, 488, 489, 490, 491, 492, 493, 494, 495, 496, 497, 498, 499, 500, 501, 502, 503, 504, 505, 506, 507, 508, 509, 510, 511, 512, 513, 514, 515, 516, 517, 518, 519, 520, 521, 522, 523, 524, 525, 526, 527, 528, 529, 530, 531, 532, 533, 534, 535, 536, 537, 538, 539, 540, 541, 542, 543, 544, 545, 546, 547, 548, 549, 550, 551, 552, 553, 554, 555, 556, 557, 558, 559, 560, 561, 562, 563, 564, 565, 566, 567, 568, 569, 570, 571, 572, 573, 574, 575, 576, 577, 578, 579, 580, 581],
      "AcquisitionTime": ["164948.725000", "164949.512500", "164950.300000", "164951.090000", "164951.877500", "164952.665000", "164953.452500", "164954.242500", "164955.030000", "164955.817500", "164956.607500", "164957.395000", "164958.182500", "164958.970000", "164959.760000", "165000.547500", "165001.335000", "165002.122500", "165002.912500", "165003.700000", "165004.487500", "165005.275000", "165006.065000", "165006.852500", "165007.640000", "165008.427500", "165009.217500", "165010.005000", "165010.792500", "165011.580000", "165012.370000", "165013.157500", "165013.945000", "165014.735000", "165015.522500", "165016.310000", "165017.097500", "165017.887500", "165018.675000", "165019.462500", "165020.250000", "165021.040000", "165021.827500", "165022.615000", "165023.402500", "165024.192500", "165024.980000", "165025.767500", "165026.555000", "165027.345000", "165028.132500", "165028.920000", "165029.707500", "165030.497500", "165031.285000", "165032.072500", "165032.862500", "165033.650000", "165034.437500", "165035.225000", "165036.015000", "165036.802500", "165037.590000", "165038.377500", "165039.167500", "165039.955000", "165040.742500", "165041.530000", "165042.320000", "165043.107500", "165043.895000", "165044.682500", "165045.472500", "165046.260000", "165047.047500", "165047.835000", "165048.625000", "165049.412500", "165050.200000", "165050.990000", "165051.777500", "165052.565000", "165053.352500", "165054.142500", "165054.930000", "165055.717500", "165056.505000", "165057.295000", "165058.082500", "165058.870000", "165059.657500", "165100.447500", "165101.235000", "165102.022500", "165102.810000", "165103.600000", "165104.387500", "165105.175000", "165105.962500", "165106.752500", "165107.540000", "165108.327500", "165109.117500", "165109.905000", "165110.692500", "165111.480000", "165112.270000", "165113.057500", "165113.845000", "165114.632500", "165115.422500", "165116.210000", "165116.997500", "165117.785000", "165118.575000", "165119.362500", "165120.150000", "165120.937500", "165121.727500", "165122.515000", "165123.302500", "165124.090000", "165124.880000", "165125.667500", "165126.455000", "165127.245000", "165128.032500", "165128.820000", "165129.607500", "165130.397500", "165131.185000", "165131.972500", "165132.760000", "165133.550000", "165134.337500", "165135.125000", "165135.912500", "165136.702500", "165137.490000", "165138.277500", "165139.065000", "165139.855000", "165140.642500", "165141.430000", "165142.217500", "165143.007500", "165143.795000", "165144.582500", "165145.372500", "165146.160000", "165146.947500", "165147.735000", "165148.525000", "165149.312500", "165150.100000", "165150.887500", "165151.677500", "165152.465000", "165153.252500", "165154.040000", "165154.830000", "165155.617500", "165156.405000", "165157.192500", "165157.982500", "165158.770000", "165159.557500", "165200.345000", "165201.135000", "165201.922500", "165202.710000", "165203.500000", "165204.287500", "165205.075000", "165205.862500", "165206.652500", "165207.440000", "165208.227500", "165209.015000", "165209.805000", "165210.592500", "165211.380000", "165212.167500", "165212.957500", "165213.745000", "165214.532500", "165215.320000", "165216.110000", "165216.897500", "165217.685000", "165218.472500", "165219.262500", "165220.050000", "165220.837500", "165221.627500", "165222.415000", "165223.202500", "165223.990000", "165224.780000", "165225.567500", "165226.355000", "165227.142500", "165227.932500", "165228.720000", "165229.507500", "165230.295000", "165231.085000", "165231.872500", "165232.660000", "165233.447500", "165234.237500", "165235.025000", "165235.812500", "165236.600000", "165237.390000", "165238.177500", "165238.965000", "165239.755000", "165240.542500", "165241.330000", "165242.117500", "165242.907500", "165243.695000", "165244.482500", "165245.270000", "165246.060000", "165246.847500", "165247.635000", "165248.422500", "165249.212500", "165250.000000", "165250.787500", "165251.575000", "165252.365000", "165253.152500", "165253.940000", "165254.730000", "165255.517500", "165256.305000", "165257.092500", "165257.882500", "165258.670000", "165259.457500", "165300.245000", "165301.035000", "165301.822500", "165302.610000", "165303.397500", "165304.187500", "165304.975000", "165305.762500", "165306.550000", "165307.340000", "165308.127500", "165308.915000", "165309.702500", "165310.492500", "165311.280000", "165312.067500", "165312.857500", "165313.645000", "165314.432500", "165315.220000", "165316.010000", "165316.797500", "165317.585000", "165318.372500", "165319.162500", "165319.950000", "165320.737500", "165321.525000", "165322.315000", "165323.102500", "165323.890000", "165324.677500", "165325.467500", "165326.255000", "165327.042500", "165327.830000", "165328.620000", "165329.407500", "165330.195000", "165330.985000", "165331.772500", "165332.560000", "165333.347500", "165334.137500", "165334.925000", "165335.712500", "165336.500000", "165337.290000", "165338.077500", "165338.865000", "165339.652500", "165340.442500", "165341.230000", "165342.017500", "165342.805000", "165343.595000", "165344.382500", "165345.170000", "165345.957500", "165346.747500", "165347.535000", "165348.322500", "165349.112500", "165349.900000", "165350.687500", "165351.475000", "165352.265000", "165353.052500", "165353.840000", "165354.627500", "165355.417500", "165356.205000", "165356.992500", "165357.780000", "165358.570000", "165359.357500", "165400.145000", "165400.932500", "165401.722500", "165402.510000", "165403.297500", "165404.085000", "165404.875000", "165405.662500", "165406.450000", "165407.240000", "165408.027500", "165408.815000", "165409.602500", "165410.392500", "165411.180000", "165411.967500", "165412.755000", "165413.545000", "165414.332500", "165415.120000", "165415.907500", "165416.697500", "165417.485000", "165418.272500", "165419.060000", "165419.850000", "165420.637500", "165421.425000", "165422.212500", "165423.002500", "165423.790000", "165424.577500", "165425.367500", "165426.155000", "165426.942500", "165427.730000", "165428.520000", "165429.307500", "165430.095000", "165430.882500", "165431.672500", "165432.460000", "165433.247500", "165434.035000", "165434.825000", "165435.612500", "165436.400000", "165437.187500", "165437.977500", "165438.765000", "165439.552500", "165440.340000", "165441.130000", "165441.917500", "165442.705000", "165443.495000", "165444.282500", "165445.070000", "165445.857500", "165446.647500", "165447.435000", "165448.222500", "165449.010000", "165449.800000", "165450.587500", "165451.375000", "165452.162500", "165452.952500", "165453.740000", "165454.527500", "165455.315000", "165456.105000", "165456.892500", "165457.680000", "165458.467500", "165459.257500", "165500.045000", "165500.832500", "165501.622500", "165502.410000", "165503.197500", "165503.985000", "165504.775000", "165505.562500", "165506.350000", "165507.137500", "165507.927500", "165508.715000", "165509.502500", "165510.290000", "165511.080000", "165511.867500", "165512.655000", "165513.442500", "165514.232500", "165515.020000", "165515.807500", "165516.595000", "165517.385000", "165518.172500", "165518.960000", "165519.750000", "165520.537500", "165521.325000", "165522.112500", "165522.902500", "165523.690000", "165524.477500", "165525.265000", "165526.055000", "165526.842500", "165527.630000", "165528.417500", "165529.207500", "165529.995000", "165530.782500", "165531.570000", "165532.360000", "165533.147500", "165533.935000", "165534.722500", "165535.512500", "165536.300000", "165537.087500", "165537.877500", "165538.665000", "165539.452500", "165540.240000", "165541.030000", "165541.817500", "165542.605000", "165543.392500", "165544.182500", "165544.970000", "165545.757500", "165546.545000", "165547.335000", "165548.122500", "165548.910000", "165549.697500", "165550.487500", "165551.275000", "165552.062500", "165552.850000", "165553.640000", "165554.427500", "165555.215000", "165556.005000", "165556.792500", "165557.580000", "165558.367500", "165559.157500", "165559.945000", "165600.732500", "165601.520000", "165602.310000", "165603.097500", "165603.885000", "165604.672500", "165605.462500", "165606.250000", "165607.037500", "165607.825000", "165608.615000", "165609.402500", "165610.190000", "165610.980000", "165611.767500", "165612.555000", "165613.342500", "165614.132500", "165614.920000", "165615.707500", "165616.495000", "165617.285000", "165618.072500", "165618.860000", "165619.647500", "165620.437500", "165621.225000", "165622.012500", "165622.800000", "165623.590000", "165624.377500", "165625.165000", "165625.952500", "165626.742500", "165627.530000", "165628.317500", "165629.107500", "165629.895000", "165630.682500", "165631.470000", "165632.260000", "165633.047500", "165633.835000", "165634.622500", "165635.412500", "165636.200000", "165636.987500", "165637.775000", "165638.565000", "165639.352500", "165640.140000", "165640.927500", "165641.717500", "165642.505000", "165643.292500", "165644.080000", "165644.870000", "165645.657500", "165646.445000", "165647.235000", "165648.022500", "165648.810000", "165649.597500", "165650.387500", "165651.175000", "165651.962500", "165652.750000", "165653.540000", "165654.327500", "165655.115000", "165655.902500", "165656.692500", "165657.480000", "165658.267500", "165659.055000", "165659.845000", "165700.632500", "165701.420000", "165702.207500", "165702.997500", "165703.785000", "165704.572500", "165705.362500", "165706.150000", "165706.937500", "165707.725000", "165708.515000", "165709.302500", "165710.090000", "165710.877500", "165711.667500", "165712.455000", "165713.242500", "165714.030000", "165714.820000", "165715.607500", "165716.395000", "165717.182500", "165717.972500", "165718.760000", "165719.547500", "165720.335000", "165721.125000", "165721.912500", "165722.700000", "165723.490000", "165724.277500", "165725.065000", "165725.852500"],
      "ContentTime": ["185008.156000", "185008.156000", "185008.156000", "185008.156000", "185008.156000", "185008.156000", "185008.156000", "185108.125000", "185108.125000", "185108.125000", "185108.125000", "185108.140000", "185108.140000", "185108.140000", "185108.140000", "185108.140000", "185108.140000", "185108.140000", "185108.156000", "185108.156000", "185108.156000", "185108.156000", "185108.156000", "185108.156000", "185108.156000", "185108.171000", "185108.171000", "185108.171000", "185108.171000", "185108.171000", "185108.187000", "185108.187000", "185108.187000", "185108.187000", "185108.187000", "185208.125000", "185208.125000", "185208.125000", "185208.125000", "185208.140000", "185208.140000", "185208.140000", "185208.140000", "185208.140000", "185208.140000", "185208.140000", "185208.156000", "185208.156000", "185208.156000", "185208.156000", "185208.156000", "185208.156000", "185208.156000", "185208.171000", "185208.171000", "185208.171000", "185208.171000", "185208.171000", "185208.171000", "185208.171000", "185208.187000", "185208.187000", "185208.187000", "185308.125000", "185308.125000", "185308.125000", "185308.125000", "185308.140000", "185308.140000", "185308.140000", "185308.140000", "185308.140000", "185308.140000", "185308.140000", "185308.156000", "185308.156000", "185308.156000", "185308.156000", "185308.156000", "185308.156000", "185308.156000", "185308.171000", "185308.171000", "185308.171000", "185308.171000", "185308.171000", "185308.171000", "185308.187000", "185308.187000", "185308.187000", "185308.187000", "185308.187000", "185408.125000", "185408.125000", "185408.125000", "185408.125000", "185408.140000", "185408.140000", "185408.140000", "185408.140000", "185408.140000", "185408.140000", "185408.140000", "185408.156000", "185408.156000", "185408.156000", "185408.156000", "185408.156000", "185408.156000", "185408.156000", "185408.171000", "185408.171000", "185408.171000", "185408.171000", "185408.171000", "185408.171000", "185408.171000", "185408.187000", "185408.187000", "185408.187000", "185508.125000", "185508.125000", "185508.125000", "185508.125000", "185508.140000", "185508.140000", "185508.140000", "185508.140000", "185508.140000", "185508.140000", "185508.140000", "185508.156000", "185508.156000", "185508.156000", "185508.156000", "185508.156000", "185508.156000", "185508.156000", "185508.171000", "185508.171000", "185508.171000", "185508.171000", "185508.171000", "185508.171000", "185508.171000", "185508.187000", "185508.187000", "185508.187000", "185548.125000", "185548.125000", "185548.125000", "185548.125000", "185548.140000", "185548.140000", "185548.140000", "185548.140000", "185548.140000", "185548.140000", "185548.140000", "185548.156000", "185548.156000", "185548.156000", "185548.156000", "185548.156000", "185548.156000", "185548.171000", "185548.171000", "185648.125000", "185648.125000", "185648.125000", "185648.125000", "185648.140000", "185648.140000", "185648.140000", "185648.140000", "185648.140000", "185648.140000", "185648.140000", "185648.156000", "185648.156000", "185648.156000", "185648.156000", "185648.156000", "185648.156000", "185648.156000", "185648.171000", "185648.171000", "185648.171000", "185648.171000", "185648.171000", "185648.171000", "185648.171000", "185648.187000", "185648.187000", "185648.187000", "185748.125000", "185748.125000", "185748.125000", "185748.125000", "185748.140000", "185748.140000", "185748.140000", "185748.140000", "185748.140000", "185748.140000", "185748.140000", "185748.156000", "185748.156000", "185748.156000", "185748.156000", "185748.156000", "185748.156000", "185748.156000", "185748.171000", "185748.171000", "185748.171000", "185748.171000", "185748.171000", "185748.171000", "185748.171000", "185748.187000", "185748.187000", "185748.187000", "185848.125000", "185848.140000", "185848.140000", "185848.140000", "185848.140000", "185848.140000", "185848.156000", "185848.156000", "185848.156000", "185848.156000", "185848.156000", "185848.156000", "185848.156000", "185848.156000", "185848.171000", "185848.171000", "185848.171000", "185848.171000", "185848.171000", "185848.171000", "185848.171000", "185848.187000", "185848.187000", "185848.187000", "185848.187000", "185848.187000", "185848.187000", "185848.187000", "185948.125000", "185948.125000", "185948.125000", "185948.125000", "185948.140000", "185948.140000", "185948.140000", "185948.140000", "185948.140000", "185948.140000", "185948.140000", "185948.156000", "185948.156000", "185948.156000", "185948.156000", "185948.156000", "185948.156000", "185948.156000", "185948.171000", "185948.171000", "185948.171000", "185948.171000", "185948.171000", "185948.187000", "185948.187000", "185948.187000", "185948.187000", "185948.187000", "190048.125000", "190048.125000", "190048.125000", "190048.125000", "190048.140000", "190048.140000", "190048.140000", "190048.140000", "190048.140000", "190048.140000", "190048.140000", "190048.156000", "190048.156000", "190048.156000", "190048.156000", "190048.156000", "190048.156000", "190048.156000", "190048.171000", "190048.171000", "190048.171000", "190048.171000", "190048.171000", "190048.171000", "190048.171000", "190048.187000", "190048.187000", "190048.187000", "190048.187000", "190148.125000", "190148.125000", "190148.125000", "190148.125000", "190148.140000", "190148.140000", "190148.140000", "190148.140000", "190148.140000", "190148.140000", "190148.140000", "190148.156000", "190148.156000", "190148.156000", "190148.156000", "190148.171000", "190148.171000", "190148.171000", "190148.171000", "190148.171000", "190148.187000", "190148.187000", "190148.187000", "190148.187000", "190148.187000", "190148.187000", "190148.187000", "190148.203000", "190248.125000", "190248.125000", "190248.125000", "190248.125000", "190248.140000", "190248.140000", "190248.140000", "190248.140000", "190248.140000", "190248.156000", "190248.156000", "190248.156000", "190248.156000", "190248.156000", "190248.156000", "190248.156000", "190248.171000", "190248.171000", "190248.171000", "190248.171000", "190248.187000", "190248.187000", "190248.187000", "190248.187000", "190248.187000", "190248.187000", "190248.187000", "190248.203000", "190348.125000", "190348.125000", "190348.125000", "190348.140000", "190348.140000", "190348.140000", "190348.140000", "190348.140000", "190348.140000", "190348.156000", "190348.156000", "190348.156000", "190348.156000", "190348.156000", "190348.156000", "190348.156000", "190348.171000", "190348.171000", "190348.171000", "190348.171000", "190348.171000", "190348.171000", "190348.171000", "190348.187000", "190348.187000", "190348.187000", "190348.187000", "190348.187000", "190448.125000", "190448.125000", "190448.125000", "190448.125000", "190448.140000", "190448.140000", "190448.140000", "190448.140000", "190448.140000", "190448.140000", "190448.140000", "190448.156000", "190448.156000", "190448.156000", "190448.156000", "190448.156000", "190448.156000", "190448.156000", "190448.171000", "190448.171000", "190448.171000", "190448.171000", "190448.171000", "190448.187000", "190448.187000", "190448.187000", "190448.187000", "190448.187000", "190448.187000", "190548.125000", "190548.125000", "190548.125000", "190548.125000", "190548.140000", "190548.140000", "190548.140000", "190548.140000", "190548.140000", "190548.140000", "190548.140000", "190548.156000", "190548.156000", "190548.156000", "190548.156000", "190548.156000", "190548.156000", "190548.156000", "190548.171000", "190548.171000", "190548.171000", "190548.171000", "190548.171000", "190548.171000", "190548.171000", "190548.187000", "190548.187000", "190548.187000", "190648.125000", "190648.125000", "190648.125000", "190648.125000", "190648.140000", "190648.140000", "190648.140000", "190648.140000", "190648.140000", "190648.140000", "190648.140000", "190648.156000", "190648.156000", "190648.156000", "190648.156000", "190648.156000", "190648.156000", "190648.171000", "190648.171000", "190648.171000", "190648.171000", "190648.171000", "190648.171000", "190648.187000", "190648.187000", "190648.187000", "190648.187000", "190648.187000", "190748.125000", "190748.125000", "190748.125000", "190748.125000", "190748.140000", "190748.140000", "190748.140000", "190748.140000", "190748.140000", "190748.140000", "190748.156000", "190748.156000", "190748.156000", "190748.156000", "190748.156000", "190748.156000", "190748.156000", "190748.171000", "190748.171000", "190748.171000", "190748.171000", "190748.171000", "190748.187000", "190748.187000", "190748.187000", "190748.187000", "190748.187000", "190748.187000", "190848.125000", "190848.125000", "190848.125000", "190848.125000", "190848.140000", "190848.140000", "190848.140000", "190848.140000", "190848.140000", "190848.140000", "190848.140000", "190848.156000", "190848.156000", "190848.156000", "190848.156000", "190848.156000", "190848.156000", "190848.171000", "190848.171000", "190848.171000", "190848.171000", "190848.171000", "190848.171000", "190848.171000", "190848.187000", "190848.187000", "190848.187000", "190848.187000", "190948.125000", "190948.125000", "190948.125000", "190948.125000", "190948.140000", "190948.140000", "190948.140000", "190948.140000", "190948.140000", "190948.140000", "190948.140000", "190948.156000", "190948.156000", "190948.156000", "190948.156000", "190948.156000", "190948.156000", "190948.156000", "190948.171000", "190948.171000", "190948.171000", "190948.171000", "190948.171000", "190948.171000", "190948.171000", "190948.187000", "190948.187000", "190948.187000", "191028.156000", "191028.156000", "191028.171000", "191028.171000", "191028.171000", "191028.171000", "191028.171000", "191028.171000", "191028.187000", "191028.187000", "191028.187000", "191028.187000", "191028.187000", "191028.187000", "191028.187000", "191028.203000", "191028.203000", "191028.203000", "191028.203000", "191028.203000"],
      "DataSetTrailingPadding": [
        "\u0000\u0000\u0000\u0000\u0000\u0000\u0000\u0000\u0000\u0000\u0000\u0000\u0000\u0000\u0000\u0000\u0000\u0000\u0000\u0000\u0000\u0000\u0000\u0000\u0000\u0000\u0000\u0000\u0000\u0000\u0000\u0000\u0000\u0000\u0000\u0000\u0000\u0000\u0000\u0000\u0000\u0000\u0000\u0000\u0000\u0000\u0000\u0000\u0000\u0000\u0000\u0000\u0000\u0000\u0000\u0000\u0000\u0000\u0000\u0000\u0000\u0000\u0000\u0000\u0000\u0000\u0000\u0000\u0000\u0000\u0000\u0000\u0000\u0000\u0000\u0000\u0000\u0000\u0000\u0000\u0000\u0000\u0000\u0000\u0000\u0000\u0000\u0000\u0000\u0000\u0000\u0000\u0000\u0000\u0000\u0000\u0000\u0000\u0000\u0000\u0000\u0000\u0000\u0000\u0000\u0000\u0000\u0000\u0000\u0000\u0000\u0000",
        "\u0000\u0000\u0000\u0000\u0000\u0000\u0000\u0000\u0000\u0000\u0000\u0000\u0000\u0000\u0000\u0000\u0000\u0000\u0000\u0000\u0000\u0000\u0000\u0000\u0000\u0000\u0000\u0000\u0000\u0000\u0000\u0000\u0000\u0000\u0000\u0000\u0000\u0000\u0000\u0000\u0000\u0000\u0000\u0000\u0000\u0000\u0000\u0000\u0000\u0000\u0000\u0000\u0000\u0000\u0000\u0000\u0000\u0000\u0000\u0000\u0000\u0000\u0000\u0000\u0000\u0000\u0000\u0000\u0000\u0000\u0000\u0000\u0000\u0000\u0000\u0000\u0000\u0000\u0000\u0000\u0000\u0000\u0000\u0000\u0000\u0000\u0000\u0000\u0000\u0000\u0000\u0000\u0000\u0000\u0000\u0000\u0000\u0000\u0000\u0000\u0000\u0000\u0000\u0000\u0000\u0000\u0000\u0000\u0000\u0000\u0000\u0000",
        "\u0000\u0000\u0000\u0000\u0000\u0000\u0000\u0000\u0000\u0000\u0000\u0000\u0000\u0000\u0000\u0000\u0000\u0000\u0000\u0000\u0000\u0000\u0000\u0000\u0000\u0000\u0000\u0000\u0000\u0000\u0000\u0000\u0000\u0000\u0000\u0000\u0000\u0000\u0000\u0000\u0000\u0000\u0000\u0000\u0000\u0000\u0000\u0000\u0000\u0000\u0000\u0000\u0000\u0000\u0000\u0000\u0000\u0000\u0000\u0000\u0000\u0000\u0000\u0000\u0000\u0000\u0000\u0000\u0000\u0000\u0000\u0000\u0000\u0000\u0000\u0000\u0000\u0000\u0000\u0000\u0000\u0000\u0000\u0000\u0000\u0000\u0000\u0000\u0000\u0000\u0000\u0000\u0000\u0000\u0000\u0000\u0000\u0000\u0000\u0000\u0000\u0000\u0000\u0000\u0000\u0000\u0000\u0000\u0000\u0000",
