{
  "AcquisitionMatrixPE": 104,
  "AcquisitionNumber": 1,
  "AcquisitionTime": "16:00:46.742500",
  "BandwidthPerPixelPhaseEncode": 13.935,
  "BaseResolution": 104,
  "CoilString": "C:HEA;HEP",
  "ConversionSoftware": "dcm2niix",
  "ConversionSoftwareVersion": "v1.0.20210317",
  "DerivedVendorReportedEchoSpacing": 0.000690017,
  "DeviceSerialNumber": "35450",
  "DwellTime": 2.5e-06,
  "EchoTime": 0.0348,
  "EffectiveEchoSpacing": 0.000690017,
  "FlipAngle": 55,
  "ImageComments": "Unaliased MB8/PE3",
  "ImageOrientationPatientDICOM": [1, 0, 0, 0, 0.997441, -0.0714974],
  "ImageType": [
    "ORIGINAL",
    "PRIMARY",
    "M",
    "MB",
    "ND",
    "MOSAIC"
],
  "ImagingFrequency": 123.234,
  "InPlanePhaseEncodingDirectionDICOM": "COL",
  "InstitutionAddress": "Univeristy Ave. 197,Newark,North East,US,07102-1814",
  "InstitutionName": "RUBIC",
  "InstitutionalDepartmentName": "Department",
  "MRAcquisitionType": "2D",
  "MagneticFieldStrength": 3,
  "Manufacturer": "Siemens",
  "ManufacturersModelName": "TrioTim",
  "Modality": "MR",
  "MultibandAccelerationFactor": 8,
  "PartialFourier": 0.875,
  "PatientPosition": "HFS",
  "PercentPhaseFOV": 100,
  "PercentSampling": 100,
  "PhaseEncodingDirection": "j-",
  "PhaseEncodingSteps": 91,
  "PhaseResolution": 1,
  "PixelBandwidth": 1923,
  "ProcedureStepDescription": "Cole^Michael",
  "ProtocolName": "cmrr_mbep2d_bold_2mm_MB8_Task_8x",
  "PulseSequenceDetails": "%CustomerSeq%\\cmrr_mbep2d_bold",
  "ReceiveCoilName": "32Ch_Head",
  "ReconMatrixPE": 104,
  "RepetitionTime": 0.785,
  "SAR": 0.125115,
  "ScanOptions": "PFP\\FS",
  "ScanningSequence": "EP",
  "SequenceName": "epfid2d1_104",
  "SequenceVariant": "SK\\SS",
  "SeriesDescription": "cmrr_mbep2d_bold_2mm_MB8_Task_8x",
  "SeriesNumber": 15,
  "ShimSetting": [2108, -443, -7205, 544, -101, 33, 116, 58],
  "SliceThickness": 2,
  "SliceTiming": [0, 0.4375, 0.0875, 0.525, 0.175, 0.6125, 0.2625, 0.7, 0.35, 0, 0.4375, 0.0875, 0.525, 0.175, 0.6125, 0.2625, 0.7, 0.35, 0, 0.4375, 0.0875, 0.525, 0.175, 0.6125, 0.2625, 0.7, 0.35, 0, 0.4375, 0.0875, 0.525, 0.175, 0.6125, 0.2625, 0.7, 0.35, 0, 0.4375, 0.0875, 0.525, 0.175, 0.6125, 0.2625, 0.7, 0.35, 0, 0.4375, 0.0875, 0.525, 0.175, 0.6125, 0.2625, 0.7, 0.35, 0, 0.4375, 0.0875, 0.525, 0.175, 0.6125, 0.2625, 0.7, 0.35, 0, 0.4375, 0.0875, 0.525, 0.175, 0.6125, 0.2625, 0.7, 0.35],
  "SoftwareVersions": "syngo MR B19",
  "SpacingBetweenSlices": 2,
  "StationName": "MRC35450",
  "TaskName": "cpro",
  "TotalReadoutTime": 0.0710717,
  "TxRefAmp": 330.454,
  "dcmmeta_affine": [
    [-2.0, 0.0, 0.0, 104.67796325683594],
    [0.0, 1.994881510734558, -0.14299488067626953, -79.09363555908203],
    [0.0, 0.14299488067626953, 1.994881510734558, -105.79141998291016],
    [0.0, 0.0, 0.0, 1.0]
],
  "dcmmeta_reorient_transform": [
    [0.0, -1.0, 0.0, 103.0],
    [1.0, 0.0, 0.0, 0.0],
    [0.0, 0.0, 1.0, 0.0],
    [0.0, 0.0, 0.0, 1.0]
],
  "dcmmeta_shape": [104, 104, 72, 581],
  "dcmmeta_slice_dim": 2,
  "dcmmeta_version": 0.6,
  "global": {
    "const": {
      "AcquisitionMatrix": [104, 0, 0, 104],
      "AngioFlag": "N",
      "BitsAllocated": 16,
      "BitsStored": 12,
      "Columns": 936,
      "EchoNumbers": 1,
      "EchoTime": 34.8,
      "EchoTrainLength": 1,
      "FlipAngle": 55.0,
      "HighBit": 11,
      "ImageOrientationPatient": [1.0, 0.0, 0.0, 0.0, 0.99744078313723, -0.0714974414548],
      "ImagePositionPatient": [-936.67796611786, -956.24989963083, -31.577074913028],
      "ImageType": [
        "ORIGINAL",
        "PRIMARY",
        "M",
        "MB",
        "ND",
        "MOSAIC"
],
      "ImagedNucleus": "1H",
      "ImagingFrequency": 123.234412,
      "InPlanePhaseEncodingDirection": "COL",
      "MRAcquisitionType": "2D",
      "MagneticFieldStrength": 3.0,
      "Manufacturer": "SIEMENS",
      "ManufacturerModelName": "TrioTim",
      "Modality": "MR",
      "NumberOfAverages": 1.0,
      "NumberOfPhaseEncodingSteps": 91,
      "PercentPhaseFieldOfView": 100.0,
      "PercentSampling": 100.0,
      "PerformedProcedureStepStartTime": "144407.328000",
      "PhotometricInterpretation": "MONOCHROME2",
      "PixelBandwidth": 1923.0,
      "PixelRepresentation": 0,
      "PixelSpacing": [2.0, 2.0],
      "ProtocolName": "cmrr_mbep2d_bold_2mm_MB8_Task_8x",
      "RepetitionTime": 785.0,
      "Rows": 936,
      "SAR": 0.12511488449852,
      "SamplesPerPixel": 1,
      "ScanOptions": [
        "PFP",
        "FS"
],
      "ScanningSequence": "EP",
      "SequenceName": "epfid2d1_104",
      "SequenceVariant": [
        "SK",
        "SS"
],
      "SeriesDescription": "cmrr_mbep2d_bold_2mm_MB8_Task_8x",
      "SeriesNumber": 15,
      "SeriesTime": "164418.031000",
      "SliceLocation": -99.865683545473,
      "SliceThickness": 2.0,
      "SmallestImagePixelValue": 0,
      "SoftwareVersions": "syngo MR B19",
      "SpacingBetweenSlices": 1.9999999705235,
      "SpecificCharacterSet": "ISO_IR 100",
      "StudyID": "1",
      "StudyTime": "144407.265000",
      "TransmitCoilName": "Body",
      "VariableFlipAngleFlag": "N",
      "WindowCenterWidthExplanation": "Algo1",
      "dBdt": 0.0},
    "slices": {}
  },
  "time": {
    "samples": {
      "AcquisitionNumber": [1, 2, 3, 4, 5, 6, 7, 8, 9, 10, 11, 12, 13, 14, 15, 16, 17, 18, 19, 20, 21, 22, 23, 24, 25, 26, 27, 28, 29, 30, 31, 32, 33, 34, 35, 36, 37, 38, 39, 40, 41, 42, 43, 44, 45, 46, 47, 48, 49, 50, 51, 52, 53, 54, 55, 56, 57, 58, 59, 60, 61, 62, 63, 64, 65, 66, 67, 68, 69, 70, 71, 72, 73, 74, 75, 76, 77, 78, 79, 80, 81, 82, 83, 84, 85, 86, 87, 88, 89, 90, 91, 92, 93, 94, 95, 96, 97, 98, 99, 100, 101, 102, 103, 104, 105, 106, 107, 108, 109, 110, 111, 112, 113, 114, 115, 116, 117, 118, 119, 120, 121, 122, 123, 124, 125, 126, 127, 128, 129, 130, 131, 132, 133, 134, 135, 136, 137, 138, 139, 140, 141, 142, 143, 144, 145, 146, 147, 148, 149, 150, 151, 152, 153, 154, 155, 156, 157, 158, 159, 160, 161, 162, 163, 164, 165, 166, 167, 168, 169, 170, 171, 172, 173, 174, 175, 176, 177, 178, 179, 180, 181, 182, 183, 184, 185, 186, 187, 188, 189, 190, 191, 192, 193, 194, 195, 196, 197, 198, 199, 200, 201, 202, 203, 204, 205, 206, 207, 208, 209, 210, 211, 212, 213, 214, 215, 216, 217, 218, 219, 220, 221, 222, 223, 224, 225, 226, 227, 228, 229, 230, 231, 232, 233, 234, 235, 236, 237, 238, 239, 240, 241, 242, 243, 244, 245, 246, 247, 248, 249, 250, 251, 252, 253, 254, 255, 256, 257, 258, 259, 260, 261, 262, 263, 264, 265, 266, 267, 268, 269, 270, 271, 272, 273, 274, 275, 276, 277, 278, 279, 280, 281, 282, 283, 284, 285, 286, 287, 288, 289, 290, 291, 292, 293, 294, 295, 296, 297, 298, 299, 300, 301, 302, 303, 304, 305, 306, 307, 308, 309, 310, 311, 312, 313, 314, 315, 316, 317, 318, 319, 320, 321, 322, 323, 324, 325, 326, 327, 328, 329, 330, 331, 332, 333, 334, 335, 336, 337, 338, 339, 340, 341, 342, 343, 344, 345, 346, 347, 348, 349, 350, 351, 352, 353, 354, 355, 356, 357, 358, 359, 360, 361, 362, 363, 364, 365, 366, 367, 368, 369, 370, 371, 372, 373, 374, 375, 376, 377, 378, 379, 380, 381, 382, 383, 384, 385, 386, 387, 388, 389, 390, 391, 392, 393, 394, 395, 396, 397, 398, 399, 400, 401, 402, 403, 404, 405, 406, 407, 408, 409, 410, 411, 412, 413, 414, 415, 416, 417, 418, 419, 420, 421, 422, 423, 424, 425, 426, 427, 428, 429, 430, 431, 432, 433, 434, 435, 436, 437, 438, 439, 440, 441, 442, 443, 444, 445, 446, 447, 448, 449, 450, 451, 452, 453, 454, 455, 456, 457, 458, 459, 460, 461, 462, 463, 464, 465, 466, 467, 468, 469, 470, 471, 472, 473, 474, 475, 476, 477, 478, 479, 480, 481, 482, 483, 484, 485, 486, 487, 488, 489, 490, 491, 492, 493, 494, 495, 496, 497, 498, 499, 500, 501, 502, 503, 504, 505, 506, 507, 508, 509, 510, 511, 512, 513, 514, 515, 516, 517, 518, 519, 520, 521, 522, 523, 524, 525, 526, 527, 528, 529, 530, 531, 532, 533, 534, 535, 536, 537, 538, 539, 540, 541, 542, 543, 544, 545, 546, 547, 548, 549, 550, 551, 552, 553, 554, 555, 556, 557, 558, 559, 560, 561, 562, 563, 564, 565, 566, 567, 568, 569, 570, 571, 572, 573, 574, 575, 576, 577, 578, 579, 580, 581],
      "AcquisitionTime": ["160046.742500", "160047.530000", "160048.320000", "160049.107500", "160049.895000", "160050.682500", "160051.472500", "160052.260000", "160053.047500", "160053.835000", "160054.625000", "160055.412500", "160056.200000", "160056.990000", "160057.777500", "160058.565000", "160059.352500", "160100.142500", "160100.930000", "160101.717500", "160102.505000", "160103.295000", "160104.082500", "160104.870000", "160105.657500", "160106.447500", "160107.235000", "160108.022500", "160108.810000", "160109.600000", "160110.387500", "160111.175000", "160111.962500", "160112.752500", "160113.540000", "160114.327500", "160115.117500", "160115.905000", "160116.692500", "160117.480000", "160118.270000", "160119.057500", "160119.845000", "160120.632500", "160121.422500", "160122.210000", "160122.997500", "160123.785000", "160124.575000", "160125.362500", "160126.150000", "160126.937500", "160127.727500", "160128.515000", "160129.302500", "160130.090000", "160130.880000", "160131.667500", "160132.455000", "160133.245000", "160134.032500", "160134.820000", "160135.607500", "160136.397500", "160137.185000", "160137.972500", "160138.760000", "160139.550000", "160140.337500", "160141.125000", "160141.912500", "160142.702500", "160143.490000", "160144.277500", "160145.065000", "160145.855000", "160146.642500", "160147.430000", "160148.217500", "160149.007500", "160149.795000", "160150.582500", "160151.372500", "160152.160000", "160152.947500", "160153.735000", "160154.525000", "160155.312500", "160156.100000", "160156.887500", "160157.677500", "160158.465000", "160159.252500", "160200.040000", "160200.830000", "160201.617500", "160202.405000", "160203.192500", "160203.982500", "160204.770000", "160205.557500", "160206.347500", "160207.135000", "160207.922500", "160208.710000", "160209.500000", "160210.287500", "160211.075000", "160211.862500", "160212.652500", "160213.440000", "160214.227500", "160215.015000", "160215.805000", "160216.592500", "160217.380000", "160218.167500", "160218.957500", "160219.745000", "160220.532500", "160221.320000", "160222.110000", "160222.897500", "160223.685000", "160224.475000", "160225.262500", "160226.050000", "160226.837500", "160227.627500", "160228.415000", "160229.202500", "160229.990000", "160230.780000", "160231.567500", "160232.355000", "160233.142500", "160233.932500", "160234.720000", "160235.507500", "160236.295000", "160237.085000", "160237.872500", "160238.660000", "160239.447500", "160240.237500", "160241.025000", "160241.812500", "160242.602500", "160243.390000", "160244.177500", "160244.965000", "160245.755000", "160246.542500", "160247.330000", "160248.117500", "160248.907500", "160249.695000", "160250.482500", "160251.270000", "160252.060000", "160252.847500", "160253.635000", "160254.422500", "160255.212500", "160256.000000", "160256.787500", "160257.575000", "160258.365000", "160259.152500", "160259.940000", "160300.730000", "160301.517500", "160302.305000", "160303.092500", "160303.882500", "160304.670000", "160305.457500", "160306.245000", "160307.035000", "160307.822500", "160308.610000", "160309.397500", "160310.187500", "160310.975000", "160311.762500", "160312.550000", "160313.340000", "160314.127500", "160314.915000", "160315.702500", "160316.492500", "160317.280000", "160318.067500", "160318.857500", "160319.645000", "160320.432500", "160321.220000", "160322.010000", "160322.797500", "160323.585000", "160324.372500", "160325.162500", "160325.950000", "160326.737500", "160327.525000", "160328.315000", "160329.102500", "160329.890000", "160330.677500", "160331.467500", "160332.255000", "160333.042500", "160333.830000", "160334.620000", "160335.407500", "160336.195000", "160336.985000", "160337.772500", "160338.560000", "160339.347500", "160340.137500", "160340.925000", "160341.712500", "160342.500000", "160343.290000", "160344.077500", "160344.865000", "160345.652500", "160346.442500", "160347.230000", "160348.017500", "160348.805000", "160349.595000", "160350.382500", "160351.170000", "160351.957500", "160352.747500", "160353.535000", "160354.322500", "160355.112500", "160355.900000", "160356.687500", "160357.475000", "160358.265000", "160359.052500", "160359.840000", "160400.627500", "160401.417500", "160402.205000", "160402.992500", "160403.780000", "160404.570000", "160405.357500", "160406.145000", "160406.932500", "160407.722500", "160408.510000", "160409.297500", "160410.085000", "160410.875000", "160411.662500", "160412.450000", "160413.240000", "160414.027500", "160414.815000", "160415.602500", "160416.392500", "160417.180000", "160417.967500", "160418.755000", "160419.545000", "160420.332500", "160421.120000", "160421.907500", "160422.697500", "160423.485000", "160424.272500", "160425.060000", "160425.850000", "160426.637500", "160427.425000", "160428.212500", "160429.002500", "160429.790000", "160430.577500", "160431.367500", "160432.155000", "160432.942500", "160433.730000", "160434.520000", "160435.307500", "160436.095000", "160436.882500", "160437.672500", "160438.460000", "160439.247500", "160440.035000", "160440.825000", "160441.612500", "160442.400000", "160443.187500", "160443.977500", "160444.765000", "160445.552500", "160446.340000", "160447.130000", "160447.917500", "160448.705000", "160449.495000", "160450.282500", "160451.070000", "160451.857500", "160452.647500", "160453.435000", "160454.222500", "160455.010000", "160455.800000", "160456.587500", "160457.375000", "160458.162500", "160458.952500", "160459.740000", "160500.527500", "160501.315000", "160502.105000", "160502.892500", "160503.680000", "160504.467500", "160505.257500", "160506.045000", "160506.832500", "160507.622500", "160508.410000", "160509.197500", "160509.985000", "160510.775000", "160511.562500", "160512.350000", "160513.137500", "160513.927500", "160514.715000", "160515.502500", "160516.290000", "160517.080000", "160517.867500", "160518.655000", "160519.442500", "160520.232500", "160521.020000", "160521.807500", "160522.597500", "160523.385000", "160524.172500", "160524.960000", "160525.750000", "160526.537500", "160527.325000", "160528.112500", "160528.902500", "160529.690000", "160530.477500", "160531.265000", "160532.055000", "160532.842500", "160533.630000", "160534.417500", "160535.207500", "160535.995000", "160536.782500", "160537.570000", "160538.360000", "160539.147500", "160539.935000", "160540.725000", "160541.512500", "160542.300000", "160543.087500", "160543.877500", "160544.665000", "160545.452500", "160546.240000", "160547.030000", "160547.817500", "160548.605000", "160549.392500", "160550.182500", "160550.970000", "160551.757500", "160552.545000", "160553.335000", "160554.122500", "160554.910000", "160555.697500", "160556.487500", "160557.275000", "160558.062500", "160558.852500", "160559.640000", "160600.427500", "160601.215000", "160602.005000", "160602.792500", "160603.580000", "160604.367500", "160605.157500", "160605.945000", "160606.732500", "160607.520000", "160608.310000", "160609.097500", "160609.885000", "160610.672500", "160611.462500", "160612.250000", "160613.037500", "160613.825000", "160614.615000", "160615.402500", "160616.190000", "160616.980000", "160617.767500", "160618.555000", "160619.342500", "160620.132500", "160620.920000", "160621.707500", "160622.495000", "160623.285000", "160624.072500", "160624.860000", "160625.647500", "160626.437500", "160627.225000", "160628.012500", "160628.800000", "160629.590000", "160630.377500", "160631.165000", "160631.952500", "160632.742500", "160633.530000", "160634.317500", "160635.107500", "160635.895000", "160636.682500", "160637.470000", "160638.260000", "160639.047500", "160639.835000", "160640.622500", "160641.412500", "160642.200000", "160642.987500", "160643.775000", "160644.565000", "160645.352500", "160646.140000", "160646.927500", "160647.717500", "160648.505000", "160649.292500", "160650.080000", "160650.870000", "160651.657500", "160652.445000", "160653.235000", "160654.022500", "160654.810000", "160655.597500", "160656.387500", "160657.175000", "160657.962500", "160658.750000", "160659.540000", "160700.327500", "160701.115000", "160701.902500", "160702.692500", "160703.480000", "160704.267500", "160705.055000", "160705.845000", "160706.632500", "160707.420000", "160708.207500", "160708.997500", "160709.785000", "160710.572500", "160711.362500", "160712.150000", "160712.937500", "160713.725000", "160714.515000", "160715.302500", "160716.090000", "160716.877500", "160717.667500", "160718.455000", "160719.242500", "160720.030000", "160720.820000", "160721.607500", "160722.395000", "160723.182500", "160723.972500", "160724.760000", "160725.547500", "160726.335000", "160727.125000", "160727.912500", "160728.700000", "160729.490000", "160730.277500", "160731.065000", "160731.852500", "160732.642500", "160733.430000", "160734.217500", "160735.005000", "160735.795000", "160736.582500", "160737.370000", "160738.157500", "160738.947500", "160739.735000", "160740.522500", "160741.310000", "160742.100000", "160742.887500", "160743.675000", "160744.462500", "160745.252500", "160746.040000", "160746.827500", "160747.617500", "160748.405000", "160749.192500", "160749.980000", "160750.770000", "160751.557500", "160752.345000", "160753.132500", "160753.922500", "160754.710000", "160755.497500", "160756.285000", "160757.075000", "160757.862500", "160758.650000", "160759.437500", "160800.227500", "160801.015000", "160801.802500", "160802.590000", "160803.380000", "160804.167500", "160804.955000", "160805.745000", "160806.532500", "160807.320000", "160808.107500", "160808.897500", "160809.685000", "160810.472500", "160811.260000", "160812.050000", "160812.837500", "160813.625000", "160814.412500", "160815.202500", "160815.990000", "160816.777500", "160817.565000", "160818.355000", "160819.142500", "160819.930000", "160820.717500", "160821.507500", "160822.295000", "160823.082500", "160823.872500"],
      "ContentTime": ["164418.031000", "164518.015000", "164518.015000", "164518.015000", "164518.031000", "164518.031000", "164518.031000", "164518.031000", "164518.031000", "164518.031000", "164518.031000", "164518.046000", "164518.046000", "164518.046000", "164518.046000", "164518.046000", "164518.046000", "164518.046000", "164518.062000", "164518.062000", "164518.062000", "164518.062000", "164518.062000", "164518.062000", "164518.062000", "164518.078000", "164518.078000", "164518.078000", "164518.078000", "164618.015000", "164618.015000", "164618.015000", "164618.015000", "164618.015000", "164618.015000", "164618.031000", "164618.031000", "164618.031000", "164618.031000", "164618.031000", "164618.031000", "164618.031000", "164618.046000", "164618.046000", "164618.046000", "164618.046000", "164618.046000", "164618.046000", "164618.046000", "164618.062000", "164618.062000", "164618.062000", "164618.062000", "164618.062000", "164618.062000", "164618.062000", "164718.015000", "164718.015000", "164718.015000", "164718.015000", "164718.015000", "164718.015000", "164718.031000", "164718.031000", "164718.031000", "164718.031000", "164718.031000", "164718.046000", "164718.046000", "164718.046000", "164718.046000", "164718.046000", "164718.046000", "164718.046000", "164718.062000", "164718.062000", "164718.062000", "164718.062000", "164718.078000", "164718.078000", "164718.078000", "164718.078000", "164718.078000", "164818.015000", "164818.015000", "164818.015000", "164818.015000", "164818.015000", "164818.015000", "164818.031000", "164818.031000", "164818.031000", "164818.031000", "164818.031000", "164818.031000", "164818.031000", "164818.046000", "164818.046000", "164818.046000", "164818.046000", "164818.046000", "164818.046000", "164818.046000", "164818.062000", "164818.062000", "164818.062000", "164818.062000", "164818.062000", "164818.062000", "164818.062000", "164818.078000", "164918.015000", "164918.015000", "164918.015000", "164918.015000", "164918.015000", "164918.015000", "164918.031000", "164918.031000", "164918.031000", "164918.031000", "164918.031000", "164918.031000", "164918.031000", "164918.046000", "164918.046000", "164918.046000", "164918.046000", "164918.046000", "164918.046000", "164918.046000", "164918.062000", "164918.062000", "164918.062000", "164918.062000", "164918.062000", "164918.062000", "164918.062000", "165018.015000", "165018.015000", "165018.015000", "165018.015000", "165018.015000", "165018.015000", "165018.031000", "165018.031000", "165018.031000", "165018.031000", "165018.031000", "165018.031000", "165018.031000", "165018.046000", "165018.046000", "165018.046000", "165018.046000", "165018.046000", "165018.046000", "165018.062000", "165018.062000", "165018.062000", "165018.062000", "165018.078000", "165018.078000", "165018.078000", "165018.078000", "165018.078000", "165058.015000", "165058.015000", "165058.015000", "165058.015000", "165058.015000", "165058.015000", "165058.031000", "165058.031000", "165058.031000", "165058.031000", "165058.031000", "165058.031000", "165058.031000", "165058.046000", "165058.046000", "165058.046000", "165058.046000", "165058.046000", "165158.015000", "165158.015000", "165158.015000", "165158.015000", "165158.015000", "165158.015000", "165158.031000", "165158.031000", "165158.031000", "165158.031000", "165158.031000", "165158.031000", "165158.031000", "165158.046000", "165158.046000", "165158.046000", "165158.046000", "165158.046000", "165158.046000", "165158.046000", "165158.062000", "165158.062000", "165158.062000", "165158.062000", "165158.078000", "165158.078000", "165158.078000", "165158.078000", "165258.015000", "165258.015000", "165258.015000", "165258.015000", "165258.015000", "165258.015000", "165258.031000", "165258.031000", "165258.031000", "165258.031000", "165258.031000", "165258.031000", "165258.046000", "165258.046000", "165258.046000", "165258.046000", "165258.046000", "165258.046000", "165258.046000", "165258.062000", "165258.062000", "165258.062000", "165258.062000", "165258.062000", "165258.062000", "165258.062000", "165258.078000", "165358.015000", "165358.015000", "165358.015000", "165358.015000", "165358.015000", "165358.031000", "165358.031000", "165358.031000", "165358.031000", "165358.031000", "165358.031000", "165358.031000", "165358.046000", "165358.046000", "165358.046000", "165358.046000", "165358.046000", "165358.046000", "165358.046000", "165358.062000", "165358.062000", "165358.062000", "165358.062000", "165358.062000", "165358.078000", "165358.078000", "165358.078000", "165458.015000", "165458.015000", "165458.015000", "165458.015000", "165458.015000", "165458.031000", "165458.031000", "165458.031000", "165458.031000", "165458.031000", "165458.046000", "165458.046000", "165458.046000", "165458.046000", "165458.046000", "165458.046000", "165458.062000", "165458.062000", "165458.062000", "165458.062000", "165458.062000", "165458.078000", "165458.078000", "165458.078000", "165458.078000", "165458.078000", "165458.078000", "165458.078000", "165558.015000", "165558.015000", "165558.015000", "165558.015000", "165558.015000", "165558.015000", "165558.031000", "165558.031000", "165558.031000", "165558.031000", "165558.031000", "165558.031000", "165558.031000", "165558.046000", "165558.046000", "165558.046000", "165558.046000", "165558.046000", "165558.046000", "165558.062000", "165558.062000", "165558.062000", "165558.062000", "165558.062000", "165558.078000", "165558.078000", "165558.078000", "165658.015000", "165658.015000", "165658.015000", "165658.015000", "165658.015000", "165658.015000", "165658.031000", "165658.031000", "165658.031000", "165658.031000", "165658.031000", "165658.031000", "165658.046000", "165658.046000", "165658.046000", "165658.046000", "165658.046000", "165658.046000", "165658.046000", "165658.062000", "165658.062000", "165658.062000", "165658.062000", "165658.062000", "165658.062000", "165658.062000", "165658.078000", "165758.015000", "165758.015000", "165758.015000", "165758.015000", "165758.015000", "165758.015000", "165758.031000", "165758.031000", "165758.031000", "165758.031000", "165758.031000", "165758.031000", "165758.031000", "165758.046000", "165758.046000", "165758.046000", "165758.046000", "165758.046000", "165758.046000", "165758.046000", "165758.062000", "165758.062000", "165758.062000", "165758.062000", "165758.062000", "165758.062000", "165758.062000", "165758.078000", "165858.015000", "165858.015000", "165858.015000", "165858.015000", "165858.015000", "165858.015000", "165858.031000", "165858.031000", "165858.031000", "165858.031000", "165858.031000", "165858.031000", "165858.046000", "165858.046000", "165858.046000", "165858.046000", "165858.046000", "165858.046000", "165858.062000", "165858.062000", "165858.062000", "165858.062000", "165858.062000", "165858.062000", "165858.062000", "165858.078000", "165858.078000", "165858.078000", "165958.015000", "165958.015000", "165958.015000", "165958.015000", "165958.015000", "165958.015000", "165958.031000", "165958.031000", "165958.031000", "165958.031000", "165958.031000", "165958.031000", "165958.031000", "165958.046000", "165958.046000", "165958.046000", "165958.046000", "165958.046000", "165958.046000", "165958.046000", "165958.062000", "165958.062000", "165958.062000", "165958.062000", "165958.062000", "165958.062000", "165958.062000", "165958.078000", "170038.015000", "170038.015000", "170038.015000", "170038.015000", "170038.015000", "170038.015000", "170038.031000", "170038.031000", "170038.031000", "170038.031000", "170038.031000", "170038.031000", "170038.046000", "170038.046000", "170038.046000", "170038.046000", "170038.046000", "170038.046000", "170138.015000", "170138.015000", "170138.015000", "170138.015000", "170138.015000", "170138.015000", "170138.031000", "170138.031000", "170138.031000", "170138.031000", "170138.031000", "170138.031000", "170138.031000", "170138.046000", "170138.046000", "170138.046000", "170138.046000", "170138.046000", "170138.046000", "170138.046000", "170138.062000", "170138.062000", "170138.062000", "170138.062000", "170138.062000", "170138.062000", "170138.062000", "170138.078000", "170238.015000", "170238.015000", "170238.015000", "170238.015000", "170238.015000", "170238.015000", "170238.031000", "170238.031000", "170238.031000", "170238.031000", "170238.031000", "170238.031000", "170238.031000", "170238.046000", "170238.046000", "170238.046000", "170238.046000", "170238.046000", "170238.046000", "170238.062000", "170238.062000", "170238.062000", "170238.062000", "170238.062000", "170238.062000", "170238.062000", "170238.078000", "170238.078000", "170338.031000", "170338.031000", "170338.031000", "170338.031000", "170338.031000", "170338.031000", "170338.031000", "170338.046000", "170338.046000", "170338.046000", "170338.046000", "170338.046000", "170338.046000", "170338.046000", "170338.062000", "170338.062000", "170338.062000", "170338.062000", "170338.062000", "170338.062000", "170338.062000", "170338.078000", "170338.078000", "170338.078000", "170338.078000", "170338.078000", "170338.078000", "170338.078000", "170438.015000", "170438.015000", "170438.015000", "170438.015000", "170438.031000", "170438.031000", "170438.031000", "170438.031000", "170438.031000", "170438.031000", "170438.031000", "170438.046000", "170438.046000", "170438.046000", "170438.046000", "170438.046000", "170438.046000", "170438.046000", "170438.062000", "170438.062000", "170438.062000", "170438.062000", "170438.062000", "170438.062000", "170438.062000", "170438.078000", "170438.078000", "170519.031000", "170519.031000", "170519.031000", "170519.031000", "170519.031000", "170519.046000", "170519.046000", "170519.046000", "170519.046000", "170519.046000", "170519.046000", "170519.046000", "170519.062000", "170519.062000", "170519.062000", "170519.062000", "170519.062000", "170519.062000", "170519.062000", "170519.078000"],
      "DataSetTrailingPadding": [
        "\u0000\u0000\u0000\u0000\u0000\u0000\u0000\u0000\u0000\u0000\u0000\u0000\u0000\u0000\u0000\u0000\u0000\u0000\u0000\u0000\u0000\u0000\u0000\u0000\u0000\u0000\u0000\u0000\u0000\u0000\u0000\u0000\u0000\u0000\u0000\u0000\u0000\u0000\u0000\u0000\u0000\u0000\u0000\u0000\u0000\u0000\u0000\u0000\u0000\u0000\u0000\u0000\u0000\u0000\u0000\u0000\u0000\u0000\u0000\u0000\u0000\u0000\u0000\u0000\u0000\u0000\u0000\u0000\u0000\u0000\u0000\u0000\u0000\u0000\u0000\u0000\u0000\u0000\u0000\u0000\u0000\u0000\u0000\u0000\u0000\u0000\u0000\u0000\u0000\u0000\u0000\u0000\u0000\u0000\u0000\u0000\u0000\u0000\u0000\u0000\u0000\u0000\u0000\u0000\u0000\u0000\u0000\u0000\u0000\u0000\u0000\u0000",
        "\u0000\u0000\u0000\u0000\u0000\u0000\u0000\u0000\u0000\u0000\u0000\u0000\u0000\u0000\u0000\u0000\u0000\u0000\u0000\u0000\u0000\u0000\u0000\u0000\u0000\u0000\u0000\u0000\u0000\u0000\u0000\u0000\u0000\u0000\u0000\u0000\u0000\u0000\u0000\u0000\u0000\u0000\u0000\u0000\u0000\u0000\u0000\u0000\u0000\u0000\u0000\u0000\u0000\u0000\u0000\u0000\u0000\u0000\u0000\u0000\u0000\u0000\u0000\u0000\u0000\u0000\u0000\u0000\u0000\u0000\u0000\u0000\u0000\u0000\u0000\u0000\u0000\u0000\u0000\u0000\u0000\u0000\u0000\u0000\u0000\u0000\u0000\u0000\u0000\u0000\u0000\u0000\u0000\u0000\u0000\u0000\u0000\u0000\u0000\u0000\u0000\u0000\u0000\u0000\u0000\u0000\u0000\u0000\u0000\u0000\u0000\u0000",
        "\u0000\u0000\u0000\u0000\u0000\u0000\u0000\u0000\u0000\u0000\u0000\u0000\u0000\u0000\u0000\u0000\u0000\u0000\u0000\u0000\u0000\u0000\u0000\u0000\u0000\u0000\u0000\u0000\u0000\u0000\u0000\u0000\u0000\u0000\u0000\u0000\u0000\u0000\u0000\u0000\u0000\u0000\u0000\u0000\u0000\u0000\u0000\u0000\u0000\u0000\u0000\u0000\u0000\u0000\u0000\u0000\u0000\u0000\u0000\u0000\u0000\u0000\u0000\u0000\u0000\u0000\u0000\u0000\u0000\u0000\u0000\u0000\u0000\u0000\u0000\u0000\u0000\u0000\u0000\u0000\u0000\u0000\u0000\u0000\u0000\u0000\u0000\u0000\u0000\u0000\u0000\u0000\u0000\u0000\u0000\u0000\u0000\u0000\u0000\u0000\u0000\u0000\u0000\u0000\u0000\u0000\u0000\u0000\u0000\u0000\u0000\u0000",
