{
  "AcquisitionMatrixPE": 104,
  "AcquisitionNumber": 1,
  "AcquisitionTime": "15:29:55.707500",
  "BandwidthPerPixelPhaseEncode": 13.935,
  "BaseResolution": 104,
  "CoilString": "C:HEA;HEP",
  "ConversionSoftware": "dcm2niix",
  "ConversionSoftwareVersion": "v1.0.20210317",
  "DerivedVendorReportedEchoSpacing": 0.000690017,
  "DeviceSerialNumber": "35450",
  "DwellTime": 2.5e-06,
  "EchoTime": 0.0348,
  "EffectiveEchoSpacing": 0.000690017,
  "FlipAngle": 55,
  "ImageComments": "Unaliased MB8/PE3 (remote)",
  "ImageOrientationPatientDICOM": [0.999976, 0.000596284, 0.00695574, 3.36649e-08, 0.996345, -0.0854169],
  "ImageType": [
    "ORIGINAL",
    "PRIMARY",
    "M",
    "MB",
    "ND",
    "MOSAIC"
],
  "ImagingFrequency": 123.235,
  "InPlanePhaseEncodingDirectionDICOM": "COL",
  "InstitutionAddress": "Univeristy Ave. 197,Newark,North East,US,07102-1814",
  "InstitutionName": "RUBIC",
  "InstitutionalDepartmentName": "Department",
  "MRAcquisitionType": "2D",
  "MagneticFieldStrength": 3,
  "Manufacturer": "Siemens",
  "ManufacturersModelName": "TrioTim",
  "Modality": "MR",
  "MultibandAccelerationFactor": 8,
  "PartialFourier": 0.875,
  "PatientPosition": "HFS",
  "PercentPhaseFOV": 100,
  "PercentSampling": 100,
  "PhaseEncodingDirection": "j-",
  "PhaseEncodingSteps": 91,
  "PhaseResolution": 1,
  "PixelBandwidth": 1923,
  "ProcedureStepDescription": "Cole^Michael",
  "ProtocolName": "cmrr_mbep2d_bold_2mm_MB8_Task_8x",
  "PulseSequenceDetails": "%CustomerSeq%\\cmrr_mbep2d_bold",
  "ReceiveCoilName": "32Ch_Head",
  "ReconMatrixPE": 104,
  "RepetitionTime": 0.785,
  "SAR": 0.135054,
  "ScanOptions": "PFP\\FS",
  "ScanningSequence": "EP",
  "SequenceName": "epfid2d1_104",
  "SequenceVariant": "SK\\SS",
  "SeriesDescription": "cmrr_mbep2d_bold_2mm_MB8_Task_8x",
  "SeriesNumber": 21,
  "ShimSetting": [2123, -356, -7519, 575, 113, 169, -261, 80],
  "SliceThickness": 2,
  "SliceTiming": [0, 0.4375, 0.0875, 0.525, 0.175, 0.6125, 0.2625, 0.7, 0.35, 0, 0.4375, 0.0875, 0.525, 0.175, 0.6125, 0.2625, 0.7, 0.35, 0, 0.4375, 0.0875, 0.525, 0.175, 0.6125, 0.2625, 0.7, 0.35, 0, 0.4375, 0.0875, 0.525, 0.175, 0.6125, 0.2625, 0.7, 0.35, 0, 0.4375, 0.0875, 0.525, 0.175, 0.6125, 0.2625, 0.7, 0.35, 0, 0.4375, 0.0875, 0.525, 0.175, 0.6125, 0.2625, 0.7, 0.35, 0, 0.4375, 0.0875, 0.525, 0.175, 0.6125, 0.2625, 0.7, 0.35, 0, 0.4375, 0.0875, 0.525, 0.175, 0.6125, 0.2625, 0.7, 0.35],
  "SoftwareVersions": "syngo MR B19",
  "SpacingBetweenSlices": 2,
  "StationName": "MRC35450",
  "TaskName": "cpro",
  "TotalReadoutTime": 0.0710717,
  "TxRefAmp": 344.365,
  "dcmmeta_affine": [
    [-1.9999512434005737, 6.732970803113858e-08, 0.013962511904537678, 103.50179290771484],
    [-0.0011925677536055446, 1.9926905632019043, -0.1708296686410904, -82.31025695800781],
    [0.013911489397287369, 0.17083384096622467, 1.9926420450210571, -110.3884048461914],
    [0.0, 0.0, 0.0, 1.0]
],
  "dcmmeta_reorient_transform": [
    [0.0, -1.0, 0.0, 103.0],
    [1.0, 0.0, 0.0, 0.0],
    [0.0, 0.0, 1.0, 0.0],
    [0.0, 0.0, 0.0, 1.0]
],
  "dcmmeta_shape": [104, 104, 72, 581],
  "dcmmeta_slice_dim": 2,
  "dcmmeta_version": 0.6,
  "global": {
    "const": {
      "AcquisitionMatrix": [104, 0, 0, 104],
      "AngioFlag": "N",
      "BitsAllocated": 16,
      "BitsStored": 12,
      "Columns": 936,
      "EchoNumbers": 1,
      "EchoTime": 34.8,
      "EchoTrainLength": 1,
      "FlipAngle": 55.0,
      "HighBit": 11,
      "ImageOrientationPatient": [0.99997563073306, 0.00059628386872, 0.00695574478872, 3.3664854e-08, 0.9963452965109, -0.0854169194048],
      "ImagePositionPatient": [-935.48155239231, -952.39227071238, -27.512824690175],
      "ImageType": [
        "ORIGINAL",
        "PRIMARY",
        "M",
        "MB",
        "ND",
        "MOSAIC"
],
      "ImagedNucleus": "1H",
      "ImagingFrequency": 123.234711,
      "InPlanePhaseEncodingDirection": "COL",
      "MRAcquisitionType": "2D",
      "MagneticFieldStrength": 3.0,
      "Manufacturer": "SIEMENS",
      "ManufacturerModelName": "TrioTim",
      "Modality": "MR",
      "NumberOfAverages": 1.0,
      "NumberOfPhaseEncodingSteps": 91,
      "PercentPhaseFieldOfView": 100.0,
      "PercentSampling": 100.0,
      "PerformedProcedureStepStartTime": "134130.437000",
      "PhotometricInterpretation": "MONOCHROME2",
      "PixelBandwidth": 1923.0,
      "PixelRepresentation": 0,
      "PixelSpacing": [2.0, 2.0],
      "ProtocolName": "cmrr_mbep2d_bold_2mm_MB8_Task_8x",
      "RepetitionTime": 785.0,
      "Rows": 936,
      "SAR": 0.13505422233751,
      "SamplesPerPixel": 1,
      "ScanOptions": [
        "PFP",
        "FS"
],
      "ScanningSequence": "EP",
      "SequenceName": "epfid2d1_104",
      "SequenceVariant": [
        "SK",
        "SS"
],
      "SeriesDescription": "cmrr_mbep2d_bold_2mm_MB8_Task_8x",
      "SeriesNumber": 21,
      "SeriesTime": "153016.515000",
      "SliceLocation": -102.22920054448,
      "SliceThickness": 2.0,
      "SmallestImagePixelValue": 0,
      "SoftwareVersions": "syngo MR B19",
      "SpacingBetweenSlices": 1.9999999535702,
      "SpecificCharacterSet": "ISO_IR 100",
      "StudyID": "1",
      "StudyTime": "134130.406000",
      "TransmitCoilName": "Body",
      "VariableFlipAngleFlag": "N",
      "WindowCenterWidthExplanation": "Algo1",
      "dBdt": 0.0},
    "slices": {}
  },
  "time": {
    "samples": {
      "AcquisitionNumber": [1, 2, 3, 4, 5, 6, 7, 8, 9, 10, 11, 12, 13, 14, 15, 16, 17, 18, 19, 20, 21, 22, 23, 24, 25, 26, 27, 28, 29, 30, 31, 32, 33, 34, 35, 36, 37, 38, 39, 40, 41, 42, 43, 44, 45, 46, 47, 48, 49, 50, 51, 52, 53, 54, 55, 56, 57, 58, 59, 60, 61, 62, 63, 64, 65, 66, 67, 68, 69, 70, 71, 72, 73, 74, 75, 76, 77, 78, 79, 80, 81, 82, 83, 84, 85, 86, 87, 88, 89, 90, 91, 92, 93, 94, 95, 96, 97, 98, 99, 100, 101, 102, 103, 104, 105, 106, 107, 108, 109, 110, 111, 112, 113, 114, 115, 116, 117, 118, 119, 120, 121, 122, 123, 124, 125, 126, 127, 128, 129, 130, 131, 132, 133, 134, 135, 136, 137, 138, 139, 140, 141, 142, 143, 144, 145, 146, 147, 148, 149, 150, 151, 152, 153, 154, 155, 156, 157, 158, 159, 160, 161, 162, 163, 164, 165, 166, 167, 168, 169, 170, 171, 172, 173, 174, 175, 176, 177, 178, 179, 180, 181, 182, 183, 184, 185, 186, 187, 188, 189, 190, 191, 192, 193, 194, 195, 196, 197, 198, 199, 200, 201, 202, 203, 204, 205, 206, 207, 208, 209, 210, 211, 212, 213, 214, 215, 216, 217, 218, 219, 220, 221, 222, 223, 224, 225, 226, 227, 228, 229, 230, 231, 232, 233, 234, 235, 236, 237, 238, 239, 240, 241, 242, 243, 244, 245, 246, 247, 248, 249, 250, 251, 252, 253, 254, 255, 256, 257, 258, 259, 260, 261, 262, 263, 264, 265, 266, 267, 268, 269, 270, 271, 272, 273, 274, 275, 276, 277, 278, 279, 280, 281, 282, 283, 284, 285, 286, 287, 288, 289, 290, 291, 292, 293, 294, 295, 296, 297, 298, 299, 300, 301, 302, 303, 304, 305, 306, 307, 308, 309, 310, 311, 312, 313, 314, 315, 316, 317, 318, 319, 320, 321, 322, 323, 324, 325, 326, 327, 328, 329, 330, 331, 332, 333, 334, 335, 336, 337, 338, 339, 340, 341, 342, 343, 344, 345, 346, 347, 348, 349, 350, 351, 352, 353, 354, 355, 356, 357, 358, 359, 360, 361, 362, 363, 364, 365, 366, 367, 368, 369, 370, 371, 372, 373, 374, 375, 376, 377, 378, 379, 380, 381, 382, 383, 384, 385, 386, 387, 388, 389, 390, 391, 392, 393, 394, 395, 396, 397, 398, 399, 400, 401, 402, 403, 404, 405, 406, 407, 408, 409, 410, 411, 412, 413, 414, 415, 416, 417, 418, 419, 420, 421, 422, 423, 424, 425, 426, 427, 428, 429, 430, 431, 432, 433, 434, 435, 436, 437, 438, 439, 440, 441, 442, 443, 444, 445, 446, 447, 448, 449, 450, 451, 452, 453, 454, 455, 456, 457, 458, 459, 460, 461, 462, 463, 464, 465, 466, 467, 468, 469, 470, 471, 472, 473, 474, 475, 476, 477, 478, 479, 480, 481, 482, 483, 484, 485, 486, 487, 488, 489, 490, 491, 492, 493, 494, 495, 496, 497, 498, 499, 500, 501, 502, 503, 504, 505, 506, 507, 508, 509, 510, 511, 512, 513, 514, 515, 516, 517, 518, 519, 520, 521, 522, 523, 524, 525, 526, 527, 528, 529, 530, 531, 532, 533, 534, 535, 536, 537, 538, 539, 540, 541, 542, 543, 544, 545, 546, 547, 548, 549, 550, 551, 552, 553, 554, 555, 556, 557, 558, 559, 560, 561, 562, 563, 564, 565, 566, 567, 568, 569, 570, 571, 572, 573, 574, 575, 576, 577, 578, 579, 580, 581],
      "AcquisitionTime": ["152955.707500", "152956.495000", "152957.282500", "152958.072500", "152958.860000", "152959.647500", "153000.435000", "153001.225000", "153002.012500", "153002.800000", "153003.587500", "153004.377500", "153005.165000", "153005.952500", "153006.742500", "153007.530000", "153008.317500", "153009.105000", "153009.895000", "153010.682500", "153011.470000", "153012.257500", "153013.047500", "153013.835000", "153014.622500", "153015.410000", "153016.200000", "153016.987500", "153017.775000", "153018.562500", "153019.352500", "153020.140000", "153020.927500", "153021.715000", "153022.505000", "153023.292500", "153024.080000", "153024.870000", "153025.657500", "153026.445000", "153027.232500", "153028.022500", "153028.810000", "153029.597500", "153030.385000", "153031.175000", "153031.962500", "153032.750000", "153033.537500", "153034.327500", "153035.115000", "153035.902500", "153036.690000", "153037.480000", "153038.267500", "153039.055000", "153039.842500", "153040.632500", "153041.420000", "153042.207500", "153042.997500", "153043.785000", "153044.572500", "153045.360000", "153046.150000", "153046.937500", "153047.725000", "153048.512500", "153049.302500", "153050.090000", "153050.877500", "153051.665000", "153052.455000", "153053.242500", "153054.030000", "153054.817500", "153055.607500", "153056.395000", "153057.182500", "153057.970000", "153058.760000", "153059.547500", "153100.335000", "153101.125000", "153101.912500", "153102.700000", "153103.487500", "153104.277500", "153105.065000", "153105.852500", "153106.640000", "153107.430000", "153108.217500", "153109.005000", "153109.792500", "153110.582500", "153111.370000", "153112.157500", "153112.945000", "153113.735000", "153114.522500", "153115.310000", "153116.097500", "153116.887500", "153117.675000", "153118.462500", "153119.252500", "153120.040000", "153120.827500", "153121.615000", "153122.405000", "153123.192500", "153123.980000", "153124.767500", "153125.557500", "153126.345000", "153127.132500", "153127.920000", "153128.710000", "153129.497500", "153130.285000", "153131.072500", "153131.862500", "153132.650000", "153133.437500", "153134.225000", "153135.015000", "153135.802500", "153136.590000", "153137.380000", "153138.167500", "153138.955000", "153139.742500", "153140.532500", "153141.320000", "153142.107500", "153142.895000", "153143.685000", "153144.472500", "153145.260000", "153146.047500", "153146.837500", "153147.625000", "153148.412500", "153149.200000", "153149.990000", "153150.777500", "153151.565000", "153152.352500", "153153.142500", "153153.930000", "153154.717500", "153155.507500", "153156.295000", "153157.082500", "153157.870000", "153158.660000", "153159.447500", "153200.235000", "153201.022500", "153201.812500", "153202.600000", "153203.387500", "153204.175000", "153204.965000", "153205.752500", "153206.540000", "153207.327500", "153208.117500", "153208.905000", "153209.692500", "153210.482500", "153211.270000", "153212.057500", "153212.845000", "153213.635000", "153214.422500", "153215.210000", "153215.997500", "153216.787500", "153217.575000", "153218.362500", "153219.150000", "153219.940000", "153220.727500", "153221.515000", "153222.302500", "153223.092500", "153223.880000", "153224.667500", "153225.455000", "153226.245000", "153227.032500", "153227.820000", "153228.610000", "153229.397500", "153230.185000", "153230.972500", "153231.762500", "153232.550000", "153233.337500", "153234.125000", "153234.915000", "153235.702500", "153236.490000", "153237.277500", "153238.067500", "153238.855000", "153239.642500", "153240.430000", "153241.220000", "153242.007500", "153242.795000", "153243.582500", "153244.372500", "153245.160000", "153245.947500", "153246.737500", "153247.525000", "153248.312500", "153249.100000", "153249.890000", "153250.677500", "153251.465000", "153252.252500", "153253.042500", "153253.830000", "153254.617500", "153255.405000", "153256.195000", "153256.982500", "153257.770000", "153258.557500", "153259.347500", "153300.135000", "153300.922500", "153301.710000", "153302.500000", "153303.287500", "153304.075000", "153304.865000", "153305.652500", "153306.440000", "153307.227500", "153308.017500", "153308.805000", "153309.592500", "153310.380000", "153311.170000", "153311.957500", "153312.745000", "153313.532500", "153314.322500", "153315.110000", "153315.897500", "153316.685000", "153317.475000", "153318.262500", "153319.050000", "153319.837500", "153320.627500", "153321.415000", "153322.202500", "153322.992500", "153323.780000", "153324.567500", "153325.355000", "153326.145000", "153326.932500", "153327.720000", "153328.507500", "153329.297500", "153330.085000", "153330.872500", "153331.660000", "153332.450000", "153333.237500", "153334.025000", "153334.812500", "153335.602500", "153336.390000", "153337.177500", "153337.965000", "153338.755000", "153339.542500", "153340.330000", "153341.120000", "153341.907500", "153342.695000", "153343.482500", "153344.272500", "153345.060000", "153345.847500", "153346.635000", "153347.425000", "153348.212500", "153349.000000", "153349.787500", "153350.577500", "153351.365000", "153352.152500", "153352.940000", "153353.730000", "153354.517500", "153355.305000", "153356.092500", "153356.882500", "153357.670000", "153358.457500", "153359.247500", "153400.035000", "153400.822500", "153401.610000", "153402.400000", "153403.187500", "153403.975000", "153404.762500", "153405.552500", "153406.340000", "153407.127500", "153407.915000", "153408.705000", "153409.492500", "153410.280000", "153411.067500", "153411.857500", "153412.645000", "153413.432500", "153414.220000", "153415.010000", "153415.797500", "153416.585000", "153417.375000", "153418.162500", "153418.950000", "153419.737500", "153420.527500", "153421.315000", "153422.102500", "153422.890000", "153423.680000", "153424.467500", "153425.255000", "153426.042500", "153426.832500", "153427.620000", "153428.407500", "153429.195000", "153429.985000", "153430.772500", "153431.560000", "153432.347500", "153433.137500", "153433.925000", "153434.712500", "153435.502500", "153436.290000", "153437.077500", "153437.865000", "153438.655000", "153439.442500", "153440.230000", "153441.017500", "153441.807500", "153442.595000", "153443.382500", "153444.170000", "153444.960000", "153445.747500", "153446.535000", "153447.322500", "153448.112500", "153448.900000", "153449.687500", "153450.475000", "153451.265000", "153452.052500", "153452.840000", "153453.630000", "153454.417500", "153455.205000", "153455.992500", "153456.782500", "153457.570000", "153458.357500", "153459.145000", "153459.935000", "153500.722500", "153501.510000", "153502.297500", "153503.087500", "153503.875000", "153504.662500", "153505.450000", "153506.240000", "153507.027500", "153507.815000", "153508.602500", "153509.392500", "153510.180000", "153510.967500", "153511.757500", "153512.545000", "153513.332500", "153514.120000", "153514.910000", "153515.697500", "153516.485000", "153517.272500", "153518.062500", "153518.850000", "153519.637500", "153520.425000", "153521.215000", "153522.002500", "153522.790000", "153523.577500", "153524.367500", "153525.155000", "153525.942500", "153526.732500", "153527.520000", "153528.307500", "153529.095000", "153529.885000", "153530.672500", "153531.460000", "153532.247500", "153533.037500", "153533.825000", "153534.612500", "153535.400000", "153536.190000", "153536.977500", "153537.765000", "153538.552500", "153539.342500", "153540.130000", "153540.917500", "153541.705000", "153542.495000", "153543.282500", "153544.070000", "153544.860000", "153545.647500", "153546.435000", "153547.222500", "153548.012500", "153548.800000", "153549.587500", "153550.375000", "153551.165000", "153551.952500", "153552.740000", "153553.527500", "153554.317500", "153555.105000", "153555.892500", "153556.680000", "153557.470000", "153558.257500", "153559.045000", "153559.832500", "153600.622500", "153601.410000", "153602.197500", "153602.987500", "153603.775000", "153604.562500", "153605.350000", "153606.140000", "153606.927500", "153607.715000", "153608.502500", "153609.292500", "153610.080000", "153610.867500", "153611.655000", "153612.445000", "153613.232500", "153614.020000", "153614.807500", "153615.597500", "153616.385000", "153617.172500", "153617.960000", "153618.750000", "153619.537500", "153620.325000", "153621.115000", "153621.902500", "153622.690000", "153623.477500", "153624.267500", "153625.055000", "153625.842500", "153626.630000", "153627.420000", "153628.207500", "153628.995000", "153629.782500", "153630.572500", "153631.360000", "153632.147500", "153632.935000", "153633.725000", "153634.512500", "153635.300000", "153636.087500", "153636.877500", "153637.665000", "153638.452500", "153639.242500", "153640.030000", "153640.817500", "153641.605000", "153642.395000", "153643.182500", "153643.970000", "153644.757500", "153645.547500", "153646.335000", "153647.122500", "153647.910000", "153648.700000", "153649.487500", "153650.275000", "153651.062500", "153651.852500", "153652.640000", "153653.427500", "153654.215000", "153655.005000", "153655.792500", "153656.580000", "153657.370000", "153658.157500", "153658.945000", "153659.732500", "153700.522500", "153701.310000", "153702.097500", "153702.885000", "153703.675000", "153704.462500", "153705.250000", "153706.037500", "153706.827500", "153707.615000", "153708.402500", "153709.190000", "153709.980000", "153710.767500", "153711.555000", "153712.342500", "153713.132500", "153713.920000", "153714.707500", "153715.497500", "153716.285000", "153717.072500", "153717.860000", "153718.650000", "153719.437500", "153720.225000", "153721.012500", "153721.802500", "153722.590000", "153723.377500", "153724.165000", "153724.955000", "153725.742500", "153726.530000", "153727.317500", "153728.107500", "153728.895000", "153729.682500", "153730.470000", "153731.260000", "153732.047500", "153732.835000"],
      "ContentTime": ["153016.515000", "153016.515000", "153016.531000", "153016.531000", "153016.531000", "153016.531000", "153016.531000", "153016.531000", "153016.531000", "153016.531000", "153016.546000", "153016.546000", "153016.546000", "153016.546000", "153016.546000", "153016.546000", "153016.546000", "153016.562000", "153016.562000", "153016.562000", "153016.562000", "153016.562000", "153016.562000", "153036.500000", "153036.500000", "153036.500000", "153036.500000", "153036.500000", "153036.500000", "153036.500000", "153036.515000", "153036.515000", "153036.515000", "153036.515000", "153036.515000", "153036.515000", "153036.515000", "153036.531000", "153036.531000", "153036.531000", "153036.531000", "153036.531000", "153036.531000", "153036.531000", "153036.531000", "153036.546000", "153036.546000", "153036.546000", "153036.546000", "153056.500000", "153056.500000", "153056.500000", "153056.500000", "153056.500000", "153056.500000", "153056.500000", "153056.515000", "153056.515000", "153056.515000", "153056.515000", "153056.515000", "153056.515000", "153056.515000", "153056.515000", "153056.531000", "153056.531000", "153056.531000", "153056.531000", "153056.531000", "153056.546000", "153056.546000", "153056.546000", "153056.546000", "153056.546000", "153116.500000", "153116.500000", "153116.500000", "153116.500000", "153116.500000", "153116.515000", "153116.515000", "153116.515000", "153116.515000", "153116.515000", "153116.515000", "153116.515000", "153116.531000", "153116.531000", "153116.531000", "153116.531000", "153116.531000", "153116.531000", "153116.531000", "153116.546000", "153116.546000", "153116.546000", "153116.546000", "153116.546000", "153116.546000", "153116.546000", "153136.500000", "153136.500000", "153136.500000", "153136.500000", "153136.500000", "153136.500000", "153136.500000", "153136.515000", "153136.515000", "153136.515000", "153136.515000", "153136.515000", "153136.515000", "153136.515000", "153136.531000", "153136.531000", "153136.531000", "153136.531000", "153136.531000", "153136.531000", "153136.531000", "153136.531000", "153136.546000", "153136.546000", "153136.546000", "153156.500000", "153156.500000", "153156.500000", "153156.500000", "153156.500000", "153156.500000", "153156.515000", "153156.515000", "153156.515000", "153156.515000", "153156.515000", "153156.515000", "153156.515000", "153156.531000", "153156.531000", "153156.531000", "153156.531000", "153156.531000", "153156.531000", "153156.531000", "153156.546000", "153156.546000", "153156.546000", "153156.546000", "153156.546000", "153156.546000", "153216.500000", "153216.500000", "153216.500000", "153216.500000", "153216.500000", "153216.500000", "153216.500000", "153216.515000", "153216.515000", "153216.515000", "153216.515000", "153216.515000", "153216.515000", "153216.515000", "153216.531000", "153216.531000", "153216.531000", "153216.531000", "153216.531000", "153216.531000", "153216.531000", "153216.546000", "153216.546000", "153216.546000", "153216.546000", "153236.500000", "153236.500000", "153236.500000", "153236.500000", "153236.500000", "153236.500000", "153236.500000", "153236.515000", "153236.515000", "153236.515000", "153236.515000", "153236.515000", "153236.515000", "153236.515000", "153236.531000", "153236.531000", "153236.531000", "153236.531000", "153236.531000", "153236.546000", "153236.546000", "153236.546000", "153236.546000", "153236.546000", "153236.546000", "153236.546000", "153256.500000", "153256.500000", "153256.500000", "153256.500000", "153256.500000", "153256.500000", "153256.500000", "153256.515000", "153256.515000", "153256.515000", "153256.515000", "153256.515000", "153256.515000", "153256.515000", "153256.531000", "153256.531000", "153256.531000", "153256.531000", "153256.531000", "153256.531000", "153256.531000", "153256.531000", "153256.546000", "153256.546000", "153256.546000", "153316.500000", "153316.500000", "153316.500000", "153316.500000", "153316.500000", "153316.500000", "153316.500000", "153316.515000", "153316.515000", "153316.515000", "153316.515000", "153316.515000", "153316.515000", "153316.515000", "153316.531000", "153316.531000", "153316.531000", "153316.531000", "153316.531000", "153316.531000", "153316.531000", "153316.531000", "153316.546000", "153316.546000", "153316.546000", "153336.500000", "153336.500000", "153336.500000", "153336.500000", "153336.515000", "153336.515000", "153336.515000", "153336.515000", "153336.515000", "153336.531000", "153336.531000", "153336.531000", "153336.531000", "153336.531000", "153336.531000", "153336.531000", "153336.546000", "153336.546000", "153336.546000", "153336.546000", "153336.546000", "153336.546000", "153336.546000", "153336.562000", "153336.562000", "153336.562000", "153356.500000", "153356.500000", "153356.500000", "153356.500000", "153356.500000", "153356.515000", "153356.515000", "153356.515000", "153356.515000", "153356.515000", "153356.515000", "153356.515000", "153356.531000", "153356.531000", "153356.531000", "153356.531000", "153356.531000", "153356.531000", "153356.531000", "153356.546000", "153356.546000", "153356.546000", "153356.546000", "153356.546000", "153356.546000", "153416.500000", "153416.500000", "153416.500000", "153416.500000", "153416.500000", "153416.500000", "153416.500000", "153416.515000", "153416.515000", "153416.515000", "153416.515000", "153416.515000", "153416.515000", "153416.515000", "153416.531000", "153416.531000", "153416.531000", "153416.531000", "153416.531000", "153416.531000", "153416.531000", "153416.546000", "153416.546000", "153416.546000", "153416.546000", "153416.546000", "153436.500000", "153436.500000", "153436.500000", "153436.500000", "153436.500000", "153436.500000", "153436.515000", "153436.515000", "153436.515000", "153436.515000", "153436.515000", "153436.515000", "153436.515000", "153436.531000", "153436.531000", "153436.531000", "153436.531000", "153436.531000", "153436.531000", "153436.531000", "153436.546000", "153436.546000", "153436.546000", "153436.546000", "153436.546000", "153456.500000", "153456.500000", "153456.500000", "153456.500000", "153456.500000", "153456.500000", "153456.515000", "153456.515000", "153456.515000", "153456.515000", "153456.531000", "153456.531000", "153456.531000", "153456.531000", "153456.531000", "153456.531000", "153456.531000", "153456.546000", "153456.546000", "153456.546000", "153456.546000", "153456.546000", "153456.546000", "153456.546000", "153456.546000", "153456.562000", "153516.500000", "153516.500000", "153516.500000", "153516.500000", "153516.500000", "153516.500000", "153516.500000", "153516.515000", "153516.515000", "153516.515000", "153516.515000", "153516.515000", "153516.515000", "153516.515000", "153516.531000", "153516.531000", "153516.531000", "153516.531000", "153516.531000", "153516.531000", "153516.531000", "153516.531000", "153516.546000", "153516.546000", "153516.546000", "153536.500000", "153536.500000", "153536.500000", "153536.500000", "153536.500000", "153536.500000", "153536.500000", "153536.515000", "153536.515000", "153536.515000", "153536.515000", "153536.515000", "153536.515000", "153536.515000", "153536.531000", "153536.531000", "153536.531000", "153536.531000", "153536.531000", "153536.531000", "153536.531000", "153536.546000", "153536.546000", "153536.546000", "153536.546000", "153536.546000", "153556.500000", "153556.500000", "153556.500000", "153556.500000", "153556.500000", "153556.500000", "153556.515000", "153556.515000", "153556.515000", "153556.515000", "153556.515000", "153556.515000", "153556.515000", "153556.531000", "153556.531000", "153556.531000", "153556.531000", "153556.531000", "153556.531000", "153556.531000", "153556.531000", "153556.546000", "153556.546000", "153556.546000", "153556.546000", "153616.500000", "153616.500000", "153616.500000", "153616.500000", "153616.500000", "153616.500000", "153616.500000", "153616.515000", "153616.515000", "153616.515000", "153616.515000", "153616.515000", "153616.515000", "153616.515000", "153616.531000", "153616.531000", "153616.531000", "153616.531000", "153616.531000", "153616.531000", "153616.531000", "153616.531000", "153616.546000", "153616.546000", "153616.546000", "153616.546000", "153636.500000", "153636.500000", "153636.500000", "153636.500000", "153636.500000", "153636.515000", "153636.515000", "153636.515000", "153636.515000", "153636.515000", "153636.515000", "153636.515000", "153636.531000", "153636.531000", "153636.531000", "153636.531000", "153636.531000", "153636.531000", "153636.546000", "153636.546000", "153636.546000", "153636.546000", "153636.546000", "153636.546000", "153636.562000", "153656.500000", "153656.500000", "153656.500000", "153656.500000", "153656.500000", "153656.500000", "153656.500000", "153656.515000", "153656.515000", "153656.515000", "153656.515000", "153656.515000", "153656.515000", "153656.515000", "153656.531000", "153656.531000", "153656.531000", "153656.531000", "153656.531000", "153656.531000", "153656.531000", "153656.531000", "153656.546000", "153656.546000", "153656.546000", "153656.546000", "153716.500000", "153716.500000", "153716.500000", "153716.500000", "153716.500000", "153716.500000", "153716.500000", "153716.515000", "153716.515000", "153716.515000", "153716.515000", "153716.515000", "153716.515000", "153716.515000", "153716.531000", "153716.531000", "153716.531000", "153716.531000", "153716.546000", "153716.546000", "153716.546000", "153716.546000", "153716.546000", "153716.546000", "153716.546000", "153734.062000", "153734.062000", "153734.062000", "153734.062000", "153734.062000", "153734.062000", "153734.062000", "153734.078000", "153734.078000", "153734.078000", "153734.078000", "153734.078000", "153734.078000", "153734.078000", "153734.093000", "153734.093000", "153734.093000", "153734.093000", "153734.093000", "153734.093000", "153734.093000", "153734.093000", "153734.109000"],
