{
  "AcquisitionMatrixPE": 104,
  "AcquisitionNumber": 1,
  "AcquisitionTime": "14:58:5.442500",
  "BandwidthPerPixelPhaseEncode": 13.935,
  "BaseResolution": 104,
  "CoilString": "C:HEA;HEP",
  "ConversionSoftware": "dcm2niix",
  "ConversionSoftwareVersion": "v1.0.20210317",
  "DerivedVendorReportedEchoSpacing": 0.000690017,
  "DeviceSerialNumber": "35450",
  "DwellTime": 2.5e-06,
  "EchoTime": 0.0348,
  "EffectiveEchoSpacing": 0.000690017,
  "FlipAngle": 55,
  "ImageComments": "Unaliased MB8/PE3 (remote)",
  "ImageOrientationPatientDICOM": [0.999976, 0.000596284, 0.00695574, 3.36649e-08, 0.996345, -0.0854169],
  "ImageType": [
    "ORIGINAL",
    "PRIMARY",
    "M",
    "MB",
    "ND",
    "MOSAIC"
],
  "ImagingFrequency": 123.235,
  "InPlanePhaseEncodingDirectionDICOM": "COL",
  "InstitutionAddress": "Univeristy Ave. 197,Newark,North East,US,07102-1814",
  "InstitutionName": "RUBIC",
  "InstitutionalDepartmentName": "Department",
  "MRAcquisitionType": "2D",
  "MagneticFieldStrength": 3,
  "Manufacturer": "Siemens",
  "ManufacturersModelName": "TrioTim",
  "Modality": "MR",
  "MultibandAccelerationFactor": 8,
  "PartialFourier": 0.875,
  "PatientPosition": "HFS",
  "PercentPhaseFOV": 100,
  "PercentSampling": 100,
  "PhaseEncodingDirection": "j-",
  "PhaseEncodingSteps": 91,
  "PhaseResolution": 1,
  "PixelBandwidth": 1923,
  "ProcedureStepDescription": "Cole^Michael",
  "ProtocolName": "cmrr_mbep2d_bold_2mm_MB8_Task_8x",
  "PulseSequenceDetails": "%CustomerSeq%\\cmrr_mbep2d_bold",
  "ReceiveCoilName": "32Ch_Head",
  "ReconMatrixPE": 104,
  "RepetitionTime": 0.785,
  "SAR": 0.128219,
  "ScanOptions": "PFP\\FS",
  "ScanningSequence": "EP",
  "SequenceName": "epfid2d1_104",
  "SequenceVariant": "SK\\SS",
  "SeriesDescription": "cmrr_mbep2d_bold_2mm_MB8_Task_8x",
  "SeriesNumber": 13,
  "ShimSetting": [2123, -356, -7519, 575, 113, 169, -261, 80],
  "SliceThickness": 2,
  "SliceTiming": [0, 0.44, 0.0875, 0.5275, 0.175, 0.615, 0.265, 0.7025, 0.3525, 0, 0.44, 0.0875, 0.5275, 0.175, 0.615, 0.265, 0.7025, 0.3525, 0, 0.44, 0.0875, 0.5275, 0.175, 0.615, 0.265, 0.7025, 0.3525, 0, 0.44, 0.0875, 0.5275, 0.175, 0.615, 0.265, 0.7025, 0.3525, 0, 0.44, 0.0875, 0.5275, 0.175, 0.615, 0.265, 0.7025, 0.3525, 0, 0.44, 0.0875, 0.5275, 0.175, 0.615, 0.265, 0.7025, 0.3525, 0, 0.44, 0.0875, 0.5275, 0.175, 0.615, 0.265, 0.7025, 0.3525, 0, 0.44, 0.0875, 0.5275, 0.175, 0.615, 0.265, 0.7025, 0.3525],
  "SoftwareVersions": "syngo MR B19",
  "SpacingBetweenSlices": 2,
  "StationName": "MRC35450",
  "TaskName": "cpro",
  "TotalReadoutTime": 0.0710717,
  "TxRefAmp": 344.365,
  "dcmmeta_affine": [
    [-1.9999512434005737, 6.732970803113858e-08, 0.013962511904537678, 103.50179290771484],
    [-0.0011925677536055446, 1.9926905632019043, -0.1708296686410904, -82.31025695800781],
    [0.013911489397287369, 0.17083384096622467, 1.9926420450210571, -110.3884048461914],
    [0.0, 0.0, 0.0, 1.0]
],
  "dcmmeta_reorient_transform": [
    [0.0, -1.0, 0.0, 103.0],
    [1.0, 0.0, 0.0, 0.0],
    [0.0, 0.0, 1.0, 0.0],
    [0.0, 0.0, 0.0, 1.0]
],
  "dcmmeta_shape": [104, 104, 72, 581],
  "dcmmeta_slice_dim": 2,
  "dcmmeta_version": 0.6,
  "global": {
    "const": {
      "AcquisitionMatrix": [104, 0, 0, 104],
      "AngioFlag": "N",
      "BitsAllocated": 16,
      "BitsStored": 12,
      "Columns": 936,
      "EchoNumbers": 1,
      "EchoTime": 34.8,
      "EchoTrainLength": 1,
      "FlipAngle": 55.0,
      "HighBit": 11,
      "ImageOrientationPatient": [0.99997563073306, 0.00059628386872, 0.00695574478872, 3.3664854e-08, 0.9963452965109, -0.0854169194048],
      "ImagePositionPatient": [-935.48155239231, -952.39227071238, -27.512824690175],
      "ImageType": [
        "ORIGINAL",
        "PRIMARY",
        "M",
        "MB",
        "ND",
        "MOSAIC"
],
      "ImagedNucleus": "1H",
      "ImagingFrequency": 123.234711,
      "InPlanePhaseEncodingDirection": "COL",
      "MRAcquisitionType": "2D",
      "MagneticFieldStrength": 3.0,
      "Manufacturer": "SIEMENS",
      "ManufacturerModelName": "TrioTim",
      "Modality": "MR",
      "NumberOfAverages": 1.0,
      "NumberOfPhaseEncodingSteps": 91,
      "PercentPhaseFieldOfView": 100.0,
      "PercentSampling": 100.0,
      "PerformedProcedureStepStartTime": "134130.437000",
      "PhotometricInterpretation": "MONOCHROME2",
      "PixelBandwidth": 1923.0,
      "PixelRepresentation": 0,
      "PixelSpacing": [2.0, 2.0],
      "ProtocolName": "cmrr_mbep2d_bold_2mm_MB8_Task_8x",
      "RepetitionTime": 785.0,
      "Rows": 936,
      "SAR": 0.1282185195875,
      "SamplesPerPixel": 1,
      "ScanOptions": [
        "PFP",
        "FS"
],
      "ScanningSequence": "EP",
      "SequenceName": "epfid2d1_104",
      "SequenceVariant": [
        "SK",
        "SS"
],
      "SeriesDescription": "cmrr_mbep2d_bold_2mm_MB8_Task_8x",
      "SeriesNumber": 13,
      "SeriesTime": "145824.609000",
      "SliceLocation": -102.22920054448,
      "SliceThickness": 2.0,
      "SmallestImagePixelValue": 0,
      "SoftwareVersions": "syngo MR B19",
      "SpacingBetweenSlices": 1.9999999535702,
      "SpecificCharacterSet": "ISO_IR 100",
      "StudyID": "1",
      "StudyTime": "134130.406000",
      "TransmitCoilName": "Body",
      "VariableFlipAngleFlag": "N",
      "WindowCenterWidthExplanation": "Algo1",
      "dBdt": 0.0},
    "slices": {}
  },
  "time": {
    "samples": {
      "AcquisitionNumber": [1, 2, 3, 4, 5, 6, 7, 8, 9, 10, 11, 12, 13, 14, 15, 16, 17, 18, 19, 20, 21, 22, 23, 24, 25, 26, 27, 28, 29, 30, 31, 32, 33, 34, 35, 36, 37, 38, 39, 40, 41, 42, 43, 44, 45, 46, 47, 48, 49, 50, 51, 52, 53, 54, 55, 56, 57, 58, 59, 60, 61, 62, 63, 64, 65, 66, 67, 68, 69, 70, 71, 72, 73, 74, 75, 76, 77, 78, 79, 80, 81, 82, 83, 84, 85, 86, 87, 88, 89, 90, 91, 92, 93, 94, 95, 96, 97, 98, 99, 100, 101, 102, 103, 104, 105, 106, 107, 108, 109, 110, 111, 112, 113, 114, 115, 116, 117, 118, 119, 120, 121, 122, 123, 124, 125, 126, 127, 128, 129, 130, 131, 132, 133, 134, 135, 136, 137, 138, 139, 140, 141, 142, 143, 144, 145, 146, 147, 148, 149, 150, 151, 152, 153, 154, 155, 156, 157, 158, 159, 160, 161, 162, 163, 164, 165, 166, 167, 168, 169, 170, 171, 172, 173, 174, 175, 176, 177, 178, 179, 180, 181, 182, 183, 184, 185, 186, 187, 188, 189, 190, 191, 192, 193, 194, 195, 196, 197, 198, 199, 200, 201, 202, 203, 204, 205, 206, 207, 208, 209, 210, 211, 212, 213, 214, 215, 216, 217, 218, 219, 220, 221, 222, 223, 224, 225, 226, 227, 228, 229, 230, 231, 232, 233, 234, 235, 236, 237, 238, 239, 240, 241, 242, 243, 244, 245, 246, 247, 248, 249, 250, 251, 252, 253, 254, 255, 256, 257, 258, 259, 260, 261, 262, 263, 264, 265, 266, 267, 268, 269, 270, 271, 272, 273, 274, 275, 276, 277, 278, 279, 280, 281, 282, 283, 284, 285, 286, 287, 288, 289, 290, 291, 292, 293, 294, 295, 296, 297, 298, 299, 300, 301, 302, 303, 304, 305, 306, 307, 308, 309, 310, 311, 312, 313, 314, 315, 316, 317, 318, 319, 320, 321, 322, 323, 324, 325, 326, 327, 328, 329, 330, 331, 332, 333, 334, 335, 336, 337, 338, 339, 340, 341, 342, 343, 344, 345, 346, 347, 348, 349, 350, 351, 352, 353, 354, 355, 356, 357, 358, 359, 360, 361, 362, 363, 364, 365, 366, 367, 368, 369, 370, 371, 372, 373, 374, 375, 376, 377, 378, 379, 380, 381, 382, 383, 384, 385, 386, 387, 388, 389, 390, 391, 392, 393, 394, 395, 396, 397, 398, 399, 400, 401, 402, 403, 404, 405, 406, 407, 408, 409, 410, 411, 412, 413, 414, 415, 416, 417, 418, 419, 420, 421, 422, 423, 424, 425, 426, 427, 428, 429, 430, 431, 432, 433, 434, 435, 436, 437, 438, 439, 440, 441, 442, 443, 444, 445, 446, 447, 448, 449, 450, 451, 452, 453, 454, 455, 456, 457, 458, 459, 460, 461, 462, 463, 464, 465, 466, 467, 468, 469, 470, 471, 472, 473, 474, 475, 476, 477, 478, 479, 480, 481, 482, 483, 484, 485, 486, 487, 488, 489, 490, 491, 492, 493, 494, 495, 496, 497, 498, 499, 500, 501, 502, 503, 504, 505, 506, 507, 508, 509, 510, 511, 512, 513, 514, 515, 516, 517, 518, 519, 520, 521, 522, 523, 524, 525, 526, 527, 528, 529, 530, 531, 532, 533, 534, 535, 536, 537, 538, 539, 540, 541, 542, 543, 544, 545, 546, 547, 548, 549, 550, 551, 552, 553, 554, 555, 556, 557, 558, 559, 560, 561, 562, 563, 564, 565, 566, 567, 568, 569, 570, 571, 572, 573, 574, 575, 576, 577, 578, 579, 580, 581],
      "AcquisitionTime": ["145805.442500", "145806.232500", "145807.020000", "145807.807500", "145808.597500", "145809.385000", "145810.172500", "145810.960000", "145811.750000", "145812.537500", "145813.325000", "145814.112500", "145814.902500", "145815.690000", "145816.477500", "145817.265000", "145818.055000", "145818.842500", "145819.630000", "145820.417500", "145821.207500", "145821.995000", "145822.782500", "145823.570000", "145824.360000", "145825.147500", "145825.935000", "145826.725000", "145827.512500", "145828.300000", "145829.087500", "145829.877500", "145830.665000", "145831.452500", "145832.240000", "145833.030000", "145833.817500", "145834.605000", "145835.392500", "145836.182500", "145836.970000", "145837.757500", "145838.545000", "145839.335000", "145840.122500", "145840.910000", "145841.697500", "145842.487500", "145843.275000", "145844.062500", "145844.852500", "145845.640000", "145846.427500", "145847.215000", "145848.005000", "145848.792500", "145849.580000", "145850.367500", "145851.157500", "145851.945000", "145852.732500", "145853.520000", "145854.310000", "145855.097500", "145855.885000", "145856.672500", "145857.462500", "145858.250000", "145859.037500", "145859.825000", "145900.615000", "145901.402500", "145902.190000", "145902.980000", "145903.767500", "145904.555000", "145905.342500", "145906.132500", "145906.920000", "145907.707500", "145908.495000", "145909.285000", "145910.072500", "145910.860000", "145911.647500", "145912.437500", "145913.225000", "145914.012500", "145914.800000", "145915.590000", "145916.377500", "145917.165000", "145917.952500", "145918.742500", "145919.530000", "145920.317500", "145921.107500", "145921.895000", "145922.682500", "145923.470000", "145924.260000", "145925.047500", "145925.835000", "145926.622500", "145927.412500", "145928.200000", "145928.987500", "145929.775000", "145930.565000", "145931.352500", "145932.140000", "145932.927500", "145933.717500", "145934.505000", "145935.292500", "145936.080000", "145936.870000", "145937.657500", "145938.445000", "145939.235000", "145940.022500", "145940.810000", "145941.597500", "145942.387500", "145943.175000", "145943.962500", "145944.750000", "145945.540000", "145946.327500", "145947.115000", "145947.902500", "145948.692500", "145949.480000", "145950.267500", "145951.055000", "145951.845000", "145952.632500", "145953.420000", "145954.207500", "145954.997500", "145955.785000", "145956.572500", "145957.362500", "145958.150000", "145958.937500", "145959.725000", "150000.515000", "150001.302500", "150002.090000", "150002.877500", "150003.667500", "150004.455000", "150005.242500", "150006.030000", "150006.820000", "150007.607500", "150008.395000", "150009.182500", "150009.972500", "150010.760000", "150011.547500", "150012.335000", "150013.125000", "150013.912500", "150014.700000", "150015.490000", "150016.277500", "150017.065000", "150017.852500", "150018.642500", "150019.430000", "150020.217500", "150021.005000", "150021.795000", "150022.582500", "150023.370000", "150024.157500", "150024.947500", "150025.735000", "150026.522500", "150027.310000", "150028.100000", "150028.887500", "150029.675000", "150030.462500", "150031.252500", "150032.040000", "150032.827500", "150033.617500", "150034.405000", "150035.192500", "150035.980000", "150036.770000", "150037.557500", "150038.345000", "150039.132500", "150039.922500", "150040.710000", "150041.497500", "150042.285000", "150043.075000", "150043.862500", "150044.650000", "150045.437500", "150046.227500", "150047.015000", "150047.802500", "150048.592500", "150049.380000", "150050.167500", "150050.955000", "150051.745000", "150052.532500", "150053.320000", "150054.107500", "150054.897500", "150055.685000", "150056.472500", "150057.260000", "150058.050000", "150058.837500", "150059.625000", "150100.412500", "150101.202500", "150101.990000", "150102.777500", "150103.565000", "150104.355000", "150105.142500", "150105.930000", "150106.720000", "150107.507500", "150108.295000", "150109.082500", "150109.872500", "150110.660000", "150111.447500", "150112.235000", "150113.025000", "150113.812500", "150114.600000", "150115.387500", "150116.177500", "150116.965000", "150117.752500", "150118.540000", "150119.330000", "150120.117500", "150120.905000", "150121.692500", "150122.482500", "150123.270000", "150124.057500", "150124.847500", "150125.635000", "150126.422500", "150127.210000", "150128.000000", "150128.787500", "150129.575000", "150130.362500", "150131.152500", "150131.940000", "150132.727500", "150133.515000", "150134.305000", "150135.092500", "150135.880000", "150136.667500", "150137.457500", "150138.245000", "150139.032500", "150139.820000", "150140.610000", "150141.397500", "150142.185000", "150142.975000", "150143.762500", "150144.550000", "150145.337500", "150146.127500", "150146.915000", "150147.702500", "150148.490000", "150149.280000", "150150.067500", "150150.855000", "150151.642500", "150152.432500", "150153.220000", "150154.007500", "150154.795000", "150155.585000", "150156.372500", "150157.160000", "150157.947500", "150158.737500", "150159.525000", "150200.312500", "150201.102500", "150201.890000", "150202.677500", "150203.465000", "150204.255000", "150205.042500", "150205.830000", "150206.617500", "150207.407500", "150208.195000", "150208.982500", "150209.770000", "150210.560000", "150211.347500", "150212.135000", "150212.922500", "150213.712500", "150214.500000", "150215.287500", "150216.075000", "150216.865000", "150217.652500", "150218.440000", "150219.230000", "150220.017500", "150220.805000", "150221.592500", "150222.382500", "150223.170000", "150223.957500", "150224.745000", "150225.535000", "150226.322500", "150227.110000", "150227.897500", "150228.687500", "150229.475000", "150230.262500", "150231.050000", "150231.840000", "150232.627500", "150233.415000", "150234.202500", "150234.992500", "150235.780000", "150236.567500", "150237.357500", "150238.145000", "150238.932500", "150239.720000", "150240.510000", "150241.297500", "150242.085000", "150242.872500", "150243.662500", "150244.450000", "150245.237500", "150246.025000", "150246.815000", "150247.602500", "150248.390000", "150249.177500", "150249.967500", "150250.755000", "150251.542500", "150252.330000", "150253.120000", "150253.907500", "150254.695000", "150255.485000", "150256.272500", "150257.060000", "150257.847500", "150258.637500", "150259.425000", "150300.212500", "150301.000000", "150301.790000", "150302.577500", "150303.365000", "150304.152500", "150304.942500", "150305.730000", "150306.517500", "150307.305000", "150308.095000", "150308.882500", "150309.670000", "150310.457500", "150311.247500", "150312.035000", "150312.822500", "150313.612500", "150314.400000", "150315.187500", "150315.975000", "150316.765000", "150317.552500", "150318.340000", "150319.127500", "150319.917500", "150320.705000", "150321.492500", "150322.280000", "150323.070000", "150323.857500", "150324.645000", "150325.432500", "150326.222500", "150327.010000", "150327.797500", "150328.585000", "150329.375000", "150330.162500", "150330.950000", "150331.740000", "150332.527500", "150333.315000", "150334.102500", "150334.892500", "150335.680000", "150336.467500", "150337.255000", "150338.045000", "150338.832500", "150339.620000", "150340.407500", "150341.197500", "150341.985000", "150342.772500", "150343.560000", "150344.350000", "150345.137500", "150345.925000", "150346.712500", "150347.502500", "150348.290000", "150349.077500", "150349.867500", "150350.655000", "150351.442500", "150352.230000", "150353.020000", "150353.807500", "150354.595000", "150355.382500", "150356.172500", "150356.960000", "150357.747500", "150358.535000", "150359.325000", "150400.112500", "150400.900000", "150401.687500", "150402.477500", "150403.265000", "150404.052500", "150404.842500", "150405.630000", "150406.417500", "150407.205000", "150407.995000", "150408.782500", "150409.570000", "150410.357500", "150411.147500", "150411.935000", "150412.722500", "150413.510000", "150414.300000", "150415.087500", "150415.875000", "150416.662500", "150417.452500", "150418.240000", "150419.027500", "150419.815000", "150420.605000", "150421.392500", "150422.180000", "150422.970000", "150423.757500", "150424.545000", "150425.332500", "150426.122500", "150426.910000", "150427.697500", "150428.485000", "150429.275000", "150430.062500", "150430.850000", "150431.637500", "150432.427500", "150433.215000", "150434.002500", "150434.790000", "150435.580000", "150436.367500", "150437.155000", "150437.942500", "150438.732500", "150439.520000", "150440.307500", "150441.097500", "150441.885000", "150442.672500", "150443.460000", "150444.250000", "150445.037500", "150445.825000", "150446.612500", "150447.402500", "150448.190000", "150448.977500", "150449.765000", "150450.555000", "150451.342500", "150452.130000", "150452.917500", "150453.707500", "150454.495000", "150455.282500", "150456.070000", "150456.860000", "150457.647500", "150458.435000", "150459.225000", "150500.012500", "150500.800000", "150501.587500", "150502.377500", "150503.165000", "150503.952500", "150504.740000", "150505.530000", "150506.317500", "150507.105000", "150507.892500", "150508.682500", "150509.470000", "150510.257500", "150511.045000", "150511.835000", "150512.622500", "150513.410000", "150514.197500", "150514.987500", "150515.775000", "150516.562500", "150517.352500", "150518.140000", "150518.927500", "150519.715000", "150520.505000", "150521.292500", "150522.080000", "150522.867500", "150523.657500", "150524.445000", "150525.232500", "150526.020000", "150526.810000", "150527.597500", "150528.385000", "150529.172500", "150529.962500", "150530.750000", "150531.537500", "150532.325000", "150533.115000", "150533.902500", "150534.690000", "150535.480000", "150536.267500", "150537.055000", "150537.842500", "150538.632500", "150539.420000", "150540.207500", "150540.995000", "150541.785000", "150542.572500"],
      "ContentTime": ["145824.609000", "145824.609000", "145824.625000", "145824.625000", "145824.625000", "145824.625000", "145824.625000", "145824.625000", "145824.625000", "145824.640000", "145824.640000", "145824.640000", "145824.640000", "145824.640000", "145824.640000", "145824.640000", "145824.640000", "145824.656000", "145824.656000", "145824.656000", "145824.656000", "145824.656000", "145824.656000", "145844.593000", "145844.593000", "145844.593000", "145844.593000", "145844.593000", "145844.593000", "145844.593000", "145844.609000", "145844.609000", "145844.609000", "145844.609000", "145844.609000", "145844.609000", "145844.609000", "145844.625000", "145844.625000", "145844.625000", "145844.625000", "145844.625000", "145844.625000", "145844.640000", "145844.640000", "145844.640000", "145844.640000", "145844.640000", "145904.593000", "145904.593000", "145904.593000", "145904.593000", "145904.593000", "145904.593000", "145904.609000", "145904.609000", "145904.609000", "145904.609000", "145904.609000", "145904.609000", "145904.609000", "145904.609000", "145904.625000", "145904.625000", "145904.625000", "145904.625000", "145904.625000", "145904.640000", "145904.640000", "145904.640000", "145904.640000", "145904.640000", "145904.640000", "145904.640000", "145924.593000", "145924.593000", "145924.593000", "145924.593000", "145924.593000", "145924.593000", "145924.593000", "145924.609000", "145924.609000", "145924.609000", "145924.609000", "145924.609000", "145924.609000", "145924.609000", "145924.625000", "145924.625000", "145924.625000", "145924.625000", "145924.625000", "145924.625000", "145924.625000", "145924.625000", "145924.640000", "145924.640000", "145924.640000", "145944.593000", "145944.593000", "145944.593000", "145944.593000", "145944.593000", "145944.593000", "145944.593000", "145944.609000", "145944.609000", "145944.609000", "145944.609000", "145944.609000", "145944.609000", "145944.609000", "145944.625000", "145944.625000", "145944.625000", "145944.625000", "145944.625000", "145944.625000", "145944.625000", "145944.625000", "145944.640000", "145944.640000", "145944.640000", "145944.640000", "150004.593000", "150004.593000", "150004.593000", "150004.593000", "150004.593000", "150004.593000", "150004.593000", "150004.609000", "150004.609000", "150004.609000", "150004.609000", "150004.609000", "150004.609000", "150004.609000", "150004.625000", "150004.625000", "150004.625000", "150004.625000", "150004.625000", "150004.625000", "150004.625000", "150004.640000", "150004.640000", "150004.640000", "150004.640000", "150024.593000", "150024.593000", "150024.593000", "150024.593000", "150024.593000", "150024.609000", "150024.609000", "150024.609000", "150024.609000", "150024.609000", "150024.625000", "150024.625000", "150024.625000", "150024.625000", "150024.625000", "150024.625000", "150024.625000", "150024.640000", "150024.640000", "150024.640000", "150024.640000", "150024.640000", "150024.656000", "150024.656000", "150024.656000", "150024.656000", "150044.593000", "150044.593000", "150044.593000", "150044.593000", "150044.609000", "150044.609000", "150044.609000", "150044.609000", "150044.609000", "150044.609000", "150044.609000", "150044.625000", "150044.625000", "150044.625000", "150044.625000", "150044.625000", "150044.625000", "150044.625000", "150044.625000", "150044.640000", "150044.640000", "150044.640000", "150044.640000", "150044.640000", "150044.640000", "150104.593000", "150104.593000", "150104.593000", "150104.593000", "150104.609000", "150104.609000", "150104.609000", "150104.609000", "150104.609000", "150104.609000", "150104.609000", "150104.625000", "150104.625000", "150104.625000", "150104.625000", "150104.625000", "150104.625000", "150104.640000", "150104.640000", "150104.640000", "150104.640000", "150104.640000", "150104.640000", "150104.640000", "150104.640000", "150124.593000", "150124.593000", "150124.593000", "150124.593000", "150124.593000", "150124.593000", "150124.593000", "150124.609000", "150124.609000", "150124.609000", "150124.609000", "150124.609000", "150124.609000", "150124.625000", "150124.625000", "150124.625000", "150124.625000", "150124.625000", "150124.625000", "150124.625000", "150124.640000", "150124.640000", "150124.640000", "150124.640000", "150124.640000", "150124.640000", "150144.593000", "150144.593000", "150144.593000", "150144.593000", "150144.593000", "150144.593000", "150144.609000", "150144.609000", "150144.609000", "150144.609000", "150144.609000", "150144.609000", "150144.625000", "150144.625000", "150144.625000", "150144.625000", "150144.640000", "150144.640000", "150144.640000", "150144.640000", "150144.640000", "150144.640000", "150144.656000", "150144.656000", "150144.656000", "150204.593000", "150204.593000", "150204.593000", "150204.609000", "150204.609000", "150204.609000", "150204.609000", "150204.609000", "150204.609000", "150204.609000", "150204.609000", "150204.625000", "150204.625000", "150204.625000", "150204.625000", "150204.625000", "150204.625000", "150204.625000", "150204.640000", "150204.640000", "150204.640000", "150204.640000", "150204.640000", "150204.656000", "150204.656000", "150204.656000", "150224.593000", "150224.593000", "150224.593000", "150224.593000", "150224.593000", "150224.593000", "150224.593000", "150224.609000", "150224.609000", "150224.609000", "150224.609000", "150224.609000", "150224.609000", "150224.609000", "150224.625000", "150224.625000", "150224.625000", "150224.625000", "150224.625000", "150224.625000", "150224.640000", "150224.640000", "150224.640000", "150224.640000", "150224.640000", "150244.593000", "150244.593000", "150244.593000", "150244.593000", "150244.593000", "150244.593000", "150244.593000", "150244.609000", "150244.609000", "150244.609000", "150244.609000", "150244.609000", "150244.609000", "150244.609000", "150244.625000", "150244.625000", "150244.625000", "150244.625000", "150244.640000", "150244.640000", "150244.640000", "150244.640000", "150244.640000", "150244.640000", "150244.656000", "150244.656000", "150304.593000", "150304.593000", "150304.593000", "150304.593000", "150304.593000", "150304.593000", "150304.593000", "150304.609000", "150304.609000", "150304.609000", "150304.609000", "150304.609000", "150304.625000", "150304.625000", "150304.625000", "150304.625000", "150304.625000", "150304.625000", "150304.640000", "150304.640000", "150304.640000", "150304.656000", "150304.656000", "150304.656000", "150304.671000", "150324.593000", "150324.593000", "150324.593000", "150324.593000", "150324.593000", "150324.593000", "150324.593000", "150324.609000", "150324.609000", "150324.609000", "150324.609000", "150324.609000", "150324.609000", "150324.609000", "150324.625000", "150324.625000", "150324.625000", "150324.625000", "150324.625000", "150324.625000", "150324.625000", "150324.625000", "150324.640000", "150324.640000", "150324.640000", "150324.640000", "150344.593000", "150344.593000", "150344.593000", "150344.593000", "150344.593000", "150344.593000", "150344.593000", "150344.609000", "150344.609000", "150344.609000", "150344.609000", "150344.609000", "150344.609000", "150344.625000", "150344.625000", "150344.625000", "150344.625000", "150344.625000", "150344.625000", "150344.625000", "150344.625000", "150344.640000", "150344.640000", "150344.640000", "150344.640000", "150404.593000", "150404.593000", "150404.593000", "150404.593000", "150404.593000", "150404.593000", "150404.593000", "150404.609000", "150404.609000", "150404.609000", "150404.609000", "150404.609000", "150404.609000", "150404.625000", "150404.625000", "150404.625000", "150404.625000", "150404.625000", "150404.625000", "150404.625000", "150404.640000", "150404.640000", "150404.640000", "150404.640000", "150404.640000", "150404.640000", "150424.593000", "150424.593000", "150424.593000", "150424.593000", "150424.593000", "150424.593000", "150424.593000", "150424.609000", "150424.609000", "150424.609000", "150424.609000", "150424.625000", "150424.625000", "150424.625000", "150424.625000", "150424.625000", "150424.625000", "150424.640000", "150424.640000", "150424.640000", "150424.640000", "150424.640000", "150424.640000", "150424.640000", "150424.640000", "150444.593000", "150444.593000", "150444.593000", "150444.593000", "150444.593000", "150444.593000", "150444.593000", "150444.609000", "150444.609000", "150444.609000", "150444.609000", "150444.609000", "150444.609000", "150444.609000", "150444.625000", "150444.625000", "150444.625000", "150444.625000", "150444.625000", "150444.625000", "150444.625000", "150444.640000", "150444.640000", "150444.640000", "150444.640000", "150444.640000", "150504.593000", "150504.593000", "150504.593000", "150504.593000", "150504.593000", "150504.593000", "150504.593000", "150504.609000", "150504.609000", "150504.609000", "150504.609000", "150504.609000", "150504.609000", "150504.609000", "150504.625000", "150504.625000", "150504.625000", "150504.625000", "150504.625000", "150504.625000", "150504.625000", "150504.640000", "150504.640000", "150504.640000", "150504.640000", "150524.593000", "150524.593000", "150524.593000", "150524.593000", "150524.593000", "150524.593000", "150524.593000", "150524.609000", "150524.609000", "150524.609000", "150524.609000", "150524.609000", "150524.609000", "150524.609000", "150524.625000", "150524.625000", "150524.625000", "150524.625000", "150524.625000", "150524.625000", "150524.625000", "150524.640000", "150524.640000", "150524.640000", "150524.640000", "150524.640000", "150542.578000", "150542.578000", "150542.578000", "150542.578000", "150542.578000", "150542.593000", "150542.593000", "150542.593000", "150542.593000", "150542.593000", "150542.593000", "150542.609000", "150542.609000", "150542.609000", "150542.609000", "150542.609000", "150542.609000", "150542.625000", "150542.625000", "150542.625000", "150542.625000", "150542.625000", "150542.625000"],
