{
  "AcquisitionMatrixPE": 104,
  "AcquisitionNumber": 1,
  "AcquisitionTime": "15:06:4.670000",
  "BandwidthPerPixelPhaseEncode": 13.935,
  "BaseResolution": 104,
  "CoilString": "C:HEA;HEP",
  "ConversionSoftware": "dcm2niix",
  "ConversionSoftwareVersion": "v1.0.20210317",
  "DerivedVendorReportedEchoSpacing": 0.000690017,
  "DeviceSerialNumber": "35450",
  "DwellTime": 2.5e-06,
  "EchoTime": 0.0348,
  "EffectiveEchoSpacing": 0.000690017,
  "FlipAngle": 55,
  "ImageComments": "Unaliased MB8/PE3 (remote)",
  "ImageOrientationPatientDICOM": [0.999976, 0.000596284, 0.00695574, 3.36649e-08, 0.996345, -0.0854169],
  "ImageType": [
    "ORIGINAL",
    "PRIMARY",
    "M",
    "MB",
    "ND",
    "MOSAIC"
],
  "ImagingFrequency": 123.235,
  "InPlanePhaseEncodingDirectionDICOM": "COL",
  "InstitutionAddress": "Univeristy Ave. 197,Newark,North East,US,07102-1814",
  "InstitutionName": "RUBIC",
  "InstitutionalDepartmentName": "Department",
  "MRAcquisitionType": "2D",
  "MagneticFieldStrength": 3,
  "Manufacturer": "Siemens",
  "ManufacturersModelName": "TrioTim",
  "Modality": "MR",
  "MultibandAccelerationFactor": 8,
  "PartialFourier": 0.875,
  "PatientPosition": "HFS",
  "PercentPhaseFOV": 100,
  "PercentSampling": 100,
  "PhaseEncodingDirection": "j-",
  "PhaseEncodingSteps": 91,
  "PhaseResolution": 1,
  "PixelBandwidth": 1923,
  "ProcedureStepDescription": "Cole^Michael",
  "ProtocolName": "cmrr_mbep2d_bold_2mm_MB8_Task_8x",
  "PulseSequenceDetails": "%CustomerSeq%\\cmrr_mbep2d_bold",
  "ReceiveCoilName": "32Ch_Head",
  "ReconMatrixPE": 104,
  "RepetitionTime": 0.785,
  "SAR": 0.135054,
  "ScanOptions": "PFP\\FS",
  "ScanningSequence": "EP",
  "SequenceName": "epfid2d1_104",
  "SequenceVariant": "SK\\SS",
  "SeriesDescription": "cmrr_mbep2d_bold_2mm_MB8_Task_8x",
  "SeriesNumber": 15,
  "ShimSetting": [2123, -356, -7519, 575, 113, 169, -261, 80],
  "SliceThickness": 2,
  "SliceTiming": [0, 0.44, 0.0875, 0.5275, 0.1775, 0.615, 0.265, 0.7025, 0.3525, 0, 0.44, 0.0875, 0.5275, 0.1775, 0.615, 0.265, 0.7025, 0.3525, 0, 0.44, 0.0875, 0.5275, 0.1775, 0.615, 0.265, 0.7025, 0.3525, 0, 0.44, 0.0875, 0.5275, 0.1775, 0.615, 0.265, 0.7025, 0.3525, 0, 0.44, 0.0875, 0.5275, 0.1775, 0.615, 0.265, 0.7025, 0.3525, 0, 0.44, 0.0875, 0.5275, 0.1775, 0.615, 0.265, 0.7025, 0.3525, 0, 0.44, 0.0875, 0.5275, 0.1775, 0.615, 0.265, 0.7025, 0.3525, 0, 0.44, 0.0875, 0.5275, 0.1775, 0.615, 0.265, 0.7025, 0.3525],
  "SoftwareVersions": "syngo MR B19",
  "SpacingBetweenSlices": 2,
  "StationName": "MRC35450",
  "TaskName": "cpro",
  "TotalReadoutTime": 0.0710717,
  "TxRefAmp": 344.365,
  "dcmmeta_affine": [
    [-1.9999512434005737, 6.732970803113858e-08, 0.013962511904537678, 103.50179290771484],
    [-0.0011925677536055446, 1.9926905632019043, -0.1708296686410904, -82.31025695800781],
    [0.013911489397287369, 0.17083384096622467, 1.9926420450210571, -110.3884048461914],
    [0.0, 0.0, 0.0, 1.0]
],
  "dcmmeta_reorient_transform": [
    [0.0, -1.0, 0.0, 103.0],
    [1.0, 0.0, 0.0, 0.0],
    [0.0, 0.0, 1.0, 0.0],
    [0.0, 0.0, 0.0, 1.0]
],
  "dcmmeta_shape": [104, 104, 72, 581],
  "dcmmeta_slice_dim": 2,
  "dcmmeta_version": 0.6,
  "global": {
    "const": {
      "AcquisitionMatrix": [104, 0, 0, 104],
      "AngioFlag": "N",
      "BitsAllocated": 16,
      "BitsStored": 12,
      "Columns": 936,
      "EchoNumbers": 1,
      "EchoTime": 34.8,
      "EchoTrainLength": 1,
      "FlipAngle": 55.0,
      "HighBit": 11,
      "ImageOrientationPatient": [0.99997563073306, 0.00059628386872, 0.00695574478872, 3.3664854e-08, 0.9963452965109, -0.0854169194048],
      "ImagePositionPatient": [-935.48155239231, -952.39227071238, -27.512824690175],
      "ImageType": [
        "ORIGINAL",
        "PRIMARY",
        "M",
        "MB",
        "ND",
        "MOSAIC"
],
      "ImagedNucleus": "1H",
      "ImagingFrequency": 123.234711,
      "InPlanePhaseEncodingDirection": "COL",
      "MRAcquisitionType": "2D",
      "MagneticFieldStrength": 3.0,
      "Manufacturer": "SIEMENS",
      "ManufacturerModelName": "TrioTim",
      "Modality": "MR",
      "NumberOfAverages": 1.0,
      "NumberOfPhaseEncodingSteps": 91,
      "PercentPhaseFieldOfView": 100.0,
      "PercentSampling": 100.0,
      "PerformedProcedureStepStartTime": "134130.437000",
      "PhotometricInterpretation": "MONOCHROME2",
      "PixelBandwidth": 1923.0,
      "PixelRepresentation": 0,
      "PixelSpacing": [2.0, 2.0],
      "ProtocolName": "cmrr_mbep2d_bold_2mm_MB8_Task_8x",
      "RepetitionTime": 785.0,
      "Rows": 936,
      "SAR": 0.13505422233751,
      "SamplesPerPixel": 1,
      "ScanOptions": [
        "PFP",
        "FS"
],
      "ScanningSequence": "EP",
      "SequenceName": "epfid2d1_104",
      "SequenceVariant": [
        "SK",
        "SS"
],
      "SeriesDescription": "cmrr_mbep2d_bold_2mm_MB8_Task_8x",
      "SeriesNumber": 15,
      "SeriesTime": "150636.515000",
      "SliceLocation": -102.22920054448,
      "SliceThickness": 2.0,
      "SmallestImagePixelValue": 0,
      "SoftwareVersions": "syngo MR B19",
      "SpacingBetweenSlices": 1.9999999535702,
      "SpecificCharacterSet": "ISO_IR 100",
      "StudyID": "1",
      "StudyTime": "134130.406000",
      "TransmitCoilName": "Body",
      "VariableFlipAngleFlag": "N",
      "WindowCenterWidthExplanation": "Algo1",
      "dBdt": 0.0},
    "slices": {}
  },
  "time": {
    "samples": {
      "AcquisitionNumber": [1, 2, 3, 4, 5, 6, 7, 8, 9, 10, 11, 12, 13, 14, 15, 16, 17, 18, 19, 20, 21, 22, 23, 24, 25, 26, 27, 28, 29, 30, 31, 32, 33, 34, 35, 36, 37, 38, 39, 40, 41, 42, 43, 44, 45, 46, 47, 48, 49, 50, 51, 52, 53, 54, 55, 56, 57, 58, 59, 60, 61, 62, 63, 64, 65, 66, 67, 68, 69, 70, 71, 72, 73, 74, 75, 76, 77, 78, 79, 80, 81, 82, 83, 84, 85, 86, 87, 88, 89, 90, 91, 92, 93, 94, 95, 96, 97, 98, 99, 100, 101, 102, 103, 104, 105, 106, 107, 108, 109, 110, 111, 112, 113, 114, 115, 116, 117, 118, 119, 120, 121, 122, 123, 124, 125, 126, 127, 128, 129, 130, 131, 132, 133, 134, 135, 136, 137, 138, 139, 140, 141, 142, 143, 144, 145, 146, 147, 148, 149, 150, 151, 152, 153, 154, 155, 156, 157, 158, 159, 160, 161, 162, 163, 164, 165, 166, 167, 168, 169, 170, 171, 172, 173, 174, 175, 176, 177, 178, 179, 180, 181, 182, 183, 184, 185, 186, 187, 188, 189, 190, 191, 192, 193, 194, 195, 196, 197, 198, 199, 200, 201, 202, 203, 204, 205, 206, 207, 208, 209, 210, 211, 212, 213, 214, 215, 216, 217, 218, 219, 220, 221, 222, 223, 224, 225, 226, 227, 228, 229, 230, 231, 232, 233, 234, 235, 236, 237, 238, 239, 240, 241, 242, 243, 244, 245, 246, 247, 248, 249, 250, 251, 252, 253, 254, 255, 256, 257, 258, 259, 260, 261, 262, 263, 264, 265, 266, 267, 268, 269, 270, 271, 272, 273, 274, 275, 276, 277, 278, 279, 280, 281, 282, 283, 284, 285, 286, 287, 288, 289, 290, 291, 292, 293, 294, 295, 296, 297, 298, 299, 300, 301, 302, 303, 304, 305, 306, 307, 308, 309, 310, 311, 312, 313, 314, 315, 316, 317, 318, 319, 320, 321, 322, 323, 324, 325, 326, 327, 328, 329, 330, 331, 332, 333, 334, 335, 336, 337, 338, 339, 340, 341, 342, 343, 344, 345, 346, 347, 348, 349, 350, 351, 352, 353, 354, 355, 356, 357, 358, 359, 360, 361, 362, 363, 364, 365, 366, 367, 368, 369, 370, 371, 372, 373, 374, 375, 376, 377, 378, 379, 380, 381, 382, 383, 384, 385, 386, 387, 388, 389, 390, 391, 392, 393, 394, 395, 396, 397, 398, 399, 400, 401, 402, 403, 404, 405, 406, 407, 408, 409, 410, 411, 412, 413, 414, 415, 416, 417, 418, 419, 420, 421, 422, 423, 424, 425, 426, 427, 428, 429, 430, 431, 432, 433, 434, 435, 436, 437, 438, 439, 440, 441, 442, 443, 444, 445, 446, 447, 448, 449, 450, 451, 452, 453, 454, 455, 456, 457, 458, 459, 460, 461, 462, 463, 464, 465, 466, 467, 468, 469, 470, 471, 472, 473, 474, 475, 476, 477, 478, 479, 480, 481, 482, 483, 484, 485, 486, 487, 488, 489, 490, 491, 492, 493, 494, 495, 496, 497, 498, 499, 500, 501, 502, 503, 504, 505, 506, 507, 508, 509, 510, 511, 512, 513, 514, 515, 516, 517, 518, 519, 520, 521, 522, 523, 524, 525, 526, 527, 528, 529, 530, 531, 532, 533, 534, 535, 536, 537, 538, 539, 540, 541, 542, 543, 544, 545, 546, 547, 548, 549, 550, 551, 552, 553, 554, 555, 556, 557, 558, 559, 560, 561, 562, 563, 564, 565, 566, 567, 568, 569, 570, 571, 572, 573, 574, 575, 576, 577, 578, 579, 580, 581],
      "AcquisitionTime": ["150604.670000", "150605.460000", "150606.247500", "150607.035000", "150607.825000", "150608.612500", "150609.400000", "150610.187500", "150610.977500", "150611.765000", "150612.552500", "150613.340000", "150614.130000", "150614.917500", "150615.705000", "150616.492500", "150617.282500", "150618.070000", "150618.857500", "150619.645000", "150620.435000", "150621.222500", "150622.010000", "150622.797500", "150623.587500", "150624.375000", "150625.162500", "150625.952500", "150626.740000", "150627.527500", "150628.315000", "150629.105000", "150629.892500", "150630.680000", "150631.467500", "150632.257500", "150633.045000", "150633.832500", "150634.620000", "150635.410000", "150636.197500", "150636.985000", "150637.772500", "150638.562500", "150639.350000", "150640.137500", "150640.925000", "150641.715000", "150642.502500", "150643.290000", "150644.080000", "150644.867500", "150645.655000", "150646.442500", "150647.232500", "150648.020000", "150648.807500", "150649.595000", "150650.385000", "150651.172500", "150651.960000", "150652.747500", "150653.537500", "150654.325000", "150655.112500", "150655.900000", "150656.690000", "150657.477500", "150658.265000", "150659.052500", "150659.842500", "150700.630000", "150701.417500", "150702.207500", "150702.995000", "150703.782500", "150704.570000", "150705.360000", "150706.147500", "150706.935000", "150707.722500", "150708.512500", "150709.300000", "150710.087500", "150710.875000", "150711.665000", "150712.452500", "150713.240000", "150714.027500", "150714.817500", "150715.605000", "150716.392500", "150717.180000", "150717.970000", "150718.757500", "150719.545000", "150720.335000", "150721.122500", "150721.910000", "150722.697500", "150723.487500", "150724.275000", "150725.062500", "150725.850000", "150726.640000", "150727.427500", "150728.215000", "150729.002500", "150729.792500", "150730.580000", "150731.367500", "150732.155000", "150732.945000", "150733.732500", "150734.520000", "150735.310000", "150736.097500", "150736.885000", "150737.672500", "150738.462500", "150739.250000", "150740.037500", "150740.825000", "150741.615000", "150742.402500", "150743.190000", "150743.977500", "150744.767500", "150745.555000", "150746.342500", "150747.130000", "150747.920000", "150748.707500", "150749.495000", "150750.282500", "150751.072500", "150751.860000", "150752.647500", "150753.437500", "150754.225000", "150755.012500", "150755.800000", "150756.590000", "150757.377500", "150758.165000", "150758.952500", "150759.742500", "150800.530000", "150801.317500", "150802.105000", "150802.895000", "150803.682500", "150804.470000", "150805.257500", "150806.047500", "150806.835000", "150807.622500", "150808.410000", "150809.200000", "150809.987500", "150810.775000", "150811.565000", "150812.352500", "150813.140000", "150813.927500", "150814.717500", "150815.505000", "150816.292500", "150817.080000", "150817.870000", "150818.657500", "150819.445000", "150820.232500", "150821.022500", "150821.810000", "150822.597500", "150823.385000", "150824.175000", "150824.962500", "150825.750000", "150826.537500", "150827.327500", "150828.115000", "150828.902500", "150829.692500", "150830.480000", "150831.267500", "150832.055000", "150832.845000", "150833.632500", "150834.420000", "150835.207500", "150835.997500", "150836.785000", "150837.572500", "150838.360000", "150839.150000", "150839.937500", "150840.725000", "150841.512500", "150842.302500", "150843.090000", "150843.877500", "150844.665000", "150845.455000", "150846.242500", "150847.030000", "150847.820000", "150848.607500", "150849.395000", "150850.182500", "150850.972500", "150851.760000", "150852.547500", "150853.335000", "150854.125000", "150854.912500", "150855.700000", "150856.487500", "150857.277500", "150858.065000", "150858.852500", "150859.640000", "150900.430000", "150901.217500", "150902.005000", "150902.792500", "150903.582500", "150904.370000", "150905.157500", "150905.947500", "150906.735000", "150907.522500", "150908.310000", "150909.100000", "150909.887500", "150910.675000", "150911.462500", "150912.252500", "150913.040000", "150913.827500", "150914.615000", "150915.405000", "150916.192500", "150916.980000", "150917.767500", "150918.557500", "150919.345000", "150920.132500", "150920.920000", "150921.710000", "150922.497500", "150923.285000", "150924.075000", "150924.862500", "150925.650000", "150926.437500", "150927.227500", "150928.015000", "150928.802500", "150929.590000", "150930.380000", "150931.167500", "150931.955000", "150932.742500", "150933.532500", "150934.320000", "150935.107500", "150935.895000", "150936.685000", "150937.472500", "150938.260000", "150939.047500", "150939.837500", "150940.625000", "150941.412500", "150942.202500", "150942.990000", "150943.777500", "150944.565000", "150945.355000", "150946.142500", "150946.930000", "150947.717500", "150948.507500", "150949.295000", "150950.082500", "150950.870000", "150951.660000", "150952.447500", "150953.235000", "150954.022500", "150954.812500", "150955.600000", "150956.387500", "150957.175000", "150957.965000", "150958.752500", "150959.540000", "151000.330000", "151001.117500", "151001.905000", "151002.692500", "151003.482500", "151004.270000", "151005.057500", "151005.845000", "151006.635000", "151007.422500", "151008.210000", "151008.997500", "151009.787500", "151010.575000", "151011.362500", "151012.150000", "151012.940000", "151013.727500", "151014.515000", "151015.302500", "151016.092500", "151016.880000", "151017.667500", "151018.457500", "151019.245000", "151020.032500", "151020.820000", "151021.610000", "151022.397500", "151023.185000", "151023.972500", "151024.762500", "151025.550000", "151026.337500", "151027.125000", "151027.915000", "151028.702500", "151029.490000", "151030.277500", "151031.067500", "151031.855000", "151032.642500", "151033.430000", "151034.220000", "151035.007500", "151035.795000", "151036.585000", "151037.372500", "151038.160000", "151038.947500", "151039.737500", "151040.525000", "151041.312500", "151042.100000", "151042.890000", "151043.677500", "151044.465000", "151045.252500", "151046.042500", "151046.830000", "151047.617500", "151048.405000", "151049.195000", "151049.982500", "151050.770000", "151051.560000", "151052.347500", "151053.135000", "151053.922500", "151054.712500", "151055.500000", "151056.287500", "151057.075000", "151057.865000", "151058.652500", "151059.440000", "151100.227500", "151101.017500", "151101.805000", "151102.592500", "151103.380000", "151104.170000", "151104.957500", "151105.745000", "151106.532500", "151107.322500", "151108.110000", "151108.897500", "151109.687500", "151110.475000", "151111.262500", "151112.050000", "151112.840000", "151113.627500", "151114.415000", "151115.202500", "151115.992500", "151116.780000", "151117.567500", "151118.355000", "151119.145000", "151119.932500", "151120.720000", "151121.507500", "151122.297500", "151123.085000", "151123.872500", "151124.660000", "151125.450000", "151126.237500", "151127.025000", "151127.815000", "151128.602500", "151129.390000", "151130.177500", "151130.967500", "151131.755000", "151132.542500", "151133.330000", "151134.120000", "151134.907500", "151135.695000", "151136.482500", "151137.272500", "151138.060000", "151138.847500", "151139.635000", "151140.425000", "151141.212500", "151142.000000", "151142.787500", "151143.577500", "151144.365000", "151145.152500", "151145.942500", "151146.730000", "151147.517500", "151148.305000", "151149.095000", "151149.882500", "151150.670000", "151151.457500", "151152.247500", "151153.035000", "151153.822500", "151154.610000", "151155.400000", "151156.187500", "151156.975000", "151157.762500", "151158.552500", "151159.340000", "151200.127500", "151200.915000", "151201.705000", "151202.492500", "151203.280000", "151204.070000", "151204.857500", "151205.645000", "151206.432500", "151207.222500", "151208.010000", "151208.797500", "151209.585000", "151210.375000", "151211.162500", "151211.950000", "151212.737500", "151213.527500", "151214.315000", "151215.102500", "151215.890000", "151216.680000", "151217.467500", "151218.255000", "151219.042500", "151219.832500", "151220.620000", "151221.407500", "151222.197500", "151222.985000", "151223.772500", "151224.560000", "151225.350000", "151226.137500", "151226.925000", "151227.712500", "151228.502500", "151229.290000", "151230.077500", "151230.865000", "151231.655000", "151232.442500", "151233.230000", "151234.017500", "151234.807500", "151235.595000", "151236.382500", "151237.170000", "151237.960000", "151238.747500", "151239.535000", "151240.325000", "151241.112500", "151241.900000", "151242.687500", "151243.477500", "151244.265000", "151245.052500", "151245.840000", "151246.630000", "151247.417500", "151248.205000", "151248.992500", "151249.782500", "151250.570000", "151251.357500", "151252.145000", "151252.935000", "151253.722500", "151254.510000", "151255.297500", "151256.087500", "151256.875000", "151257.662500", "151258.452500", "151259.240000", "151300.027500", "151300.815000", "151301.605000", "151302.392500", "151303.180000", "151303.967500", "151304.757500", "151305.545000", "151306.332500", "151307.120000", "151307.910000", "151308.697500", "151309.485000", "151310.272500", "151311.062500", "151311.850000", "151312.637500", "151313.425000", "151314.215000", "151315.002500", "151315.790000", "151316.580000", "151317.367500", "151318.155000", "151318.942500", "151319.732500", "151320.520000", "151321.307500", "151322.095000", "151322.885000", "151323.672500", "151324.460000", "151325.247500", "151326.037500", "151326.825000", "151327.612500", "151328.400000", "151329.190000", "151329.977500", "151330.765000", "151331.552500", "151332.342500", "151333.130000", "151333.917500", "151334.707500", "151335.495000", "151336.282500", "151337.070000", "151337.860000", "151338.647500", "151339.435000", "151340.222500", "151341.012500", "151341.800000"],
      "ContentTime": ["150636.515000", "150636.515000", "150636.531000", "150636.531000", "150636.531000", "150636.531000", "150636.531000", "150636.531000", "150636.531000", "150636.546000", "150636.546000", "150636.546000", "150636.546000", "150636.546000", "150636.546000", "150636.546000", "150636.562000", "150636.562000", "150636.562000", "150636.562000", "150636.562000", "150636.562000", "150636.562000", "150636.562000", "150636.578000", "150636.578000", "150636.578000", "150636.578000", "150636.578000", "150636.578000", "150636.578000", "150636.593000", "150636.593000", "150636.593000", "150636.593000", "150636.593000", "150636.593000", "150636.593000", "150656.500000", "150656.500000", "150656.500000", "150656.500000", "150656.500000", "150656.500000", "150656.500000", "150656.515000", "150656.515000", "150656.515000", "150656.515000", "150656.515000", "150656.515000", "150656.515000", "150656.515000", "150656.531000", "150656.531000", "150656.531000", "150656.531000", "150656.531000", "150656.531000", "150656.531000", "150656.546000", "150656.546000", "150656.546000", "150656.546000", "150716.500000", "150716.500000", "150716.500000", "150716.500000", "150716.500000", "150716.500000", "150716.500000", "150716.515000", "150716.515000", "150716.515000", "150716.515000", "150716.515000", "150716.515000", "150716.515000", "150716.531000", "150716.531000", "150716.531000", "150716.531000", "150716.531000", "150716.531000", "150716.531000", "150716.531000", "150716.546000", "150716.546000", "150716.546000", "150736.500000", "150736.500000", "150736.500000", "150736.500000", "150736.500000", "150736.500000", "150736.500000", "150736.515000", "150736.515000", "150736.515000", "150736.515000", "150736.515000", "150736.515000", "150736.531000", "150736.531000", "150736.531000", "150736.531000", "150736.531000", "150736.531000", "150736.531000", "150736.531000", "150736.546000", "150736.546000", "150736.546000", "150736.546000", "150736.546000", "150756.500000", "150756.500000", "150756.500000", "150756.500000", "150756.500000", "150756.515000", "150756.515000", "150756.515000", "150756.515000", "150756.515000", "150756.515000", "150756.515000", "150756.531000", "150756.531000", "150756.531000", "150756.531000", "150756.531000", "150756.531000", "150756.546000", "150756.546000", "150756.546000", "150756.546000", "150756.546000", "150756.546000", "150756.546000", "150816.500000", "150816.500000", "150816.500000", "150816.500000", "150816.500000", "150816.500000", "150816.500000", "150816.515000", "150816.515000", "150816.515000", "150816.515000", "150816.515000", "150816.515000", "150816.515000", "150816.515000", "150816.531000", "150816.531000", "150816.531000", "150816.531000", "150816.531000", "150816.531000", "150816.531000", "150816.546000", "150816.546000", "150816.546000", "150816.546000", "150836.500000", "150836.500000", "150836.500000", "150836.500000", "150836.500000", "150836.500000", "150836.500000", "150836.515000", "150836.515000", "150836.515000", "150836.515000", "150836.515000", "150836.515000", "150836.515000", "150836.531000", "150836.531000", "150836.531000", "150836.531000", "150836.531000", "150836.531000", "150836.531000", "150836.546000", "150836.546000", "150836.546000", "150836.546000", "150856.500000", "150856.500000", "150856.500000", "150856.500000", "150856.500000", "150856.515000", "150856.515000", "150856.515000", "150856.515000", "150856.515000", "150856.515000", "150856.515000", "150856.515000", "150856.531000", "150856.531000", "150856.531000", "150856.531000", "150856.531000", "150856.531000", "150856.531000", "150856.546000", "150856.546000", "150856.546000", "150856.546000", "150856.546000", "150856.546000", "150916.500000", "150916.500000", "150916.500000", "150916.500000", "150916.500000", "150916.515000", "150916.515000", "150916.515000", "150916.515000", "150916.515000", "150916.515000", "150916.515000", "150916.531000", "150916.531000", "150916.531000", "150916.531000", "150916.531000", "150916.531000", "150916.531000", "150916.531000", "150916.546000", "150916.546000", "150916.546000", "150916.546000", "150916.546000", "150936.500000", "150936.500000", "150936.500000", "150936.500000", "150936.500000", "150936.500000", "150936.500000", "150936.515000", "150936.515000", "150936.515000", "150936.515000", "150936.531000", "150936.531000", "150936.531000", "150936.531000", "150936.531000", "150936.531000", "150936.531000", "150936.546000", "150936.546000", "150936.546000", "150936.546000", "150936.546000", "150936.546000", "150936.546000", "150936.562000", "150956.500000", "150956.500000", "150956.500000", "150956.500000", "150956.500000", "150956.500000", "150956.500000", "150956.515000", "150956.515000", "150956.515000", "150956.515000", "150956.515000", "150956.515000", "150956.515000", "150956.531000", "150956.531000", "150956.531000", "150956.546000", "150956.546000", "150956.546000", "150956.546000", "150956.546000", "150956.546000", "150956.546000", "150956.546000", "151016.500000", "151016.500000", "151016.500000", "151016.500000", "151016.500000", "151016.500000", "151016.500000", "151016.515000", "151016.515000", "151016.515000", "151016.515000", "151016.515000", "151016.531000", "151016.531000", "151016.531000", "151016.531000", "151016.531000", "151016.531000", "151016.531000", "151016.546000", "151016.546000", "151016.546000", "151016.546000", "151016.546000", "151016.546000", "151036.500000", "151036.500000", "151036.500000", "151036.500000", "151036.500000", "151036.500000", "151036.500000", "151036.515000", "151036.515000", "151036.515000", "151036.515000", "151036.515000", "151036.515000", "151036.515000", "151036.531000", "151036.531000", "151036.531000", "151036.531000", "151036.531000", "151036.531000", "151036.531000", "151036.531000", "151036.546000", "151036.546000", "151036.546000", "151036.546000", "151056.500000", "151056.500000", "151056.500000", "151056.500000", "151056.500000", "151056.500000", "151056.500000", "151056.515000", "151056.515000", "151056.515000", "151056.515000", "151056.515000", "151056.515000", "151056.531000", "151056.531000", "151056.531000", "151056.531000", "151056.531000", "151056.546000", "151056.546000", "151056.546000", "151056.546000", "151056.546000", "151056.546000", "151056.562000", "151116.500000", "151116.500000", "151116.500000", "151116.500000", "151116.500000", "151116.500000", "151116.500000", "151116.515000", "151116.515000", "151116.515000", "151116.515000", "151116.515000", "151116.531000", "151116.531000", "151116.531000", "151116.531000", "151116.531000", "151116.531000", "151116.531000", "151116.546000", "151116.546000", "151116.546000", "151116.546000", "151116.546000", "151116.546000", "151116.546000", "151136.500000", "151136.500000", "151136.500000", "151136.500000", "151136.500000", "151136.500000", "151136.515000", "151136.515000", "151136.515000", "151136.515000", "151136.515000", "151136.515000", "151136.515000", "151136.531000", "151136.531000", "151136.531000", "151136.531000", "151136.531000", "151136.531000", "151136.531000", "151136.546000", "151136.546000", "151136.546000", "151136.546000", "151136.546000", "151156.500000", "151156.500000", "151156.500000", "151156.500000", "151156.500000", "151156.500000", "151156.500000", "151156.515000", "151156.515000", "151156.515000", "151156.515000", "151156.515000", "151156.515000", "151156.515000", "151156.531000", "151156.531000", "151156.531000", "151156.531000", "151156.531000", "151156.531000", "151156.531000", "151156.546000", "151156.546000", "151156.546000", "151156.546000", "151156.546000", "151216.500000", "151216.500000", "151216.500000", "151216.500000", "151216.500000", "151216.500000", "151216.500000", "151216.515000", "151216.515000", "151216.515000", "151216.515000", "151216.515000", "151216.515000", "151216.515000", "151216.531000", "151216.531000", "151216.531000", "151216.531000", "151216.531000", "151216.531000", "151216.546000", "151216.546000", "151216.546000", "151216.546000", "151216.546000", "151236.500000", "151236.500000", "151236.500000", "151236.500000", "151236.500000", "151236.500000", "151236.500000", "151236.515000", "151236.515000", "151236.515000", "151236.515000", "151236.515000", "151236.515000", "151236.515000", "151236.515000", "151236.531000", "151236.531000", "151236.531000", "151236.531000", "151236.546000", "151236.546000", "151236.546000", "151236.546000", "151236.546000", "151236.546000", "151236.562000", "151256.500000", "151256.500000", "151256.500000", "151256.500000", "151256.500000", "151256.500000", "151256.500000", "151256.515000", "151256.515000", "151256.515000", "151256.515000", "151256.515000", "151256.515000", "151256.515000", "151256.531000", "151256.531000", "151256.531000", "151256.531000", "151256.531000", "151256.531000", "151256.531000", "151256.531000", "151256.546000", "151256.546000", "151256.546000", "151316.500000", "151316.500000", "151316.500000", "151316.500000", "151316.500000", "151316.500000", "151316.500000", "151316.515000", "151316.515000", "151316.515000", "151316.515000", "151316.515000", "151316.515000", "151316.515000", "151316.531000", "151316.531000", "151316.531000", "151316.531000", "151316.531000", "151316.546000", "151316.546000", "151316.546000", "151316.546000", "151316.546000", "151316.546000", "151316.546000", "151336.500000", "151336.500000", "151336.500000", "151336.500000", "151336.500000", "151336.500000", "151336.500000", "151336.515000", "151336.515000", "151336.515000", "151336.515000", "151336.515000", "151336.515000", "151336.515000", "151336.531000", "151336.531000", "151336.531000", "151336.531000", "151336.546000", "151336.546000", "151336.546000", "151336.546000", "151336.546000", "151336.546000", "151336.546000", "151342.187000", "151342.187000", "151342.187000", "151342.187000", "151342.203000", "151342.203000", "151342.203000", "151342.203000"],
