{
  "AcquisitionMatrixPE": 104,
  "AcquisitionNumber": 1,
  "AcquisitionTime": "15:21:55.690000",
  "BandwidthPerPixelPhaseEncode": 13.935,
  "BaseResolution": 104,
  "CoilString": "C:HEA;HEP",
  "ConversionSoftware": "dcm2niix",
  "ConversionSoftwareVersion": "v1.0.20210317",
  "DerivedVendorReportedEchoSpacing": 0.000690017,
  "DeviceSerialNumber": "35450",
  "DwellTime": 2.5e-06,
  "EchoTime": 0.0348,
  "EffectiveEchoSpacing": 0.000690017,
  "FlipAngle": 55,
  "ImageComments": "Unaliased MB8/PE3 (remote)",
  "ImageOrientationPatientDICOM": [0.999976, 0.000596284, 0.00695574, 3.36649e-08, 0.996345, -0.0854169],
  "ImageType": [
    "ORIGINAL",
    "PRIMARY",
    "M",
    "MB",
    "ND",
    "MOSAIC"
],
  "ImagingFrequency": 123.235,
  "InPlanePhaseEncodingDirectionDICOM": "COL",
  "InstitutionAddress": "Univeristy Ave. 197,Newark,North East,US,07102-1814",
  "InstitutionName": "RUBIC",
  "InstitutionalDepartmentName": "Department",
  "MRAcquisitionType": "2D",
  "MagneticFieldStrength": 3,
  "Manufacturer": "Siemens",
  "ManufacturersModelName": "TrioTim",
  "Modality": "MR",
  "MultibandAccelerationFactor": 8,
  "PartialFourier": 0.875,
  "PatientPosition": "HFS",
  "PercentPhaseFOV": 100,
  "PercentSampling": 100,
  "PhaseEncodingDirection": "j-",
  "PhaseEncodingSteps": 91,
  "PhaseResolution": 1,
  "PixelBandwidth": 1923,
  "ProcedureStepDescription": "Cole^Michael",
  "ProtocolName": "cmrr_mbep2d_bold_2mm_MB8_Task_8x",
  "PulseSequenceDetails": "%CustomerSeq%\\cmrr_mbep2d_bold",
  "ReceiveCoilName": "32Ch_Head",
  "ReconMatrixPE": 104,
  "RepetitionTime": 0.785,
  "SAR": 0.135054,
  "ScanOptions": "PFP\\FS",
  "ScanningSequence": "EP",
  "SequenceName": "epfid2d1_104",
  "SequenceVariant": "SK\\SS",
  "SeriesDescription": "cmrr_mbep2d_bold_2mm_MB8_Task_8x",
  "SeriesNumber": 19,
  "ShimSetting": [2123, -356, -7519, 575, 113, 169, -261, 80],
  "SliceThickness": 2,
  "SliceTiming": [0, 0.4375, 0.0875, 0.525, 0.175, 0.6125, 0.2625, 0.7, 0.35, 0, 0.4375, 0.0875, 0.525, 0.175, 0.6125, 0.2625, 0.7, 0.35, 0, 0.4375, 0.0875, 0.525, 0.175, 0.6125, 0.2625, 0.7, 0.35, 0, 0.4375, 0.0875, 0.525, 0.175, 0.6125, 0.2625, 0.7, 0.35, 0, 0.4375, 0.0875, 0.525, 0.175, 0.6125, 0.2625, 0.7, 0.35, 0, 0.4375, 0.0875, 0.525, 0.175, 0.6125, 0.2625, 0.7, 0.35, 0, 0.4375, 0.0875, 0.525, 0.175, 0.6125, 0.2625, 0.7, 0.35, 0, 0.4375, 0.0875, 0.525, 0.175, 0.6125, 0.2625, 0.7, 0.35],
  "SoftwareVersions": "syngo MR B19",
  "SpacingBetweenSlices": 2,
  "StationName": "MRC35450",
  "TaskName": "cpro",
  "TotalReadoutTime": 0.0710717,
  "TxRefAmp": 344.365,
  "dcmmeta_affine": [
    [-1.9999512434005737, 6.732970803113858e-08, 0.013962511904537678, 103.50179290771484],
    [-0.0011925677536055446, 1.9926905632019043, -0.1708296686410904, -82.31025695800781],
    [0.013911489397287369, 0.17083384096622467, 1.9926420450210571, -110.3884048461914],
    [0.0, 0.0, 0.0, 1.0]
],
  "dcmmeta_reorient_transform": [
    [0.0, -1.0, 0.0, 103.0],
    [1.0, 0.0, 0.0, 0.0],
    [0.0, 0.0, 1.0, 0.0],
    [0.0, 0.0, 0.0, 1.0]
],
  "dcmmeta_shape": [104, 104, 72, 581],
  "dcmmeta_slice_dim": 2,
  "dcmmeta_version": 0.6,
  "global": {
    "const": {
      "AcquisitionMatrix": [104, 0, 0, 104],
      "AngioFlag": "N",
      "BitsAllocated": 16,
      "BitsStored": 12,
      "Columns": 936,
      "EchoNumbers": 1,
      "EchoTime": 34.8,
      "EchoTrainLength": 1,
      "FlipAngle": 55.0,
      "HighBit": 11,
      "ImageOrientationPatient": [0.99997563073306, 0.00059628386872, 0.00695574478872, 3.3664854e-08, 0.9963452965109, -0.0854169194048],
      "ImagePositionPatient": [-935.48155239231, -952.39227071238, -27.512824690175],
      "ImageType": [
        "ORIGINAL",
        "PRIMARY",
        "M",
        "MB",
        "ND",
        "MOSAIC"
],
      "ImagedNucleus": "1H",
      "ImagingFrequency": 123.234711,
      "InPlanePhaseEncodingDirection": "COL",
      "MRAcquisitionType": "2D",
      "MagneticFieldStrength": 3.0,
      "Manufacturer": "SIEMENS",
      "ManufacturerModelName": "TrioTim",
      "Modality": "MR",
      "NumberOfAverages": 1.0,
      "NumberOfPhaseEncodingSteps": 91,
      "PercentPhaseFieldOfView": 100.0,
      "PercentSampling": 100.0,
      "PerformedProcedureStepStartTime": "134130.437000",
      "PhotometricInterpretation": "MONOCHROME2",
      "PixelBandwidth": 1923.0,
      "PixelRepresentation": 0,
      "PixelSpacing": [2.0, 2.0],
      "ProtocolName": "cmrr_mbep2d_bold_2mm_MB8_Task_8x",
      "RepetitionTime": 785.0,
      "Rows": 936,
      "SAR": 0.13505422233751,
      "SamplesPerPixel": 1,
      "ScanOptions": [
        "PFP",
        "FS"
],
      "ScanningSequence": "EP",
      "SequenceName": "epfid2d1_104",
      "SequenceVariant": [
        "SK",
        "SS"
],
      "SeriesDescription": "cmrr_mbep2d_bold_2mm_MB8_Task_8x",
      "SeriesNumber": 19,
      "SeriesTime": "152224.609000",
      "SliceLocation": -102.22920054448,
      "SliceThickness": 2.0,
      "SmallestImagePixelValue": 0,
      "SoftwareVersions": "syngo MR B19",
      "SpacingBetweenSlices": 1.9999999535702,
      "SpecificCharacterSet": "ISO_IR 100",
      "StudyID": "1",
      "StudyTime": "134130.406000",
      "TransmitCoilName": "Body",
      "VariableFlipAngleFlag": "N",
      "WindowCenterWidthExplanation": "Algo1",
      "dBdt": 0.0},
    "slices": {}
  },
  "time": {
    "samples": {
      "AcquisitionNumber": [1, 2, 3, 4, 5, 6, 7, 8, 9, 10, 11, 12, 13, 14, 15, 16, 17, 18, 19, 20, 21, 22, 23, 24, 25, 26, 27, 28, 29, 30, 31, 32, 33, 34, 35, 36, 37, 38, 39, 40, 41, 42, 43, 44, 45, 46, 47, 48, 49, 50, 51, 52, 53, 54, 55, 56, 57, 58, 59, 60, 61, 62, 63, 64, 65, 66, 67, 68, 69, 70, 71, 72, 73, 74, 75, 76, 77, 78, 79, 80, 81, 82, 83, 84, 85, 86, 87, 88, 89, 90, 91, 92, 93, 94, 95, 96, 97, 98, 99, 100, 101, 102, 103, 104, 105, 106, 107, 108, 109, 110, 111, 112, 113, 114, 115, 116, 117, 118, 119, 120, 121, 122, 123, 124, 125, 126, 127, 128, 129, 130, 131, 132, 133, 134, 135, 136, 137, 138, 139, 140, 141, 142, 143, 144, 145, 146, 147, 148, 149, 150, 151, 152, 153, 154, 155, 156, 157, 158, 159, 160, 161, 162, 163, 164, 165, 166, 167, 168, 169, 170, 171, 172, 173, 174, 175, 176, 177, 178, 179, 180, 181, 182, 183, 184, 185, 186, 187, 188, 189, 190, 191, 192, 193, 194, 195, 196, 197, 198, 199, 200, 201, 202, 203, 204, 205, 206, 207, 208, 209, 210, 211, 212, 213, 214, 215, 216, 217, 218, 219, 220, 221, 222, 223, 224, 225, 226, 227, 228, 229, 230, 231, 232, 233, 234, 235, 236, 237, 238, 239, 240, 241, 242, 243, 244, 245, 246, 247, 248, 249, 250, 251, 252, 253, 254, 255, 256, 257, 258, 259, 260, 261, 262, 263, 264, 265, 266, 267, 268, 269, 270, 271, 272, 273, 274, 275, 276, 277, 278, 279, 280, 281, 282, 283, 284, 285, 286, 287, 288, 289, 290, 291, 292, 293, 294, 295, 296, 297, 298, 299, 300, 301, 302, 303, 304, 305, 306, 307, 308, 309, 310, 311, 312, 313, 314, 315, 316, 317, 318, 319, 320, 321, 322, 323, 324, 325, 326, 327, 328, 329, 330, 331, 332, 333, 334, 335, 336, 337, 338, 339, 340, 341, 342, 343, 344, 345, 346, 347, 348, 349, 350, 351, 352, 353, 354, 355, 356, 357, 358, 359, 360, 361, 362, 363, 364, 365, 366, 367, 368, 369, 370, 371, 372, 373, 374, 375, 376, 377, 378, 379, 380, 381, 382, 383, 384, 385, 386, 387, 388, 389, 390, 391, 392, 393, 394, 395, 396, 397, 398, 399, 400, 401, 402, 403, 404, 405, 406, 407, 408, 409, 410, 411, 412, 413, 414, 415, 416, 417, 418, 419, 420, 421, 422, 423, 424, 425, 426, 427, 428, 429, 430, 431, 432, 433, 434, 435, 436, 437, 438, 439, 440, 441, 442, 443, 444, 445, 446, 447, 448, 449, 450, 451, 452, 453, 454, 455, 456, 457, 458, 459, 460, 461, 462, 463, 464, 465, 466, 467, 468, 469, 470, 471, 472, 473, 474, 475, 476, 477, 478, 479, 480, 481, 482, 483, 484, 485, 486, 487, 488, 489, 490, 491, 492, 493, 494, 495, 496, 497, 498, 499, 500, 501, 502, 503, 504, 505, 506, 507, 508, 509, 510, 511, 512, 513, 514, 515, 516, 517, 518, 519, 520, 521, 522, 523, 524, 525, 526, 527, 528, 529, 530, 531, 532, 533, 534, 535, 536, 537, 538, 539, 540, 541, 542, 543, 544, 545, 546, 547, 548, 549, 550, 551, 552, 553, 554, 555, 556, 557, 558, 559, 560, 561, 562, 563, 564, 565, 566, 567, 568, 569, 570, 571, 572, 573, 574, 575, 576, 577, 578, 579, 580, 581],
      "AcquisitionTime": ["152155.690000", "152156.477500", "152157.265000", "152158.055000", "152158.842500", "152159.630000", "152200.420000", "152201.207500", "152201.995000", "152202.782500", "152203.572500", "152204.360000", "152205.147500", "152205.935000", "152206.725000", "152207.512500", "152208.300000", "152209.087500", "152209.877500", "152210.665000", "152211.452500", "152212.240000", "152213.030000", "152213.817500", "152214.605000", "152215.392500", "152216.182500", "152216.970000", "152217.757500", "152218.547500", "152219.335000", "152220.122500", "152220.910000", "152221.700000", "152222.487500", "152223.275000", "152224.062500", "152224.852500", "152225.640000", "152226.427500", "152227.215000", "152228.005000", "152228.792500", "152229.580000", "152230.367500", "152231.157500", "152231.945000", "152232.732500", "152233.520000", "152234.310000", "152235.097500", "152235.885000", "152236.675000", "152237.462500", "152238.250000", "152239.037500", "152239.827500", "152240.615000", "152241.402500", "152242.190000", "152242.980000", "152243.767500", "152244.555000", "152245.342500", "152246.132500", "152246.920000", "152247.707500", "152248.495000", "152249.285000", "152250.072500", "152250.860000", "152251.647500", "152252.437500", "152253.225000", "152254.012500", "152254.802500", "152255.590000", "152256.377500", "152257.165000", "152257.955000", "152258.742500", "152259.530000", "152300.317500", "152301.107500", "152301.895000", "152302.682500", "152303.470000", "152304.260000", "152305.047500", "152305.835000", "152306.622500", "152307.412500", "152308.200000", "152308.987500", "152309.775000", "152310.565000", "152311.352500", "152312.140000", "152312.930000", "152313.717500", "152314.505000", "152315.292500", "152316.082500", "152316.870000", "152317.657500", "152318.445000", "152319.235000", "152320.022500", "152320.810000", "152321.597500", "152322.387500", "152323.175000", "152323.962500", "152324.750000", "152325.540000", "152326.327500", "152327.115000", "152327.902500", "152328.692500", "152329.480000", "152330.267500", "152331.057500", "152331.845000", "152332.632500", "152333.420000", "152334.210000", "152334.997500", "152335.785000", "152336.572500", "152337.362500", "152338.150000", "152338.937500", "152339.725000", "152340.515000", "152341.302500", "152342.090000", "152342.877500", "152343.667500", "152344.455000", "152345.242500", "152346.030000", "152346.820000", "152347.607500", "152348.395000", "152349.185000", "152349.972500", "152350.760000", "152351.547500", "152352.337500", "152353.125000", "152353.912500", "152354.700000", "152355.490000", "152356.277500", "152357.065000", "152357.852500", "152358.642500", "152359.430000", "152400.217500", "152401.005000", "152401.795000", "152402.582500", "152403.370000", "152404.157500", "152404.947500", "152405.735000", "152406.522500", "152407.312500", "152408.100000", "152408.887500", "152409.675000", "152410.465000", "152411.252500", "152412.040000", "152412.827500", "152413.617500", "152414.405000", "152415.192500", "152415.980000", "152416.770000", "152417.557500", "152418.345000", "152419.132500", "152419.922500", "152420.710000", "152421.497500", "152422.285000", "152423.075000", "152423.862500", "152424.650000", "152425.440000", "152426.227500", "152427.015000", "152427.802500", "152428.592500", "152429.380000", "152430.167500", "152430.955000", "152431.745000", "152432.532500", "152433.320000", "152434.107500", "152434.897500", "152435.685000", "152436.472500", "152437.260000", "152438.050000", "152438.837500", "152439.625000", "152440.412500", "152441.202500", "152441.990000", "152442.777500", "152443.567500", "152444.355000", "152445.142500", "152445.930000", "152446.720000", "152447.507500", "152448.295000", "152449.082500", "152449.872500", "152450.660000", "152451.447500", "152452.235000", "152453.025000", "152453.812500", "152454.600000", "152455.387500", "152456.177500", "152456.965000", "152457.752500", "152458.540000", "152459.330000", "152500.117500", "152500.905000", "152501.695000", "152502.482500", "152503.270000", "152504.057500", "152504.847500", "152505.635000", "152506.422500", "152507.210000", "152508.000000", "152508.787500", "152509.575000", "152510.362500", "152511.152500", "152511.940000", "152512.727500", "152513.515000", "152514.305000", "152515.092500", "152515.880000", "152516.670000", "152517.457500", "152518.245000", "152519.032500", "152519.822500", "152520.610000", "152521.397500", "152522.185000", "152522.975000", "152523.762500", "152524.550000", "152525.337500", "152526.127500", "152526.915000", "152527.702500", "152528.490000", "152529.280000", "152530.067500", "152530.855000", "152531.642500", "152532.432500", "152533.220000", "152534.007500", "152534.797500", "152535.585000", "152536.372500", "152537.160000", "152537.950000", "152538.737500", "152539.525000", "152540.312500", "152541.102500", "152541.890000", "152542.677500", "152543.465000", "152544.255000", "152545.042500", "152545.830000", "152546.617500", "152547.407500", "152548.195000", "152548.982500", "152549.770000", "152550.560000", "152551.347500", "152552.135000", "152552.925000", "152553.712500", "152554.500000", "152555.287500", "152556.077500", "152556.865000", "152557.652500", "152558.440000", "152559.230000", "152600.017500", "152600.805000", "152601.592500", "152602.382500", "152603.170000", "152603.957500", "152604.745000", "152605.535000", "152606.322500", "152607.110000", "152607.897500", "152608.687500", "152609.475000", "152610.262500", "152611.052500", "152611.840000", "152612.627500", "152613.415000", "152614.205000", "152614.992500", "152615.780000", "152616.567500", "152617.357500", "152618.145000", "152618.932500", "152619.720000", "152620.510000", "152621.297500", "152622.085000", "152622.872500", "152623.662500", "152624.450000", "152625.237500", "152626.025000", "152626.815000", "152627.602500", "152628.390000", "152629.180000", "152629.967500", "152630.755000", "152631.542500", "152632.332500", "152633.120000", "152633.907500", "152634.695000", "152635.485000", "152636.272500", "152637.060000", "152637.847500", "152638.637500", "152639.425000", "152640.212500", "152641.000000", "152641.790000", "152642.577500", "152643.365000", "152644.152500", "152644.942500", "152645.730000", "152646.517500", "152647.307500", "152648.095000", "152648.882500", "152649.670000", "152650.460000", "152651.247500", "152652.035000", "152652.822500", "152653.612500", "152654.400000", "152655.187500", "152655.975000", "152656.765000", "152657.552500", "152658.340000", "152659.127500", "152659.917500", "152700.705000", "152701.492500", "152702.280000", "152703.070000", "152703.857500", "152704.645000", "152705.435000", "152706.222500", "152707.010000", "152707.797500", "152708.587500", "152709.375000", "152710.162500", "152710.950000", "152711.740000", "152712.527500", "152713.315000", "152714.102500", "152714.892500", "152715.680000", "152716.467500", "152717.255000", "152718.045000", "152718.832500", "152719.620000", "152720.407500", "152721.197500", "152721.985000", "152722.772500", "152723.562500", "152724.350000", "152725.137500", "152725.925000", "152726.715000", "152727.502500", "152728.290000", "152729.077500", "152729.867500", "152730.655000", "152731.442500", "152732.230000", "152733.020000", "152733.807500", "152734.595000", "152735.382500", "152736.172500", "152736.960000", "152737.747500", "152738.535000", "152739.325000", "152740.112500", "152740.900000", "152741.690000", "152742.477500", "152743.265000", "152744.052500", "152744.842500", "152745.630000", "152746.417500", "152747.205000", "152747.995000", "152748.782500", "152749.570000", "152750.357500", "152751.147500", "152751.935000", "152752.722500", "152753.510000", "152754.300000", "152755.087500", "152755.875000", "152756.662500", "152757.452500", "152758.240000", "152759.027500", "152759.817500", "152800.605000", "152801.392500", "152802.180000", "152802.970000", "152803.757500", "152804.545000", "152805.332500", "152806.122500", "152806.910000", "152807.697500", "152808.485000", "152809.275000", "152810.062500", "152810.850000", "152811.637500", "152812.427500", "152813.215000", "152814.002500", "152814.790000", "152815.580000", "152816.367500", "152817.155000", "152817.945000", "152818.732500", "152819.520000", "152820.307500", "152821.097500", "152821.885000", "152822.672500", "152823.460000", "152824.250000", "152825.037500", "152825.825000", "152826.612500", "152827.402500", "152828.190000", "152828.977500", "152829.765000", "152830.555000", "152831.342500", "152832.130000", "152832.920000", "152833.707500", "152834.495000", "152835.282500", "152836.072500", "152836.860000", "152837.647500", "152838.435000", "152839.225000", "152840.012500", "152840.800000", "152841.587500", "152842.377500", "152843.165000", "152843.952500", "152844.740000", "152845.530000", "152846.317500", "152847.105000", "152847.892500", "152848.682500", "152849.470000", "152850.257500", "152851.047500", "152851.835000", "152852.622500", "152853.410000", "152854.200000", "152854.987500", "152855.775000", "152856.562500", "152857.352500", "152858.140000", "152858.927500", "152859.715000", "152900.505000", "152901.292500", "152902.080000", "152902.867500", "152903.657500", "152904.445000", "152905.232500", "152906.020000", "152906.810000", "152907.597500", "152908.385000", "152909.175000", "152909.962500", "152910.750000", "152911.537500", "152912.327500", "152913.115000", "152913.902500", "152914.690000", "152915.480000", "152916.267500", "152917.055000", "152917.842500", "152918.632500", "152919.420000", "152920.207500", "152920.995000", "152921.785000", "152922.572500", "152923.360000", "152924.147500", "152924.937500", "152925.725000", "152926.512500", "152927.302500", "152928.090000", "152928.877500", "152929.665000", "152930.455000", "152931.242500", "152932.030000", "152932.817500"],
      "ContentTime": ["152224.625000", "152224.625000", "152224.625000", "152224.625000", "152224.625000", "152224.640000", "152224.640000", "152224.640000", "152224.640000", "152224.640000", "152224.640000", "152224.640000", "152224.656000", "152224.656000", "152224.656000", "152224.656000", "152224.656000", "152224.656000", "152224.656000", "152224.671000", "152224.671000", "152224.671000", "152224.671000", "152224.671000", "152224.671000", "152224.671000", "152224.671000", "152224.687000", "152224.687000", "152224.687000", "152224.687000", "152224.687000", "152224.687000", "152244.593000", "152244.593000", "152244.593000", "152244.593000", "152244.593000", "152244.593000", "152244.593000", "152244.609000", "152244.609000", "152244.609000", "152244.609000", "152244.609000", "152244.609000", "152244.625000", "152244.625000", "152244.625000", "152244.625000", "152244.625000", "152244.625000", "152244.640000", "152244.640000", "152244.640000", "152244.640000", "152244.640000", "152244.640000", "152244.656000", "152304.593000", "152304.593000", "152304.593000", "152304.593000", "152304.593000", "152304.593000", "152304.593000", "152304.609000", "152304.609000", "152304.609000", "152304.609000", "152304.609000", "152304.609000", "152304.609000", "152304.609000", "152304.625000", "152304.625000", "152304.625000", "152304.625000", "152304.625000", "152304.625000", "152304.625000", "152304.640000", "152304.640000", "152304.640000", "152324.593000", "152324.593000", "152324.593000", "152324.593000", "152324.593000", "152324.593000", "152324.593000", "152324.609000", "152324.609000", "152324.609000", "152324.609000", "152324.609000", "152324.609000", "152324.609000", "152324.625000", "152324.625000", "152324.625000", "152324.625000", "152324.625000", "152324.625000", "152324.625000", "152324.625000", "152324.640000", "152324.640000", "152324.640000", "152324.640000", "152344.593000", "152344.593000", "152344.593000", "152344.593000", "152344.593000", "152344.593000", "152344.593000", "152344.609000", "152344.609000", "152344.609000", "152344.609000", "152344.609000", "152344.609000", "152344.609000", "152344.625000", "152344.625000", "152344.625000", "152344.625000", "152344.625000", "152344.625000", "152344.625000", "152344.640000", "152344.640000", "152344.640000", "152344.640000", "152404.593000", "152404.593000", "152404.593000", "152404.593000", "152404.593000", "152404.593000", "152404.593000", "152404.609000", "152404.609000", "152404.609000", "152404.609000", "152404.609000", "152404.625000", "152404.625000", "152404.625000", "152404.625000", "152404.625000", "152404.625000", "152404.625000", "152404.640000", "152404.640000", "152404.640000", "152404.640000", "152404.640000", "152404.640000", "152404.640000", "152424.593000", "152424.593000", "152424.593000", "152424.593000", "152424.609000", "152424.609000", "152424.609000", "152424.625000", "152424.625000", "152424.625000", "152424.625000", "152424.625000", "152424.625000", "152424.625000", "152424.625000", "152424.640000", "152424.640000", "152424.640000", "152424.640000", "152424.640000", "152424.640000", "152424.640000", "152424.656000", "152424.656000", "152424.656000", "152444.593000", "152444.593000", "152444.593000", "152444.593000", "152444.593000", "152444.593000", "152444.593000", "152444.609000", "152444.609000", "152444.609000", "152444.609000", "152444.609000", "152444.609000", "152444.609000", "152444.609000", "152444.625000", "152444.625000", "152444.625000", "152444.625000", "152444.625000", "152444.625000", "152444.625000", "152444.640000", "152444.640000", "152444.640000", "152444.640000", "152504.593000", "152504.593000", "152504.593000", "152504.593000", "152504.593000", "152504.593000", "152504.593000", "152504.609000", "152504.609000", "152504.609000", "152504.609000", "152504.609000", "152504.609000", "152504.625000", "152504.625000", "152504.625000", "152504.625000", "152504.625000", "152504.625000", "152504.625000", "152504.640000", "152504.640000", "152504.640000", "152504.640000", "152504.640000", "152524.593000", "152524.593000", "152524.593000", "152524.593000", "152524.593000", "152524.593000", "152524.609000", "152524.609000", "152524.609000", "152524.609000", "152524.609000", "152524.609000", "152524.625000", "152524.625000", "152524.625000", "152524.625000", "152524.625000", "152524.625000", "152524.625000", "152524.625000", "152524.640000", "152524.640000", "152524.640000", "152524.640000", "152524.640000", "152524.640000", "152544.593000", "152544.593000", "152544.593000", "152544.593000", "152544.593000", "152544.593000", "152544.593000", "152544.609000", "152544.609000", "152544.609000", "152544.609000", "152544.609000", "152544.609000", "152544.609000", "152544.609000", "152544.625000", "152544.625000", "152544.625000", "152544.625000", "152544.625000", "152544.625000", "152544.625000", "152544.640000", "152544.640000", "152544.640000", "152604.593000", "152604.593000", "152604.593000", "152604.593000", "152604.593000", "152604.593000", "152604.593000", "152604.609000", "152604.609000", "152604.609000", "152604.609000", "152604.609000", "152604.609000", "152604.609000", "152604.609000", "152604.625000", "152604.625000", "152604.625000", "152604.625000", "152604.625000", "152604.625000", "152604.625000", "152604.640000", "152604.640000", "152604.640000", "152604.640000", "152624.593000", "152624.593000", "152624.593000", "152624.593000", "152624.593000", "152624.593000", "152624.593000", "152624.609000", "152624.609000", "152624.609000", "152624.609000", "152624.609000", "152624.609000", "152624.609000", "152624.625000", "152624.625000", "152624.625000", "152624.625000", "152624.625000", "152624.625000", "152624.625000", "152624.640000", "152624.640000", "152624.640000", "152624.640000", "152644.593000", "152644.593000", "152644.593000", "152644.593000", "152644.593000", "152644.593000", "152644.593000", "152644.609000", "152644.609000", "152644.609000", "152644.609000", "152644.609000", "152644.609000", "152644.609000", "152644.609000", "152644.625000", "152644.625000", "152644.625000", "152644.625000", "152644.625000", "152644.625000", "152644.625000", "152644.640000", "152644.640000", "152644.640000", "152644.640000", "152704.593000", "152704.593000", "152704.593000", "152704.593000", "152704.593000", "152704.593000", "152704.593000", "152704.609000", "152704.609000", "152704.609000", "152704.609000", "152704.609000", "152704.609000", "152704.625000", "152704.625000", "152704.625000", "152704.625000", "152704.625000", "152704.625000", "152704.625000", "152704.640000", "152704.640000", "152704.640000", "152704.640000", "152704.640000", "152724.593000", "152724.593000", "152724.593000", "152724.593000", "152724.593000", "152724.593000", "152724.593000", "152724.609000", "152724.609000", "152724.609000", "152724.609000", "152724.609000", "152724.609000", "152724.609000", "152724.625000", "152724.625000", "152724.625000", "152724.625000", "152724.625000", "152724.625000", "152724.625000", "152724.625000", "152724.640000", "152724.640000", "152724.640000", "152724.640000", "152744.593000", "152744.593000", "152744.593000", "152744.593000", "152744.593000", "152744.593000", "152744.593000", "152744.609000", "152744.609000", "152744.609000", "152744.609000", "152744.609000", "152744.609000", "152744.609000", "152744.625000", "152744.625000", "152744.625000", "152744.625000", "152744.625000", "152744.625000", "152744.625000", "152744.625000", "152744.640000", "152744.640000", "152744.640000", "152804.593000", "152804.593000", "152804.593000", "152804.593000", "152804.593000", "152804.593000", "152804.593000", "152804.609000", "152804.609000", "152804.609000", "152804.625000", "152804.625000", "152804.625000", "152804.625000", "152804.625000", "152804.640000", "152804.640000", "152804.640000", "152804.640000", "152804.640000", "152804.640000", "152804.640000", "152804.640000", "152804.656000", "152804.656000", "152824.593000", "152824.593000", "152824.593000", "152824.593000", "152824.593000", "152824.593000", "152824.593000", "152824.609000", "152824.609000", "152824.609000", "152824.609000", "152824.609000", "152824.609000", "152824.609000", "152824.625000", "152824.625000", "152824.625000", "152824.625000", "152824.625000", "152824.625000", "152824.625000", "152824.625000", "152824.640000", "152824.640000", "152824.640000", "152824.640000", "152844.593000", "152844.593000", "152844.593000", "152844.593000", "152844.593000", "152844.593000", "152844.593000", "152844.609000", "152844.609000", "152844.609000", "152844.609000", "152844.609000", "152844.609000", "152844.609000", "152844.625000", "152844.625000", "152844.625000", "152844.625000", "152844.625000", "152844.625000", "152844.640000", "152844.640000", "152844.640000", "152844.640000", "152844.640000", "152904.593000", "152904.593000", "152904.593000", "152904.593000", "152904.593000", "152904.593000", "152904.609000", "152904.609000", "152904.609000", "152904.609000", "152904.609000", "152904.609000", "152904.625000", "152904.625000", "152904.625000", "152904.625000", "152904.625000", "152904.625000", "152904.625000", "152904.640000", "152904.640000", "152904.640000", "152904.640000", "152904.640000", "152904.640000", "152904.640000", "152924.593000", "152924.593000", "152924.593000", "152924.593000", "152924.593000", "152924.593000", "152924.593000", "152924.609000", "152924.609000", "152924.609000", "152924.609000", "152924.609000", "152924.609000", "152924.609000", "152924.625000", "152924.625000", "152924.625000", "152924.625000", "152924.625000", "152924.625000", "152924.625000", "152924.625000", "152924.640000", "152924.640000", "152924.640000", "152934.156000", "152934.156000", "152934.156000", "152934.156000", "152934.171000", "152934.171000", "152934.171000", "152934.171000", "152934.171000", "152934.171000", "152934.171000", "152934.171000", "152934.187000"],
