{
  "AcquisitionMatrixPE": 104,
  "AcquisitionNumber": 1,
  "AcquisitionTime": "17:03:44.715000",
  "BandwidthPerPixelPhaseEncode": 13.935,
  "BaseResolution": 104,
  "CoilString": "C:HEA;HEP",
  "ConversionSoftware": "dcm2niix",
  "ConversionSoftwareVersion": "v1.0.20210317",
  "DerivedVendorReportedEchoSpacing": 0.000690017,
  "DeviceSerialNumber": "35450",
  "DwellTime": 2.5e-06,
  "EchoTime": 0.0348,
  "EffectiveEchoSpacing": 0.000690017,
  "FlipAngle": 55,
  "ImageComments": "Unaliased MB8/PE3 (remote)",
  "ImageOrientationPatientDICOM": [0.999998, 0.00018282, 0.0018644, -4.7429e-08, 0.995229, -0.0975651],
  "ImageType": [
    "ORIGINAL",
    "PRIMARY",
    "M",
    "MB",
    "ND",
    "MOSAIC"
],
  "ImagingFrequency": 123.235,
  "InPlanePhaseEncodingDirectionDICOM": "COL",
  "InstitutionAddress": "Univeristy Ave. 197,Newark,North East,US,07102-1814",
  "InstitutionName": "RUBIC",
  "InstitutionalDepartmentName": "Department",
  "MRAcquisitionType": "2D",
  "MagneticFieldStrength": 3,
  "Manufacturer": "Siemens",
  "ManufacturersModelName": "TrioTim",
  "Modality": "MR",
  "MultibandAccelerationFactor": 8,
  "PartialFourier": 0.875,
  "PatientPosition": "HFS",
  "PercentPhaseFOV": 100,
  "PercentSampling": 100,
  "PhaseEncodingDirection": "j-",
  "PhaseEncodingSteps": 91,
  "PhaseResolution": 1,
  "PixelBandwidth": 1923,
  "ProcedureStepDescription": "Cole^Michael",
  "ProtocolName": "cmrr_mbep2d_bold_2mm_MB8_Task_8x",
  "PulseSequenceDetails": "%CustomerSeq%\\cmrr_mbep2d_bold",
  "ReceiveCoilName": "32Ch_Head",
  "ReconMatrixPE": 104,
  "RepetitionTime": 0.785,
  "SAR": 0.103367,
  "ScanOptions": "PFP\\FS",
  "ScanningSequence": "EP",
  "SequenceName": "epfid2d1_104",
  "SequenceVariant": "SK\\SS",
  "SeriesDescription": "cmrr_mbep2d_bold_2mm_MB8_Task_8x",
  "SeriesNumber": 23,
  "ShimSetting": [2141, -308, -7868, 436, 116, -229, 306, 114],
  "SliceThickness": 2,
  "SliceTiming": [0, 0.4375, 0.0875, 0.525, 0.175, 0.6125, 0.2625, 0.7, 0.35, 0, 0.4375, 0.0875, 0.525, 0.175, 0.6125, 0.2625, 0.7, 0.35, 0, 0.4375, 0.0875, 0.525, 0.175, 0.6125, 0.2625, 0.7, 0.35, 0, 0.4375, 0.0875, 0.525, 0.175, 0.6125, 0.2625, 0.7, 0.35, 0, 0.4375, 0.0875, 0.525, 0.175, 0.6125, 0.2625, 0.7, 0.35, 0, 0.4375, 0.0875, 0.525, 0.175, 0.6125, 0.2625, 0.7, 0.35, 0, 0.4375, 0.0875, 0.525, 0.175, 0.6125, 0.2625, 0.7, 0.35, 0, 0.4375, 0.0875, 0.525, 0.175, 0.6125, 0.2625, 0.7, 0.35],
  "SoftwareVersions": "syngo MR B19",
  "SpacingBetweenSlices": 2,
  "StationName": "MRC35450",
  "TaskName": "cpro",
  "TotalReadoutTime": 0.0710717,
  "TxRefAmp": 311.498,
  "dcmmeta_affine": [
    [-1.999996542930603, -9.485792418217898e-08, 0.003746682545170188, 103.17632293701172],
    [-0.00036563980393111706, 1.9904582500457764, -0.19512982666492462, -67.47405242919922],
    [0.003728798357769847, 0.19513016939163208, 1.9904547929763794, -103.73338317871094],
    [0.0, 0.0, 0.0, 1.0]
],
  "dcmmeta_reorient_transform": [
    [0.0, -1.0, 0.0, 103.0],
    [1.0, 0.0, 0.0, 0.0],
    [0.0, 0.0, 1.0, 0.0],
    [0.0, 0.0, 0.0, 1.0]
],
  "dcmmeta_shape": [104, 104, 72, 581],
  "dcmmeta_slice_dim": 2,
  "dcmmeta_version": 0.6,
  "global": {
    "const": {
      "AcquisitionMatrix": [104, 0, 0, 104],
      "AngioFlag": "N",
      "BitsAllocated": 16,
      "BitsStored": 12,
      "Columns": 936,
      "EchoNumbers": 1,
      "EchoTime": 34.8,
      "EchoTrainLength": 1,
      "FlipAngle": 55.0,
      "HighBit": 11,
      "ImageOrientationPatient": [0.9999982452947, 0.0001828199023, 0.00186439920576, -4.7428962e-08, 0.99522914660055, -0.0975650847216],
      "ImagePositionPatient": [-935.17481101937, -965.72590628021, -4.0120032057953],
      "ImageType": [
        "ORIGINAL",
        "PRIMARY",
        "M",
        "MB",
        "ND",
        "MOSAIC"
],
      "ImagedNucleus": "1H",
      "ImagingFrequency": 123.234914,
      "InPlanePhaseEncodingDirection": "COL",
      "MRAcquisitionType": "2D",
      "MagneticFieldStrength": 3.0,
      "Manufacturer": "SIEMENS",
      "ManufacturerModelName": "TrioTim",
      "Modality": "MR",
      "NumberOfAverages": 1.0,
      "NumberOfPhaseEncodingSteps": 91,
      "PercentPhaseFieldOfView": 100.0,
      "PercentSampling": 100.0,
      "PerformedProcedureStepStartTime": "152947.468000",
      "PhotometricInterpretation": "MONOCHROME2",
      "PixelBandwidth": 1923.0,
      "PixelRepresentation": 0,
      "PixelSpacing": [2.0, 2.0],
      "ProtocolName": "cmrr_mbep2d_bold_2mm_MB8_Task_8x",
      "RepetitionTime": 785.0,
      "Rows": 936,
      "SAR": 0.10336698472513,
      "SamplesPerPixel": 1,
      "ScanOptions": [
        "PFP",
        "FS"
],
      "ScanningSequence": "EP",
      "SequenceName": "epfid2d1_104",
      "SequenceVariant": [
        "SK",
        "SS"
],
      "SeriesDescription": "cmrr_mbep2d_bold_2mm_MB8_Task_8x",
      "SeriesNumber": 23,
      "SeriesTime": "170403.500000",
      "SliceLocation": -96.461918400881,
      "SliceThickness": 2.0,
      "SmallestImagePixelValue": 0,
      "SoftwareVersions": "syngo MR B19",
      "SpacingBetweenSlices": 1.9999999671437,
      "SpecificCharacterSet": "ISO_IR 100",
      "StudyID": "1",
      "StudyTime": "152947.421000",
      "TransmitCoilName": "Body",
      "VariableFlipAngleFlag": "N",
      "WindowCenterWidthExplanation": "Algo1",
      "dBdt": 0.0},
    "slices": {}
  },
  "time": {
    "samples": {
      "AcquisitionNumber": [1, 2, 3, 4, 5, 6, 7, 8, 9, 10, 11, 12, 13, 14, 15, 16, 17, 18, 19, 20, 21, 22, 23, 24, 25, 26, 27, 28, 29, 30, 31, 32, 33, 34, 35, 36, 37, 38, 39, 40, 41, 42, 43, 44, 45, 46, 47, 48, 49, 50, 51, 52, 53, 54, 55, 56, 57, 58, 59, 60, 61, 62, 63, 64, 65, 66, 67, 68, 69, 70, 71, 72, 73, 74, 75, 76, 77, 78, 79, 80, 81, 82, 83, 84, 85, 86, 87, 88, 89, 90, 91, 92, 93, 94, 95, 96, 97, 98, 99, 100, 101, 102, 103, 104, 105, 106, 107, 108, 109, 110, 111, 112, 113, 114, 115, 116, 117, 118, 119, 120, 121, 122, 123, 124, 125, 126, 127, 128, 129, 130, 131, 132, 133, 134, 135, 136, 137, 138, 139, 140, 141, 142, 143, 144, 145, 146, 147, 148, 149, 150, 151, 152, 153, 154, 155, 156, 157, 158, 159, 160, 161, 162, 163, 164, 165, 166, 167, 168, 169, 170, 171, 172, 173, 174, 175, 176, 177, 178, 179, 180, 181, 182, 183, 184, 185, 186, 187, 188, 189, 190, 191, 192, 193, 194, 195, 196, 197, 198, 199, 200, 201, 202, 203, 204, 205, 206, 207, 208, 209, 210, 211, 212, 213, 214, 215, 216, 217, 218, 219, 220, 221, 222, 223, 224, 225, 226, 227, 228, 229, 230, 231, 232, 233, 234, 235, 236, 237, 238, 239, 240, 241, 242, 243, 244, 245, 246, 247, 248, 249, 250, 251, 252, 253, 254, 255, 256, 257, 258, 259, 260, 261, 262, 263, 264, 265, 266, 267, 268, 269, 270, 271, 272, 273, 274, 275, 276, 277, 278, 279, 280, 281, 282, 283, 284, 285, 286, 287, 288, 289, 290, 291, 292, 293, 294, 295, 296, 297, 298, 299, 300, 301, 302, 303, 304, 305, 306, 307, 308, 309, 310, 311, 312, 313, 314, 315, 316, 317, 318, 319, 320, 321, 322, 323, 324, 325, 326, 327, 328, 329, 330, 331, 332, 333, 334, 335, 336, 337, 338, 339, 340, 341, 342, 343, 344, 345, 346, 347, 348, 349, 350, 351, 352, 353, 354, 355, 356, 357, 358, 359, 360, 361, 362, 363, 364, 365, 366, 367, 368, 369, 370, 371, 372, 373, 374, 375, 376, 377, 378, 379, 380, 381, 382, 383, 384, 385, 386, 387, 388, 389, 390, 391, 392, 393, 394, 395, 396, 397, 398, 399, 400, 401, 402, 403, 404, 405, 406, 407, 408, 409, 410, 411, 412, 413, 414, 415, 416, 417, 418, 419, 420, 421, 422, 423, 424, 425, 426, 427, 428, 429, 430, 431, 432, 433, 434, 435, 436, 437, 438, 439, 440, 441, 442, 443, 444, 445, 446, 447, 448, 449, 450, 451, 452, 453, 454, 455, 456, 457, 458, 459, 460, 461, 462, 463, 464, 465, 466, 467, 468, 469, 470, 471, 472, 473, 474, 475, 476, 477, 478, 479, 480, 481, 482, 483, 484, 485, 486, 487, 488, 489, 490, 491, 492, 493, 494, 495, 496, 497, 498, 499, 500, 501, 502, 503, 504, 505, 506, 507, 508, 509, 510, 511, 512, 513, 514, 515, 516, 517, 518, 519, 520, 521, 522, 523, 524, 525, 526, 527, 528, 529, 530, 531, 532, 533, 534, 535, 536, 537, 538, 539, 540, 541, 542, 543, 544, 545, 546, 547, 548, 549, 550, 551, 552, 553, 554, 555, 556, 557, 558, 559, 560, 561, 562, 563, 564, 565, 566, 567, 568, 569, 570, 571, 572, 573, 574, 575, 576, 577, 578, 579, 580, 581],
      "AcquisitionTime": ["170344.715000", "170345.502500", "170346.290000", "170347.080000", "170347.867500", "170348.655000", "170349.445000", "170350.232500", "170351.020000", "170351.807500", "170352.597500", "170353.385000", "170354.172500", "170354.960000", "170355.750000", "170356.537500", "170357.325000", "170358.112500", "170358.902500", "170359.690000", "170400.477500", "170401.265000", "170402.055000", "170402.842500", "170403.630000", "170404.417500", "170405.207500", "170405.995000", "170406.782500", "170407.572500", "170408.360000", "170409.147500", "170409.935000", "170410.725000", "170411.512500", "170412.300000", "170413.087500", "170413.877500", "170414.665000", "170415.452500", "170416.240000", "170417.030000", "170417.817500", "170418.605000", "170419.392500", "170420.182500", "170420.970000", "170421.757500", "170422.545000", "170423.335000", "170424.122500", "170424.910000", "170425.700000", "170426.487500", "170427.275000", "170428.062500", "170428.852500", "170429.640000", "170430.427500", "170431.215000", "170432.005000", "170432.792500", "170433.580000", "170434.367500", "170435.157500", "170435.945000", "170436.732500", "170437.520000", "170438.310000", "170439.097500", "170439.885000", "170440.672500", "170441.462500", "170442.250000", "170443.037500", "170443.827500", "170444.615000", "170445.402500", "170446.190000", "170446.980000", "170447.767500", "170448.555000", "170449.342500", "170450.132500", "170450.920000", "170451.707500", "170452.495000", "170453.285000", "170454.072500", "170454.860000", "170455.647500", "170456.437500", "170457.225000", "170458.012500", "170458.800000", "170459.590000", "170500.377500", "170501.165000", "170501.955000", "170502.742500", "170503.530000", "170504.317500", "170505.107500", "170505.895000", "170506.682500", "170507.470000", "170508.260000", "170509.047500", "170509.835000", "170510.622500", "170511.412500", "170512.200000", "170512.987500", "170513.775000", "170514.565000", "170515.352500", "170516.140000", "170516.927500", "170517.717500", "170518.505000", "170519.292500", "170520.082500", "170520.870000", "170521.657500", "170522.445000", "170523.235000", "170524.022500", "170524.810000", "170525.597500", "170526.387500", "170527.175000", "170527.962500", "170528.750000", "170529.540000", "170530.327500", "170531.115000", "170531.902500", "170532.692500", "170533.480000", "170534.267500", "170535.055000", "170535.845000", "170536.632500", "170537.420000", "170538.210000", "170538.997500", "170539.785000", "170540.572500", "170541.362500", "170542.150000", "170542.937500", "170543.725000", "170544.515000", "170545.302500", "170546.090000", "170546.877500", "170547.667500", "170548.455000", "170549.242500", "170550.030000", "170550.820000", "170551.607500", "170552.395000", "170553.185000", "170553.972500", "170554.760000", "170555.547500", "170556.337500", "170557.125000", "170557.912500", "170558.700000", "170559.490000", "170600.277500", "170601.065000", "170601.852500", "170602.642500", "170603.430000", "170604.217500", "170605.005000", "170605.795000", "170606.582500", "170607.370000", "170608.157500", "170608.947500", "170609.735000", "170610.522500", "170611.312500", "170612.100000", "170612.887500", "170613.675000", "170614.465000", "170615.252500", "170616.040000", "170616.827500", "170617.617500", "170618.405000", "170619.192500", "170619.980000", "170620.770000", "170621.557500", "170622.345000", "170623.132500", "170623.922500", "170624.710000", "170625.497500", "170626.285000", "170627.075000", "170627.862500", "170628.650000", "170629.440000", "170630.227500", "170631.015000", "170631.802500", "170632.592500", "170633.380000", "170634.167500", "170634.955000", "170635.745000", "170636.532500", "170637.320000", "170638.107500", "170638.897500", "170639.685000", "170640.472500", "170641.260000", "170642.050000", "170642.837500", "170643.625000", "170644.412500", "170645.202500", "170645.990000", "170646.777500", "170647.567500", "170648.355000", "170649.142500", "170649.930000", "170650.720000", "170651.507500", "170652.295000", "170653.082500", "170653.872500", "170654.660000", "170655.447500", "170656.235000", "170657.025000", "170657.812500", "170658.600000", "170659.387500", "170700.177500", "170700.965000", "170701.752500", "170702.540000", "170703.330000", "170704.117500", "170704.905000", "170705.695000", "170706.482500", "170707.270000", "170708.057500", "170708.847500", "170709.635000", "170710.422500", "170711.210000", "170712.000000", "170712.787500", "170713.575000", "170714.362500", "170715.152500", "170715.940000", "170716.727500", "170717.515000", "170718.305000", "170719.092500", "170719.880000", "170720.667500", "170721.457500", "170722.245000", "170723.032500", "170723.822500", "170724.610000", "170725.397500", "170726.185000", "170726.975000", "170727.762500", "170728.550000", "170729.337500", "170730.127500", "170730.915000", "170731.702500", "170732.490000", "170733.280000", "170734.067500", "170734.855000", "170735.642500", "170736.432500", "170737.220000", "170738.007500", "170738.795000", "170739.585000", "170740.372500", "170741.160000", "170741.950000", "170742.737500", "170743.525000", "170744.312500", "170745.102500", "170745.890000", "170746.677500", "170747.465000", "170748.255000", "170749.042500", "170749.830000", "170750.617500", "170751.407500", "170752.195000", "170752.982500", "170753.770000", "170754.560000", "170755.347500", "170756.135000", "170756.922500", "170757.712500", "170758.500000", "170759.287500", "170800.077500", "170800.865000", "170801.652500", "170802.440000", "170803.230000", "170804.017500", "170804.805000", "170805.592500", "170806.382500", "170807.170000", "170807.957500", "170808.745000", "170809.535000", "170810.322500", "170811.110000", "170811.897500", "170812.687500", "170813.475000", "170814.262500", "170815.050000", "170815.840000", "170816.627500", "170817.415000", "170818.205000", "170818.992500", "170819.780000", "170820.567500", "170821.357500", "170822.145000", "170822.932500", "170823.720000", "170824.510000", "170825.297500", "170826.085000", "170826.872500", "170827.662500", "170828.450000", "170829.237500", "170830.025000", "170830.815000", "170831.602500", "170832.390000", "170833.177500", "170833.967500", "170834.755000", "170835.542500", "170836.332500", "170837.120000", "170837.907500", "170838.695000", "170839.485000", "170840.272500", "170841.060000", "170841.847500", "170842.637500", "170843.425000", "170844.212500", "170845.000000", "170845.790000", "170846.577500", "170847.365000", "170848.152500", "170848.942500", "170849.730000", "170850.517500", "170851.305000", "170852.095000", "170852.882500", "170853.670000", "170854.460000", "170855.247500", "170856.035000", "170856.822500", "170857.612500", "170858.400000", "170859.187500", "170859.975000", "170900.765000", "170901.552500", "170902.340000", "170903.127500", "170903.917500", "170904.705000", "170905.492500", "170906.280000", "170907.070000", "170907.857500", "170908.645000", "170909.435000", "170910.222500", "170911.010000", "170911.797500", "170912.587500", "170913.375000", "170914.162500", "170914.950000", "170915.740000", "170916.527500", "170917.315000", "170918.102500", "170918.892500", "170919.680000", "170920.467500", "170921.255000", "170922.045000", "170922.832500", "170923.620000", "170924.407500", "170925.197500", "170925.985000", "170926.772500", "170927.562500", "170928.350000", "170929.137500", "170929.925000", "170930.715000", "170931.502500", "170932.290000", "170933.077500", "170933.867500", "170934.655000", "170935.442500", "170936.230000", "170937.020000", "170937.807500", "170938.595000", "170939.382500", "170940.172500", "170940.960000", "170941.747500", "170942.535000", "170943.325000", "170944.112500", "170944.900000", "170945.690000", "170946.477500", "170947.265000", "170948.052500", "170948.842500", "170949.630000", "170950.417500", "170951.205000", "170951.995000", "170952.782500", "170953.570000", "170954.357500", "170955.147500", "170955.935000", "170956.722500", "170957.510000", "170958.300000", "170959.087500", "170959.875000", "171000.662500", "171001.452500", "171002.240000", "171003.027500", "171003.817500", "171004.605000", "171005.392500", "171006.180000", "171006.970000", "171007.757500", "171008.545000", "171009.332500", "171010.122500", "171010.910000", "171011.697500", "171012.485000", "171013.275000", "171014.062500", "171014.850000", "171015.637500", "171016.427500", "171017.215000", "171018.002500", "171018.790000", "171019.580000", "171020.367500", "171021.155000", "171021.945000", "171022.732500", "171023.520000", "171024.307500", "171025.097500", "171025.885000", "171026.672500", "171027.460000", "171028.250000", "171029.037500", "171029.825000", "171030.612500", "171031.402500", "171032.190000", "171032.977500", "171033.765000", "171034.555000", "171035.342500", "171036.130000", "171036.917500", "171037.707500", "171038.495000", "171039.282500", "171040.072500", "171040.860000", "171041.647500", "171042.435000", "171043.225000", "171044.012500", "171044.800000", "171045.587500", "171046.377500", "171047.165000", "171047.952500", "171048.740000", "171049.530000", "171050.317500", "171051.105000", "171051.892500", "171052.682500", "171053.470000", "171054.257500", "171055.045000", "171055.835000", "171056.622500", "171057.410000", "171058.200000", "171058.987500", "171059.775000", "171100.562500", "171101.352500", "171102.140000", "171102.927500", "171103.715000", "171104.505000", "171105.292500", "171106.080000", "171106.867500", "171107.657500", "171108.445000", "171109.232500", "171110.020000", "171110.810000", "171111.597500", "171112.385000", "171113.172500", "171113.962500", "171114.750000", "171115.537500", "171116.327500", "171117.115000", "171117.902500", "171118.690000", "171119.480000", "171120.267500", "171121.055000", "171121.842500"],
      "ContentTime": ["170403.500000", "170403.500000", "170403.500000", "170403.515000", "170403.515000", "170403.515000", "170403.515000", "170403.515000", "170403.515000", "170403.515000", "170403.531000", "170403.531000", "170403.531000", "170403.531000", "170403.531000", "170403.531000", "170403.531000", "170403.546000", "170403.546000", "170403.546000", "170403.546000", "170423.468000", "170423.468000", "170423.484000", "170423.484000", "170423.484000", "170423.484000", "170423.484000", "170423.484000", "170423.484000", "170423.500000", "170423.500000", "170423.500000", "170423.500000", "170423.500000", "170423.500000", "170423.515000", "170423.515000", "170423.515000", "170423.515000", "170423.515000", "170423.531000", "170423.531000", "170423.531000", "170423.531000", "170423.531000", "170423.531000", "170443.468000", "170443.468000", "170443.484000", "170443.484000", "170443.484000", "170443.484000", "170443.484000", "170443.484000", "170443.484000", "170443.500000", "170443.500000", "170443.500000", "170443.500000", "170443.515000", "170443.515000", "170443.515000", "170443.515000", "170443.515000", "170443.515000", "170443.515000", "170443.531000", "170443.531000", "170443.531000", "170443.531000", "170443.531000", "170503.468000", "170503.468000", "170503.484000", "170503.484000", "170503.484000", "170503.484000", "170503.484000", "170503.484000", "170503.484000", "170503.500000", "170503.500000", "170503.500000", "170503.500000", "170503.500000", "170503.500000", "170503.500000", "170503.515000", "170503.515000", "170503.515000", "170503.515000", "170503.515000", "170503.515000", "170503.515000", "170503.531000", "170503.531000", "170503.531000", "170523.468000", "170523.468000", "170523.484000", "170523.484000", "170523.484000", "170523.484000", "170523.484000", "170523.484000", "170523.484000", "170523.500000", "170523.500000", "170523.500000", "170523.500000", "170523.500000", "170523.500000", "170523.515000", "170523.515000", "170523.515000", "170523.515000", "170523.515000", "170523.515000", "170523.515000", "170523.531000", "170523.531000", "170523.531000", "170543.468000", "170543.468000", "170543.484000", "170543.484000", "170543.484000", "170543.484000", "170543.484000", "170543.484000", "170543.484000", "170543.500000", "170543.500000", "170543.500000", "170543.500000", "170543.500000", "170543.500000", "170543.500000", "170543.515000", "170543.515000", "170543.515000", "170543.515000", "170543.515000", "170543.515000", "170543.515000", "170543.531000", "170543.531000", "170543.531000", "170603.468000", "170603.468000", "170603.484000", "170603.484000", "170603.484000", "170603.484000", "170603.484000", "170603.484000", "170603.484000", "170603.500000", "170603.500000", "170603.500000", "170603.500000", "170603.500000", "170603.500000", "170603.515000", "170603.515000", "170603.515000", "170603.515000", "170603.531000", "170603.531000", "170603.531000", "170603.531000", "170603.531000", "170603.531000", "170623.468000", "170623.468000", "170623.484000", "170623.484000", "170623.484000", "170623.484000", "170623.484000", "170623.484000", "170623.500000", "170623.500000", "170623.500000", "170623.500000", "170623.500000", "170623.500000", "170623.500000", "170623.515000", "170623.515000", "170623.515000", "170623.515000", "170623.531000", "170623.531000", "170623.531000", "170623.531000", "170623.531000", "170623.531000", "170623.546000", "170643.468000", "170643.468000", "170643.484000", "170643.484000", "170643.484000", "170643.484000", "170643.484000", "170643.484000", "170643.484000", "170643.500000", "170643.500000", "170643.500000", "170643.500000", "170643.500000", "170643.500000", "170643.500000", "170643.515000", "170643.515000", "170643.515000", "170643.515000", "170643.515000", "170643.531000", "170643.531000", "170643.531000", "170643.531000", "170703.468000", "170703.468000", "170703.484000", "170703.484000", "170703.484000", "170703.484000", "170703.484000", "170703.484000", "170703.484000", "170703.500000", "170703.500000", "170703.500000", "170703.500000", "170703.500000", "170703.500000", "170703.515000", "170703.515000", "170703.515000", "170703.515000", "170703.515000", "170703.515000", "170703.515000", "170703.531000", "170703.531000", "170703.531000", "170703.531000", "170723.468000", "170723.468000", "170723.484000", "170723.484000", "170723.484000", "170723.484000", "170723.484000", "170723.484000", "170723.500000", "170723.500000", "170723.500000", "170723.500000", "170723.500000", "170723.500000", "170723.500000", "170723.515000", "170723.515000", "170723.515000", "170723.515000", "170723.515000", "170723.515000", "170723.515000", "170723.515000", "170723.531000", "170723.531000", "170743.468000", "170743.468000", "170743.484000", "170743.484000", "170743.484000", "170743.484000", "170743.484000", "170743.484000", "170743.484000", "170743.500000", "170743.500000", "170743.500000", "170743.500000", "170743.500000", "170743.515000", "170743.515000", "170743.515000", "170743.515000", "170743.515000", "170743.515000", "170743.515000", "170743.531000", "170743.531000", "170743.531000", "170743.531000", "170743.531000", "170803.468000", "170803.468000", "170803.484000", "170803.484000", "170803.484000", "170803.484000", "170803.484000", "170803.484000", "170803.484000", "170803.500000", "170803.500000", "170803.500000", "170803.500000", "170803.500000", "170803.500000", "170803.500000", "170803.515000", "170803.515000", "170803.515000", "170803.515000", "170803.515000", "170803.515000", "170803.515000", "170803.531000", "170803.531000", "170823.468000", "170823.468000", "170823.484000", "170823.500000", "170823.500000", "170823.500000", "170823.500000", "170823.500000", "170823.500000", "170823.515000", "170823.515000", "170823.515000", "170823.515000", "170823.515000", "170823.515000", "170823.515000", "170823.531000", "170823.531000", "170823.531000", "170823.531000", "170823.531000", "170823.531000", "170823.531000", "170823.546000", "170823.546000", "170843.468000", "170843.468000", "170843.484000", "170843.484000", "170843.484000", "170843.484000", "170843.484000", "170843.484000", "170843.500000", "170843.500000", "170843.500000", "170843.500000", "170843.500000", "170843.500000", "170843.500000", "170843.515000", "170843.515000", "170843.515000", "170843.515000", "170843.515000", "170843.515000", "170843.515000", "170843.531000", "170843.531000", "170843.531000", "170843.531000", "170903.468000", "170903.468000", "170903.484000", "170903.484000", "170903.484000", "170903.484000", "170903.500000", "170903.500000", "170903.500000", "170903.500000", "170903.515000", "170903.515000", "170903.515000", "170903.515000", "170903.515000", "170903.515000", "170903.531000", "170903.531000", "170903.531000", "170903.531000", "170903.531000", "170903.546000", "170903.546000", "170903.546000", "170903.546000", "170923.468000", "170923.468000", "170923.484000", "170923.484000", "170923.484000", "170923.484000", "170923.484000", "170923.484000", "170923.484000", "170923.500000", "170923.500000", "170923.500000", "170923.500000", "170923.515000", "170923.515000", "170923.515000", "170923.515000", "170923.515000", "170923.515000", "170923.515000", "170923.531000", "170923.531000", "170923.531000", "170923.531000", "170923.531000", "170923.531000", "170943.468000", "170943.468000", "170943.484000", "170943.484000", "170943.484000", "170943.484000", "170943.484000", "170943.500000", "170943.500000", "170943.500000", "170943.500000", "170943.500000", "170943.500000", "170943.515000", "170943.515000", "170943.515000", "170943.515000", "170943.515000", "170943.515000", "170943.515000", "170943.531000", "170943.531000", "170943.531000", "170943.531000", "170943.531000", "171003.468000", "171003.468000", "171003.484000", "171003.484000", "171003.484000", "171003.484000", "171003.484000", "171003.484000", "171003.484000", "171003.500000", "171003.500000", "171003.500000", "171003.500000", "171003.500000", "171003.500000", "171003.500000", "171003.515000", "171003.515000", "171003.515000", "171003.515000", "171003.515000", "171003.515000", "171003.515000", "171003.531000", "171003.531000", "171003.531000", "171023.468000", "171023.468000", "171023.484000", "171023.484000", "171023.484000", "171023.484000", "171023.484000", "171023.484000", "171023.484000", "171023.500000", "171023.500000", "171023.500000", "171023.500000", "171023.500000", "171023.500000", "171023.515000", "171023.515000", "171023.515000", "171023.515000", "171023.515000", "171023.515000", "171023.531000", "171023.531000", "171023.531000", "171023.531000", "171043.468000", "171043.484000", "171043.484000", "171043.484000", "171043.484000", "171043.484000", "171043.500000", "171043.500000", "171043.500000", "171043.500000", "171043.500000", "171043.500000", "171043.515000", "171043.515000", "171043.515000", "171043.515000", "171043.515000", "171043.515000", "171043.515000", "171043.531000", "171043.531000", "171043.531000", "171043.531000", "171043.531000", "171043.531000", "171043.531000", "171103.468000", "171103.468000", "171103.484000", "171103.484000", "171103.484000", "171103.484000", "171103.484000", "171103.484000", "171103.484000", "171103.500000", "171103.500000", "171103.500000", "171103.500000", "171103.500000", "171103.500000", "171103.500000", "171103.515000", "171103.515000", "171103.515000", "171103.515000", "171103.515000", "171103.515000", "171103.531000", "171103.531000", "171103.531000", "171122.515000", "171122.515000", "171122.515000", "171122.531000", "171122.531000", "171122.531000", "171122.531000", "171122.531000", "171122.531000", "171122.531000", "171122.546000", "171122.546000", "171122.546000", "171122.546000", "171122.546000", "171122.546000", "171122.562000", "171122.562000", "171122.562000", "171122.562000", "171122.562000", "171122.562000", "171122.562000", "171122.578000", "171122.578000"],
      "DataSetTrailingPadding": [
        "\u0000\u0000\u0000\u0000\u0000\u0000\u0000\u0000\u0000\u0000\u0000\u0000\u0000\u0000\u0000\u0000\u0000\u0000\u0000\u0000\u0000\u0000\u0000\u0000\u0000\u0000\u0000\u0000\u0000\u0000\u0000\u0000\u0000\u0000\u0000\u0000\u0000\u0000\u0000\u0000\u0000\u0000\u0000\u0000\u0000\u0000\u0000\u0000\u0000\u0000\u0000\u0000\u0000\u0000\u0000\u0000\u0000\u0000\u0000\u0000\u0000\u0000\u0000\u0000\u0000\u0000\u0000\u0000\u0000\u0000\u0000\u0000\u0000\u0000\u0000\u0000\u0000\u0000\u0000\u0000\u0000\u0000\u0000\u0000\u0000\u0000\u0000\u0000\u0000\u0000\u0000\u0000\u0000\u0000\u0000\u0000\u0000\u0000\u0000\u0000\u0000\u0000\u0000\u0000\u0000\u0000\u0000\u0000\u0000\u0000\u0000\u0000\u0000\u0000\u0000\u0000\u0000\u0000\u0000\u0000\u0000\u0000\u0000\u0000\u0000\u0000\u0000\u0000\u0000\u0000\u0000\u0000\u0000\u0000\u0000\u0000\u0000\u0000\u0000\u0000\u0000\u0000\u0000\u0000\u0000\u0000\u0000\u0000\u0000\u0000\u0000\u0000\u0000\u0000\u0000\u0000\u0000\u0000\u0000\u0000\u0000\u0000\u0000\u0000\u0000\u0000\u0000\u0000\u0000\u0000\u0000\u0000\u0000\u0000\u0000\u0000\u0000\u0000\u0000\u0000\u0000\u0000\u0000\u0000\u0000\u0000\u0000\u0000\u0000\u0000\u0000\u0000\u0000\u0000\u0000\u0000\u0000\u0000\u0000\u0000\u0000\u0000\u0000\u0000\u0000\u0000\u0000\u0000\u0000\u0000\u0000\u0000\u0000\u0000\u0000\u0000\u0000\u0000\u0000\u0000\u0000\u0000\u0000\u0000\u0000\u0000\u0000\u0000\u0000\u0000\u0000\u0000\u0000\u0000\u0000\u0000\u0000\u0000\u0000\u0000\u0000\u0000\u0000\u0000\u0000\u0000\u0000\u0000\u0000\u0000",
