{
  "AcquisitionMatrixPE": 104,
  "AcquisitionNumber": 1,
  "AcquisitionTime": "16:55:43.722500",
  "BandwidthPerPixelPhaseEncode": 13.935,
  "BaseResolution": 104,
  "CoilString": "C:HEA;HEP",
  "ConversionSoftware": "dcm2niix",
  "ConversionSoftwareVersion": "v1.0.20210317",
  "DerivedVendorReportedEchoSpacing": 0.000690017,
  "DeviceSerialNumber": "35450",
  "DwellTime": 2.5e-06,
  "EchoTime": 0.0348,
  "EffectiveEchoSpacing": 0.000690017,
  "FlipAngle": 55,
  "ImageComments": "Unaliased MB8/PE3 (remote)",
  "ImageOrientationPatientDICOM": [0.999998, 0.00018282, 0.0018644, -4.7429e-08, 0.995229, -0.0975651],
  "ImageType": [
    "ORIGINAL",
    "PRIMARY",
    "M",
    "MB",
    "ND",
    "MOSAIC"
],
  "ImagingFrequency": 123.235,
  "InPlanePhaseEncodingDirectionDICOM": "COL",
  "InstitutionAddress": "Univeristy Ave. 197,Newark,North East,US,07102-1814",
  "InstitutionName": "RUBIC",
  "InstitutionalDepartmentName": "Department",
  "MRAcquisitionType": "2D",
  "MagneticFieldStrength": 3,
  "Manufacturer": "Siemens",
  "ManufacturersModelName": "TrioTim",
  "Modality": "MR",
  "MultibandAccelerationFactor": 8,
  "PartialFourier": 0.875,
  "PatientPosition": "HFS",
  "PercentPhaseFOV": 100,
  "PercentSampling": 100,
  "PhaseEncodingDirection": "j-",
  "PhaseEncodingSteps": 91,
  "PhaseResolution": 1,
  "PixelBandwidth": 1923,
  "ProcedureStepDescription": "Cole^Michael",
  "ProtocolName": "cmrr_mbep2d_bold_2mm_MB8_Task_8x",
  "PulseSequenceDetails": "%CustomerSeq%\\cmrr_mbep2d_bold",
  "ReceiveCoilName": "32Ch_Head",
  "ReconMatrixPE": 104,
  "RepetitionTime": 0.785,
  "SAR": 0.103367,
  "ScanOptions": "PFP\\FS",
  "ScanningSequence": "EP",
  "SequenceName": "epfid2d1_104",
  "SequenceVariant": "SK\\SS",
  "SeriesDescription": "cmrr_mbep2d_bold_2mm_MB8_Task_8x",
  "SeriesNumber": 21,
  "ShimSetting": [2141, -308, -7868, 436, 116, -229, 306, 114],
  "SliceThickness": 2,
  "SliceTiming": [0, 0.4375, 0.0875, 0.525, 0.175, 0.6125, 0.2625, 0.7, 0.35, 0, 0.4375, 0.0875, 0.525, 0.175, 0.6125, 0.2625, 0.7, 0.35, 0, 0.4375, 0.0875, 0.525, 0.175, 0.6125, 0.2625, 0.7, 0.35, 0, 0.4375, 0.0875, 0.525, 0.175, 0.6125, 0.2625, 0.7, 0.35, 0, 0.4375, 0.0875, 0.525, 0.175, 0.6125, 0.2625, 0.7, 0.35, 0, 0.4375, 0.0875, 0.525, 0.175, 0.6125, 0.2625, 0.7, 0.35, 0, 0.4375, 0.0875, 0.525, 0.175, 0.6125, 0.2625, 0.7, 0.35, 0, 0.4375, 0.0875, 0.525, 0.175, 0.6125, 0.2625, 0.7, 0.35],
  "SoftwareVersions": "syngo MR B19",
  "SpacingBetweenSlices": 2,
  "StationName": "MRC35450",
  "TaskName": "cpro",
  "TotalReadoutTime": 0.0710717,
  "TxRefAmp": 311.498,
  "dcmmeta_affine": [
    [-1.999996542930603, -9.485792418217898e-08, 0.003746682545170188, 103.17632293701172],
    [-0.00036563980393111706, 1.9904582500457764, -0.19512982666492462, -67.47405242919922],
    [0.003728798357769847, 0.19513016939163208, 1.9904547929763794, -103.73338317871094],
    [0.0, 0.0, 0.0, 1.0]
],
  "dcmmeta_reorient_transform": [
    [0.0, -1.0, 0.0, 103.0],
    [1.0, 0.0, 0.0, 0.0],
    [0.0, 0.0, 1.0, 0.0],
    [0.0, 0.0, 0.0, 1.0]
],
  "dcmmeta_shape": [104, 104, 72, 581],
  "dcmmeta_slice_dim": 2,
  "dcmmeta_version": 0.6,
  "global": {
    "const": {
      "AcquisitionMatrix": [104, 0, 0, 104],
      "AngioFlag": "N",
      "BitsAllocated": 16,
      "BitsStored": 12,
      "Columns": 936,
      "EchoNumbers": 1,
      "EchoTime": 34.8,
      "EchoTrainLength": 1,
      "FlipAngle": 55.0,
      "HighBit": 11,
      "ImageOrientationPatient": [0.9999982452947, 0.0001828199023, 0.00186439920576, -4.7428962e-08, 0.99522914660055, -0.0975650847216],
      "ImagePositionPatient": [-935.17481101937, -965.72590628021, -4.0120032057953],
      "ImageType": [
        "ORIGINAL",
        "PRIMARY",
        "M",
        "MB",
        "ND",
        "MOSAIC"
],
      "ImagedNucleus": "1H",
      "ImagingFrequency": 123.234914,
      "InPlanePhaseEncodingDirection": "COL",
      "MRAcquisitionType": "2D",
      "MagneticFieldStrength": 3.0,
      "Manufacturer": "SIEMENS",
      "ManufacturerModelName": "TrioTim",
      "Modality": "MR",
      "NumberOfAverages": 1.0,
      "NumberOfPhaseEncodingSteps": 91,
      "PercentPhaseFieldOfView": 100.0,
      "PercentSampling": 100.0,
      "PerformedProcedureStepStartTime": "152947.468000",
      "PhotometricInterpretation": "MONOCHROME2",
      "PixelBandwidth": 1923.0,
      "PixelRepresentation": 0,
      "PixelSpacing": [2.0, 2.0],
      "ProtocolName": "cmrr_mbep2d_bold_2mm_MB8_Task_8x",
      "RepetitionTime": 785.0,
      "Rows": 936,
      "SAR": 0.10336698472513,
      "SamplesPerPixel": 1,
      "ScanOptions": [
        "PFP",
        "FS"
],
      "ScanningSequence": "EP",
      "SequenceName": "epfid2d1_104",
      "SequenceVariant": [
        "SK",
        "SS"
],
      "SeriesDescription": "cmrr_mbep2d_bold_2mm_MB8_Task_8x",
      "SeriesNumber": 21,
      "SeriesTime": "165615.421000",
      "SliceLocation": -96.461918400881,
      "SliceThickness": 2.0,
      "SmallestImagePixelValue": 0,
      "SoftwareVersions": "syngo MR B19",
      "SpacingBetweenSlices": 1.9999999671437,
      "SpecificCharacterSet": "ISO_IR 100",
      "StudyID": "1",
      "StudyTime": "152947.421000",
      "TransmitCoilName": "Body",
      "VariableFlipAngleFlag": "N",
      "WindowCenterWidthExplanation": "Algo1",
      "dBdt": 0.0},
    "slices": {}
  },
  "time": {
    "samples": {
      "AcquisitionNumber": [1, 2, 3, 4, 5, 6, 7, 8, 9, 10, 11, 12, 13, 14, 15, 16, 17, 18, 19, 20, 21, 22, 23, 24, 25, 26, 27, 28, 29, 30, 31, 32, 33, 34, 35, 36, 37, 38, 39, 40, 41, 42, 43, 44, 45, 46, 47, 48, 49, 50, 51, 52, 53, 54, 55, 56, 57, 58, 59, 60, 61, 62, 63, 64, 65, 66, 67, 68, 69, 70, 71, 72, 73, 74, 75, 76, 77, 78, 79, 80, 81, 82, 83, 84, 85, 86, 87, 88, 89, 90, 91, 92, 93, 94, 95, 96, 97, 98, 99, 100, 101, 102, 103, 104, 105, 106, 107, 108, 109, 110, 111, 112, 113, 114, 115, 116, 117, 118, 119, 120, 121, 122, 123, 124, 125, 126, 127, 128, 129, 130, 131, 132, 133, 134, 135, 136, 137, 138, 139, 140, 141, 142, 143, 144, 145, 146, 147, 148, 149, 150, 151, 152, 153, 154, 155, 156, 157, 158, 159, 160, 161, 162, 163, 164, 165, 166, 167, 168, 169, 170, 171, 172, 173, 174, 175, 176, 177, 178, 179, 180, 181, 182, 183, 184, 185, 186, 187, 188, 189, 190, 191, 192, 193, 194, 195, 196, 197, 198, 199, 200, 201, 202, 203, 204, 205, 206, 207, 208, 209, 210, 211, 212, 213, 214, 215, 216, 217, 218, 219, 220, 221, 222, 223, 224, 225, 226, 227, 228, 229, 230, 231, 232, 233, 234, 235, 236, 237, 238, 239, 240, 241, 242, 243, 244, 245, 246, 247, 248, 249, 250, 251, 252, 253, 254, 255, 256, 257, 258, 259, 260, 261, 262, 263, 264, 265, 266, 267, 268, 269, 270, 271, 272, 273, 274, 275, 276, 277, 278, 279, 280, 281, 282, 283, 284, 285, 286, 287, 288, 289, 290, 291, 292, 293, 294, 295, 296, 297, 298, 299, 300, 301, 302, 303, 304, 305, 306, 307, 308, 309, 310, 311, 312, 313, 314, 315, 316, 317, 318, 319, 320, 321, 322, 323, 324, 325, 326, 327, 328, 329, 330, 331, 332, 333, 334, 335, 336, 337, 338, 339, 340, 341, 342, 343, 344, 345, 346, 347, 348, 349, 350, 351, 352, 353, 354, 355, 356, 357, 358, 359, 360, 361, 362, 363, 364, 365, 366, 367, 368, 369, 370, 371, 372, 373, 374, 375, 376, 377, 378, 379, 380, 381, 382, 383, 384, 385, 386, 387, 388, 389, 390, 391, 392, 393, 394, 395, 396, 397, 398, 399, 400, 401, 402, 403, 404, 405, 406, 407, 408, 409, 410, 411, 412, 413, 414, 415, 416, 417, 418, 419, 420, 421, 422, 423, 424, 425, 426, 427, 428, 429, 430, 431, 432, 433, 434, 435, 436, 437, 438, 439, 440, 441, 442, 443, 444, 445, 446, 447, 448, 449, 450, 451, 452, 453, 454, 455, 456, 457, 458, 459, 460, 461, 462, 463, 464, 465, 466, 467, 468, 469, 470, 471, 472, 473, 474, 475, 476, 477, 478, 479, 480, 481, 482, 483, 484, 485, 486, 487, 488, 489, 490, 491, 492, 493, 494, 495, 496, 497, 498, 499, 500, 501, 502, 503, 504, 505, 506, 507, 508, 509, 510, 511, 512, 513, 514, 515, 516, 517, 518, 519, 520, 521, 522, 523, 524, 525, 526, 527, 528, 529, 530, 531, 532, 533, 534, 535, 536, 537, 538, 539, 540, 541, 542, 543, 544, 545, 546, 547, 548, 549, 550, 551, 552, 553, 554, 555, 556, 557, 558, 559, 560, 561, 562, 563, 564, 565, 566, 567, 568, 569, 570, 571, 572, 573, 574, 575, 576, 577, 578, 579, 580, 581],
      "AcquisitionTime": ["165543.722500", "165544.510000", "165545.297500", "165546.085000", "165546.875000", "165547.662500", "165548.450000", "165549.237500", "165550.027500", "165550.815000", "165551.602500", "165552.392500", "165553.180000", "165553.967500", "165554.755000", "165555.545000", "165556.332500", "165557.120000", "165557.907500", "165558.697500", "165559.485000", "165600.272500", "165601.060000", "165601.850000", "165602.637500", "165603.425000", "165604.212500", "165605.002500", "165605.790000", "165606.577500", "165607.365000", "165608.155000", "165608.942500", "165609.730000", "165610.520000", "165611.307500", "165612.095000", "165612.882500", "165613.672500", "165614.460000", "165615.247500", "165616.035000", "165616.825000", "165617.612500", "165618.400000", "165619.187500", "165619.977500", "165620.765000", "165621.552500", "165622.340000", "165623.130000", "165623.917500", "165624.705000", "165625.492500", "165626.282500", "165627.070000", "165627.857500", "165628.647500", "165629.435000", "165630.222500", "165631.010000", "165631.800000", "165632.587500", "165633.375000", "165634.162500", "165634.952500", "165635.740000", "165636.527500", "165637.315000", "165638.105000", "165638.892500", "165639.680000", "165640.467500", "165641.257500", "165642.045000", "165642.832500", "165643.620000", "165644.410000", "165645.197500", "165645.985000", "165646.775000", "165647.562500", "165648.350000", "165649.137500", "165649.927500", "165650.715000", "165651.502500", "165652.290000", "165653.080000", "165653.867500", "165654.655000", "165655.442500", "165656.232500", "165657.020000", "165657.807500", "165658.595000", "165659.385000", "165700.172500", "165700.960000", "165701.750000", "165702.537500", "165703.325000", "165704.112500", "165704.902500", "165705.690000", "165706.477500", "165707.265000", "165708.055000", "165708.842500", "165709.630000", "165710.417500", "165711.207500", "165711.995000", "165712.782500", "165713.570000", "165714.360000", "165715.147500", "165715.935000", "165716.722500", "165717.512500", "165718.300000", "165719.087500", "165719.877500", "165720.665000", "165721.452500", "165722.240000", "165723.030000", "165723.817500", "165724.605000", "165725.392500", "165726.182500", "165726.970000", "165727.757500", "165728.545000", "165729.335000", "165730.122500", "165730.910000", "165731.697500", "165732.487500", "165733.275000", "165734.062500", "165734.850000", "165735.640000", "165736.427500", "165737.215000", "165738.005000", "165738.792500", "165739.580000", "165740.367500", "165741.157500", "165741.945000", "165742.732500", "165743.520000", "165744.310000", "165745.097500", "165745.885000", "165746.672500", "165747.462500", "165748.250000", "165749.037500", "165749.825000", "165750.615000", "165751.402500", "165752.190000", "165752.977500", "165753.767500", "165754.555000", "165755.342500", "165756.132500", "165756.920000", "165757.707500", "165758.495000", "165759.285000", "165800.072500", "165800.860000", "165801.647500", "165802.437500", "165803.225000", "165804.012500", "165804.800000", "165805.590000", "165806.377500", "165807.165000", "165807.952500", "165808.742500", "165809.530000", "165810.317500", "165811.105000", "165811.895000", "165812.682500", "165813.470000", "165814.260000", "165815.047500", "165815.835000", "165816.622500", "165817.412500", "165818.200000", "165818.987500", "165819.775000", "165820.565000", "165821.352500", "165822.140000", "165822.927500", "165823.717500", "165824.505000", "165825.292500", "165826.080000", "165826.870000", "165827.657500", "165828.445000", "165829.232500", "165830.022500", "165830.810000", "165831.597500", "165832.387500", "165833.175000", "165833.962500", "165834.750000", "165835.540000", "165836.327500", "165837.115000", "165837.902500", "165838.692500", "165839.480000", "165840.267500", "165841.055000", "165841.845000", "165842.632500", "165843.420000", "165844.207500", "165844.997500", "165845.785000", "165846.572500", "165847.360000", "165848.150000", "165848.937500", "165849.725000", "165850.515000", "165851.302500", "165852.090000", "165852.877500", "165853.667500", "165854.455000", "165855.242500", "165856.030000", "165856.820000", "165857.607500", "165858.395000", "165859.182500", "165859.972500", "165900.760000", "165901.547500", "165902.335000", "165903.125000", "165903.912500", "165904.700000", "165905.487500", "165906.277500", "165907.065000", "165907.852500", "165908.642500", "165909.430000", "165910.217500", "165911.005000", "165911.795000", "165912.582500", "165913.370000", "165914.157500", "165914.947500", "165915.735000", "165916.522500", "165917.310000", "165918.100000", "165918.887500", "165919.675000", "165920.462500", "165921.252500", "165922.040000", "165922.827500", "165923.615000", "165924.405000", "165925.192500", "165925.980000", "165926.770000", "165927.557500", "165928.345000", "165929.132500", "165929.922500", "165930.710000", "165931.497500", "165932.285000", "165933.075000", "165933.862500", "165934.650000", "165935.437500", "165936.227500", "165937.015000", "165937.802500", "165938.590000", "165939.380000", "165940.167500", "165940.955000", "165941.742500", "165942.532500", "165943.320000", "165944.107500", "165944.897500", "165945.685000", "165946.472500", "165947.260000", "165948.050000", "165948.837500", "165949.625000", "165950.412500", "165951.202500", "165951.990000", "165952.777500", "165953.565000", "165954.355000", "165955.142500", "165955.930000", "165956.717500", "165957.507500", "165958.295000", "165959.082500", "165959.870000", "170000.660000", "170001.447500", "170002.235000", "170003.025000", "170003.812500", "170004.600000", "170005.387500", "170006.177500", "170006.965000", "170007.752500", "170008.540000", "170009.330000", "170010.117500", "170010.905000", "170011.692500", "170012.482500", "170013.270000", "170014.057500", "170014.845000", "170015.635000", "170016.422500", "170017.210000", "170018.000000", "170018.787500", "170019.575000", "170020.362500", "170021.152500", "170021.940000", "170022.727500", "170023.515000", "170024.305000", "170025.092500", "170025.880000", "170026.667500", "170027.457500", "170028.245000", "170029.032500", "170029.820000", "170030.610000", "170031.397500", "170032.185000", "170032.972500", "170033.762500", "170034.550000", "170035.337500", "170036.127500", "170036.915000", "170037.702500", "170038.490000", "170039.280000", "170040.067500", "170040.855000", "170041.642500", "170042.432500", "170043.220000", "170044.007500", "170044.795000", "170045.585000", "170046.372500", "170047.160000", "170047.947500", "170048.737500", "170049.525000", "170050.312500", "170051.100000", "170051.890000", "170052.677500", "170053.465000", "170054.255000", "170055.042500", "170055.830000", "170056.617500", "170057.407500", "170058.195000", "170058.982500", "170059.770000", "170100.560000", "170101.347500", "170102.135000", "170102.922500", "170103.712500", "170104.500000", "170105.287500", "170106.075000", "170106.865000", "170107.652500", "170108.440000", "170109.227500", "170110.017500", "170110.805000", "170111.592500", "170112.382500", "170113.170000", "170113.957500", "170114.745000", "170115.535000", "170116.322500", "170117.110000", "170117.897500", "170118.687500", "170119.475000", "170120.262500", "170121.050000", "170121.840000", "170122.627500", "170123.415000", "170124.202500", "170124.992500", "170125.780000", "170126.567500", "170127.355000", "170128.145000", "170128.932500", "170129.720000", "170130.510000", "170131.297500", "170132.085000", "170132.872500", "170133.662500", "170134.450000", "170135.237500", "170136.025000", "170136.815000", "170137.602500", "170138.390000", "170139.177500", "170139.967500", "170140.755000", "170141.542500", "170142.330000", "170143.120000", "170143.907500", "170144.695000", "170145.482500", "170146.272500", "170147.060000", "170147.847500", "170148.637500", "170149.425000", "170150.212500", "170151.000000", "170151.790000", "170152.577500", "170153.365000", "170154.152500", "170154.942500", "170155.730000", "170156.517500", "170157.305000", "170158.095000", "170158.882500", "170159.670000", "170200.457500", "170201.247500", "170202.035000", "170202.822500", "170203.610000", "170204.400000", "170205.187500", "170205.975000", "170206.765000", "170207.552500", "170208.340000", "170209.127500", "170209.917500", "170210.705000", "170211.492500", "170212.280000", "170213.070000", "170213.857500", "170214.645000", "170215.432500", "170216.222500", "170217.010000", "170217.797500", "170218.585000", "170219.375000", "170220.162500", "170220.950000", "170221.737500", "170222.527500", "170223.315000", "170224.102500", "170224.892500", "170225.680000", "170226.467500", "170227.255000", "170228.045000", "170228.832500", "170229.620000", "170230.407500", "170231.197500", "170231.985000", "170232.772500", "170233.560000", "170234.350000", "170235.137500", "170235.925000", "170236.712500", "170237.502500", "170238.290000", "170239.077500", "170239.865000", "170240.655000", "170241.442500", "170242.230000", "170243.020000", "170243.807500", "170244.595000", "170245.382500", "170246.172500", "170246.960000", "170247.747500", "170248.535000", "170249.325000", "170250.112500", "170250.900000", "170251.687500", "170252.477500", "170253.265000", "170254.052500", "170254.840000", "170255.630000", "170256.417500", "170257.205000", "170257.992500", "170258.782500", "170259.570000", "170300.357500", "170301.147500", "170301.935000", "170302.722500", "170303.510000", "170304.300000", "170305.087500", "170305.875000", "170306.662500", "170307.452500", "170308.240000", "170309.027500", "170309.815000", "170310.605000", "170311.392500", "170312.180000", "170312.967500", "170313.757500", "170314.545000", "170315.332500", "170316.120000", "170316.910000", "170317.697500", "170318.485000", "170319.275000", "170320.062500", "170320.850000"],
      "ContentTime": ["165615.421000", "165615.421000", "165615.437000", "165615.437000", "165615.437000", "165615.437000", "165615.453000", "165615.453000", "165615.453000", "165615.453000", "165615.453000", "165615.453000", "165615.453000", "165615.468000", "165615.468000", "165615.468000", "165615.468000", "165615.468000", "165615.468000", "165615.468000", "165615.484000", "165615.484000", "165615.484000", "165615.484000", "165615.484000", "165615.484000", "165615.500000", "165615.500000", "165615.500000", "165615.500000", "165615.500000", "165615.500000", "165615.500000", "165615.515000", "165615.515000", "165615.515000", "165615.515000", "165635.390000", "165635.390000", "165635.406000", "165635.406000", "165635.406000", "165635.406000", "165635.406000", "165635.421000", "165635.421000", "165635.421000", "165635.421000", "165635.421000", "165635.421000", "165635.437000", "165635.437000", "165635.437000", "165635.437000", "165635.437000", "165635.437000", "165635.437000", "165635.453000", "165635.453000", "165635.453000", "165635.453000", "165635.453000", "165635.453000", "165655.390000", "165655.390000", "165655.406000", "165655.406000", "165655.406000", "165655.406000", "165655.406000", "165655.406000", "165655.406000", "165655.421000", "165655.421000", "165655.421000", "165655.421000", "165655.421000", "165655.421000", "165655.437000", "165655.437000", "165655.437000", "165655.437000", "165655.437000", "165655.437000", "165655.437000", "165655.453000", "165655.453000", "165655.453000", "165715.390000", "165715.390000", "165715.406000", "165715.406000", "165715.406000", "165715.406000", "165715.406000", "165715.406000", "165715.406000", "165715.421000", "165715.421000", "165715.421000", "165715.421000", "165715.421000", "165715.421000", "165715.437000", "165715.437000", "165715.437000", "165715.437000", "165715.437000", "165715.437000", "165715.437000", "165715.453000", "165715.453000", "165715.453000", "165715.453000", "165735.390000", "165735.390000", "165735.406000", "165735.406000", "165735.406000", "165735.406000", "165735.406000", "165735.421000", "165735.421000", "165735.421000", "165735.421000", "165735.421000", "165735.421000", "165735.437000", "165735.437000", "165735.437000", "165735.437000", "165735.437000", "165735.437000", "165735.453000", "165735.453000", "165735.453000", "165735.453000", "165735.453000", "165735.453000", "165755.390000", "165755.390000", "165755.406000", "165755.406000", "165755.406000", "165755.406000", "165755.406000", "165755.406000", "165755.406000", "165755.421000", "165755.421000", "165755.421000", "165755.421000", "165755.421000", "165755.421000", "165755.421000", "165755.437000", "165755.437000", "165755.437000", "165755.437000", "165755.437000", "165755.453000", "165755.453000", "165755.453000", "165755.453000", "165755.453000", "165815.390000", "165815.390000", "165815.406000", "165815.406000", "165815.406000", "165815.406000", "165815.406000", "165815.406000", "165815.406000", "165815.421000", "165815.421000", "165815.421000", "165815.421000", "165815.421000", "165815.421000", "165815.421000", "165815.437000", "165815.437000", "165815.437000", "165815.437000", "165815.437000", "165815.437000", "165815.453000", "165815.453000", "165815.453000", "165835.390000", "165835.390000", "165835.406000", "165835.406000", "165835.406000", "165835.406000", "165835.406000", "165835.406000", "165835.406000", "165835.421000", "165835.421000", "165835.421000", "165835.421000", "165835.421000", "165835.421000", "165835.437000", "165835.437000", "165835.437000", "165835.437000", "165835.437000", "165835.437000", "165835.437000", "165835.453000", "165835.453000", "165835.453000", "165835.453000", "165855.390000", "165855.390000", "165855.406000", "165855.406000", "165855.406000", "165855.406000", "165855.406000", "165855.406000", "165855.406000", "165855.421000", "165855.421000", "165855.421000", "165855.421000", "165855.421000", "165855.421000", "165855.421000", "165855.437000", "165855.437000", "165855.437000", "165855.437000", "165855.437000", "165855.437000", "165855.437000", "165855.453000", "165855.453000", "165915.390000", "165915.390000", "165915.406000", "165915.406000", "165915.406000", "165915.406000", "165915.406000", "165915.406000", "165915.406000", "165915.421000", "165915.421000", "165915.421000", "165915.421000", "165915.421000", "165915.421000", "165915.421000", "165915.437000", "165915.437000", "165915.437000", "165915.437000", "165915.437000", "165915.437000", "165915.437000", "165915.453000", "165915.453000", "165915.453000", "165935.390000", "165935.390000", "165935.406000", "165935.406000", "165935.406000", "165935.406000", "165935.406000", "165935.406000", "165935.406000", "165935.421000", "165935.421000", "165935.421000", "165935.421000", "165935.421000", "165935.421000", "165935.421000", "165935.437000", "165935.437000", "165935.437000", "165935.437000", "165935.437000", "165935.437000", "165935.453000", "165935.453000", "165935.453000", "165955.390000", "165955.390000", "165955.406000", "165955.406000", "165955.406000", "165955.406000", "165955.406000", "165955.406000", "165955.421000", "165955.421000", "165955.421000", "165955.421000", "165955.421000", "165955.421000", "165955.421000", "165955.437000", "165955.437000", "165955.437000", "165955.437000", "165955.437000", "165955.437000", "165955.453000", "165955.453000", "165955.453000", "165955.453000", "165955.453000", "170015.390000", "170015.390000", "170015.406000", "170015.406000", "170015.406000", "170015.406000", "170015.406000", "170015.406000", "170015.406000", "170015.421000", "170015.421000", "170015.421000", "170015.421000", "170015.421000", "170015.437000", "170015.437000", "170015.437000", "170015.437000", "170015.437000", "170015.437000", "170015.453000", "170015.453000", "170015.453000", "170015.453000", "170015.453000", "170035.390000", "170035.390000", "170035.406000", "170035.406000", "170035.406000", "170035.406000", "170035.406000", "170035.406000", "170035.406000", "170035.421000", "170035.421000", "170035.421000", "170035.421000", "170035.421000", "170035.421000", "170035.421000", "170035.437000", "170035.437000", "170035.437000", "170035.437000", "170035.437000", "170035.437000", "170035.453000", "170035.453000", "170035.453000", "170035.468000", "170055.390000", "170055.390000", "170055.406000", "170055.406000", "170055.406000", "170055.406000", "170055.406000", "170055.406000", "170055.406000", "170055.421000", "170055.421000", "170055.421000", "170055.421000", "170055.421000", "170055.421000", "170055.421000", "170055.437000", "170055.437000", "170055.437000", "170055.437000", "170055.437000", "170055.437000", "170055.437000", "170055.453000", "170055.453000", "170115.390000", "170115.390000", "170115.406000", "170115.406000", "170115.406000", "170115.406000", "170115.406000", "170115.406000", "170115.406000", "170115.421000", "170115.421000", "170115.421000", "170115.421000", "170115.421000", "170115.421000", "170115.421000", "170115.437000", "170115.437000", "170115.437000", "170115.437000", "170115.453000", "170115.453000", "170115.453000", "170115.453000", "170115.453000", "170115.453000", "170135.390000", "170135.390000", "170135.406000", "170135.406000", "170135.406000", "170135.406000", "170135.421000", "170135.421000", "170135.421000", "170135.421000", "170135.421000", "170135.421000", "170135.421000", "170135.437000", "170135.437000", "170135.437000", "170135.437000", "170135.437000", "170135.437000", "170135.437000", "170135.453000", "170135.453000", "170135.453000", "170135.453000", "170135.453000", "170155.390000", "170155.390000", "170155.406000", "170155.406000", "170155.406000", "170155.421000", "170155.437000", "170155.437000", "170155.437000", "170155.437000", "170155.437000", "170155.437000", "170155.437000", "170155.453000", "170155.453000", "170155.453000", "170155.453000", "170155.453000", "170155.453000", "170155.453000", "170155.468000", "170155.468000", "170155.468000", "170155.468000", "170155.468000", "170215.390000", "170215.390000", "170215.406000", "170215.406000", "170215.406000", "170215.406000", "170215.406000", "170215.406000", "170215.406000", "170215.421000", "170215.421000", "170215.421000", "170215.421000", "170215.421000", "170215.421000", "170215.421000", "170215.437000", "170215.437000", "170215.437000", "170215.437000", "170215.437000", "170215.437000", "170215.453000", "170215.453000", "170215.453000", "170215.453000", "170235.390000", "170235.390000", "170235.406000", "170235.406000", "170235.406000", "170235.406000", "170235.406000", "170235.406000", "170235.406000", "170235.421000", "170235.421000", "170235.421000", "170235.421000", "170235.421000", "170235.421000", "170235.421000", "170235.437000", "170235.437000", "170235.437000", "170235.437000", "170235.437000", "170235.437000", "170235.437000", "170235.453000", "170235.453000", "170235.453000", "170255.390000", "170255.390000", "170255.406000", "170255.406000", "170255.406000", "170255.406000", "170255.406000", "170255.406000", "170255.406000", "170255.421000", "170255.421000", "170255.421000", "170255.421000", "170255.421000", "170255.421000", "170255.421000", "170255.437000", "170255.437000", "170255.437000", "170255.437000", "170255.437000", "170255.437000", "170255.453000", "170255.453000", "170255.453000", "170315.390000", "170315.390000", "170315.406000", "170315.406000", "170315.406000", "170315.406000", "170315.421000", "170315.421000", "170315.421000", "170315.421000", "170315.421000", "170315.421000", "170315.421000", "170315.437000", "170315.437000", "170315.437000", "170315.437000", "170315.437000", "170315.453000", "170315.453000", "170315.453000", "170315.453000", "170315.453000", "170315.453000", "170315.468000", "170321.765000", "170321.765000", "170321.765000", "170321.781000", "170321.781000", "170321.781000", "170321.781000", "170321.781000", "170321.781000"],
      "DataSetTrailingPadding": [
        "\u0000\u0000\u0000\u0000\u0000\u0000\u0000\u0000\u0000\u0000\u0000\u0000\u0000\u0000\u0000\u0000\u0000\u0000\u0000\u0000\u0000\u0000\u0000\u0000\u0000\u0000\u0000\u0000\u0000\u0000\u0000\u0000\u0000\u0000\u0000\u0000\u0000\u0000\u0000\u0000\u0000\u0000\u0000\u0000\u0000\u0000\u0000\u0000\u0000\u0000\u0000\u0000\u0000\u0000\u0000\u0000\u0000\u0000\u0000\u0000\u0000\u0000\u0000\u0000\u0000\u0000\u0000\u0000\u0000\u0000\u0000\u0000\u0000\u0000\u0000\u0000\u0000\u0000\u0000\u0000\u0000\u0000\u0000\u0000\u0000\u0000\u0000\u0000\u0000\u0000\u0000\u0000\u0000\u0000\u0000\u0000\u0000\u0000\u0000\u0000\u0000\u0000\u0000\u0000\u0000\u0000\u0000\u0000\u0000\u0000\u0000\u0000\u0000\u0000\u0000\u0000\u0000\u0000\u0000\u0000\u0000\u0000\u0000\u0000\u0000\u0000\u0000\u0000\u0000\u0000\u0000\u0000\u0000\u0000\u0000\u0000\u0000\u0000\u0000\u0000\u0000\u0000\u0000\u0000\u0000\u0000\u0000\u0000\u0000\u0000\u0000\u0000\u0000\u0000\u0000\u0000\u0000\u0000\u0000\u0000\u0000\u0000\u0000\u0000\u0000\u0000\u0000\u0000\u0000\u0000\u0000\u0000\u0000\u0000\u0000\u0000\u0000\u0000\u0000\u0000\u0000\u0000\u0000\u0000\u0000\u0000\u0000\u0000\u0000\u0000\u0000\u0000\u0000\u0000\u0000\u0000\u0000\u0000\u0000\u0000\u0000\u0000\u0000\u0000\u0000\u0000\u0000\u0000\u0000\u0000\u0000\u0000\u0000\u0000\u0000\u0000\u0000\u0000\u0000\u0000\u0000\u0000\u0000\u0000\u0000\u0000\u0000\u0000\u0000\u0000\u0000\u0000\u0000\u0000\u0000\u0000\u0000\u0000\u0000\u0000\u0000\u0000\u0000\u0000\u0000\u0000\u0000\u0000\u0000\u0000\u0000\u0000",
