{
  "AcquisitionMatrixPE": 104,
  "AcquisitionNumber": 1,
  "AcquisitionTime": "17:19:49.717500",
  "BandwidthPerPixelPhaseEncode": 13.935,
  "BaseResolution": 104,
  "CoilString": "C:HEA;HEP",
  "ConversionSoftware": "dcm2niix",
  "ConversionSoftwareVersion": "v1.0.20210317",
  "DerivedVendorReportedEchoSpacing": 0.000690017,
  "DeviceSerialNumber": "35450",
  "DwellTime": 2.5e-06,
  "EchoTime": 0.0348,
  "EffectiveEchoSpacing": 0.000690017,
  "FlipAngle": 55,
  "ImageComments": "Unaliased MB8/PE3 (remote)",
  "ImageOrientationPatientDICOM": [0.999998, 0.00018282, 0.0018644, -4.7429e-08, 0.995229, -0.0975651],
  "ImageType": [
    "ORIGINAL",
    "PRIMARY",
    "M",
    "MB",
    "ND",
    "MOSAIC"
],
  "ImagingFrequency": 123.235,
  "InPlanePhaseEncodingDirectionDICOM": "COL",
  "InstitutionAddress": "Univeristy Ave. 197,Newark,North East,US,07102-1814",
  "InstitutionName": "RUBIC",
  "InstitutionalDepartmentName": "Department",
  "MRAcquisitionType": "2D",
  "MagneticFieldStrength": 3,
  "Manufacturer": "Siemens",
  "ManufacturersModelName": "TrioTim",
  "Modality": "MR",
  "MultibandAccelerationFactor": 8,
  "PartialFourier": 0.875,
  "PatientPosition": "HFS",
  "PercentPhaseFOV": 100,
  "PercentSampling": 100,
  "PhaseEncodingDirection": "j-",
  "PhaseEncodingSteps": 91,
  "PhaseResolution": 1,
  "PixelBandwidth": 1923,
  "ProcedureStepDescription": "Cole^Michael",
  "ProtocolName": "cmrr_mbep2d_bold_2mm_MB8_Task_8x",
  "PulseSequenceDetails": "%CustomerSeq%\\cmrr_mbep2d_bold",
  "ReceiveCoilName": "32Ch_Head",
  "ReconMatrixPE": 104,
  "RepetitionTime": 0.785,
  "SAR": 0.103367,
  "ScanOptions": "PFP\\FS",
  "ScanningSequence": "EP",
  "SequenceName": "epfid2d1_104",
  "SequenceVariant": "SK\\SS",
  "SeriesDescription": "cmrr_mbep2d_bold_2mm_MB8_Task_8x",
  "SeriesNumber": 27,
  "ShimSetting": [2141, -308, -7868, 436, 116, -229, 306, 114],
  "SliceThickness": 2,
  "SliceTiming": [0, 0.4375, 0.0875, 0.525, 0.175, 0.6125, 0.2625, 0.7, 0.35, 0, 0.4375, 0.0875, 0.525, 0.175, 0.6125, 0.2625, 0.7, 0.35, 0, 0.4375, 0.0875, 0.525, 0.175, 0.6125, 0.2625, 0.7, 0.35, 0, 0.4375, 0.0875, 0.525, 0.175, 0.6125, 0.2625, 0.7, 0.35, 0, 0.4375, 0.0875, 0.525, 0.175, 0.6125, 0.2625, 0.7, 0.35, 0, 0.4375, 0.0875, 0.525, 0.175, 0.6125, 0.2625, 0.7, 0.35, 0, 0.4375, 0.0875, 0.525, 0.175, 0.6125, 0.2625, 0.7, 0.35, 0, 0.4375, 0.0875, 0.525, 0.175, 0.6125, 0.2625, 0.7, 0.35],
  "SoftwareVersions": "syngo MR B19",
  "SpacingBetweenSlices": 2,
  "StationName": "MRC35450",
  "TaskName": "cpro",
  "TotalReadoutTime": 0.0710717,
  "TxRefAmp": 311.498,
  "dcmmeta_affine": [
    [-1.999996542930603, -9.485792418217898e-08, 0.003746682545170188, 103.17632293701172],
    [-0.00036563980393111706, 1.9904582500457764, -0.19512982666492462, -67.47405242919922],
    [0.003728798357769847, 0.19513016939163208, 1.9904547929763794, -103.73338317871094],
    [0.0, 0.0, 0.0, 1.0]
],
  "dcmmeta_reorient_transform": [
    [0.0, -1.0, 0.0, 103.0],
    [1.0, 0.0, 0.0, 0.0],
    [0.0, 0.0, 1.0, 0.0],
    [0.0, 0.0, 0.0, 1.0]
],
  "dcmmeta_shape": [104, 104, 72, 581],
  "dcmmeta_slice_dim": 2,
  "dcmmeta_version": 0.6,
  "global": {
    "const": {
      "AcquisitionMatrix": [104, 0, 0, 104],
      "AngioFlag": "N",
      "BitsAllocated": 16,
      "BitsStored": 12,
      "Columns": 936,
      "EchoNumbers": 1,
      "EchoTime": 34.8,
      "EchoTrainLength": 1,
      "FlipAngle": 55.0,
      "HighBit": 11,
      "ImageOrientationPatient": [0.9999982452947, 0.0001828199023, 0.00186439920576, -4.7428962e-08, 0.99522914660055, -0.0975650847216],
      "ImagePositionPatient": [-935.17481101937, -965.72590628021, -4.0120032057953],
      "ImageType": [
        "ORIGINAL",
        "PRIMARY",
        "M",
        "MB",
        "ND",
        "MOSAIC"
],
      "ImagedNucleus": "1H",
      "ImagingFrequency": 123.234914,
      "InPlanePhaseEncodingDirection": "COL",
      "MRAcquisitionType": "2D",
      "MagneticFieldStrength": 3.0,
      "Manufacturer": "SIEMENS",
      "ManufacturerModelName": "TrioTim",
      "Modality": "MR",
      "NumberOfAverages": 1.0,
      "NumberOfPhaseEncodingSteps": 91,
      "PercentPhaseFieldOfView": 100.0,
      "PercentSampling": 100.0,
      "PerformedProcedureStepStartTime": "152947.468000",
      "PhotometricInterpretation": "MONOCHROME2",
      "PixelBandwidth": 1923.0,
      "PixelRepresentation": 0,
      "PixelSpacing": [2.0, 2.0],
      "ProtocolName": "cmrr_mbep2d_bold_2mm_MB8_Task_8x",
      "RepetitionTime": 785.0,
      "Rows": 936,
      "SAR": 0.10336698472513,
      "SamplesPerPixel": 1,
      "ScanOptions": [
        "PFP",
        "FS"
],
      "ScanningSequence": "EP",
      "SequenceName": "epfid2d1_104",
      "SequenceVariant": [
        "SK",
        "SS"
],
      "SeriesDescription": "cmrr_mbep2d_bold_2mm_MB8_Task_8x",
      "SeriesNumber": 27,
      "SeriesTime": "172015.421000",
      "SliceLocation": -96.461918400881,
      "SliceThickness": 2.0,
      "SmallestImagePixelValue": 0,
      "SoftwareVersions": "syngo MR B19",
      "SpacingBetweenSlices": 1.9999999671437,
      "SpecificCharacterSet": "ISO_IR 100",
      "StudyID": "1",
      "StudyTime": "152947.421000",
      "TransmitCoilName": "Body",
      "VariableFlipAngleFlag": "N",
      "WindowCenterWidthExplanation": "Algo1",
      "dBdt": 0.0},
    "slices": {}
  },
  "time": {
    "samples": {
      "AcquisitionNumber": [1, 2, 3, 4, 5, 6, 7, 8, 9, 10, 11, 12, 13, 14, 15, 16, 17, 18, 19, 20, 21, 22, 23, 24, 25, 26, 27, 28, 29, 30, 31, 32, 33, 34, 35, 36, 37, 38, 39, 40, 41, 42, 43, 44, 45, 46, 47, 48, 49, 50, 51, 52, 53, 54, 55, 56, 57, 58, 59, 60, 61, 62, 63, 64, 65, 66, 67, 68, 69, 70, 71, 72, 73, 74, 75, 76, 77, 78, 79, 80, 81, 82, 83, 84, 85, 86, 87, 88, 89, 90, 91, 92, 93, 94, 95, 96, 97, 98, 99, 100, 101, 102, 103, 104, 105, 106, 107, 108, 109, 110, 111, 112, 113, 114, 115, 116, 117, 118, 119, 120, 121, 122, 123, 124, 125, 126, 127, 128, 129, 130, 131, 132, 133, 134, 135, 136, 137, 138, 139, 140, 141, 142, 143, 144, 145, 146, 147, 148, 149, 150, 151, 152, 153, 154, 155, 156, 157, 158, 159, 160, 161, 162, 163, 164, 165, 166, 167, 168, 169, 170, 171, 172, 173, 174, 175, 176, 177, 178, 179, 180, 181, 182, 183, 184, 185, 186, 187, 188, 189, 190, 191, 192, 193, 194, 195, 196, 197, 198, 199, 200, 201, 202, 203, 204, 205, 206, 207, 208, 209, 210, 211, 212, 213, 214, 215, 216, 217, 218, 219, 220, 221, 222, 223, 224, 225, 226, 227, 228, 229, 230, 231, 232, 233, 234, 235, 236, 237, 238, 239, 240, 241, 242, 243, 244, 245, 246, 247, 248, 249, 250, 251, 252, 253, 254, 255, 256, 257, 258, 259, 260, 261, 262, 263, 264, 265, 266, 267, 268, 269, 270, 271, 272, 273, 274, 275, 276, 277, 278, 279, 280, 281, 282, 283, 284, 285, 286, 287, 288, 289, 290, 291, 292, 293, 294, 295, 296, 297, 298, 299, 300, 301, 302, 303, 304, 305, 306, 307, 308, 309, 310, 311, 312, 313, 314, 315, 316, 317, 318, 319, 320, 321, 322, 323, 324, 325, 326, 327, 328, 329, 330, 331, 332, 333, 334, 335, 336, 337, 338, 339, 340, 341, 342, 343, 344, 345, 346, 347, 348, 349, 350, 351, 352, 353, 354, 355, 356, 357, 358, 359, 360, 361, 362, 363, 364, 365, 366, 367, 368, 369, 370, 371, 372, 373, 374, 375, 376, 377, 378, 379, 380, 381, 382, 383, 384, 385, 386, 387, 388, 389, 390, 391, 392, 393, 394, 395, 396, 397, 398, 399, 400, 401, 402, 403, 404, 405, 406, 407, 408, 409, 410, 411, 412, 413, 414, 415, 416, 417, 418, 419, 420, 421, 422, 423, 424, 425, 426, 427, 428, 429, 430, 431, 432, 433, 434, 435, 436, 437, 438, 439, 440, 441, 442, 443, 444, 445, 446, 447, 448, 449, 450, 451, 452, 453, 454, 455, 456, 457, 458, 459, 460, 461, 462, 463, 464, 465, 466, 467, 468, 469, 470, 471, 472, 473, 474, 475, 476, 477, 478, 479, 480, 481, 482, 483, 484, 485, 486, 487, 488, 489, 490, 491, 492, 493, 494, 495, 496, 497, 498, 499, 500, 501, 502, 503, 504, 505, 506, 507, 508, 509, 510, 511, 512, 513, 514, 515, 516, 517, 518, 519, 520, 521, 522, 523, 524, 525, 526, 527, 528, 529, 530, 531, 532, 533, 534, 535, 536, 537, 538, 539, 540, 541, 542, 543, 544, 545, 546, 547, 548, 549, 550, 551, 552, 553, 554, 555, 556, 557, 558, 559, 560, 561, 562, 563, 564, 565, 566, 567, 568, 569, 570, 571, 572, 573, 574, 575, 576, 577, 578, 579, 580, 581],
      "AcquisitionTime": ["171949.717500", "171950.505000", "171951.292500", "171952.082500", "171952.870000", "171953.657500", "171954.445000", "171955.235000", "171956.022500", "171956.810000", "171957.597500", "171958.387500", "171959.175000", "171959.962500", "172000.752500", "172001.540000", "172002.327500", "172003.115000", "172003.905000", "172004.692500", "172005.480000", "172006.267500", "172007.057500", "172007.845000", "172008.632500", "172009.420000", "172010.210000", "172010.997500", "172011.785000", "172012.572500", "172013.362500", "172014.150000", "172014.937500", "172015.725000", "172016.515000", "172017.302500", "172018.090000", "172018.880000", "172019.667500", "172020.455000", "172021.242500", "172022.032500", "172022.820000", "172023.607500", "172024.395000", "172025.185000", "172025.972500", "172026.760000", "172027.547500", "172028.337500", "172029.125000", "172029.912500", "172030.700000", "172031.490000", "172032.277500", "172033.065000", "172033.852500", "172034.642500", "172035.430000", "172036.217500", "172037.007500", "172037.795000", "172038.582500", "172039.370000", "172040.160000", "172040.947500", "172041.735000", "172042.522500", "172043.312500", "172044.100000", "172044.887500", "172045.675000", "172046.465000", "172047.252500", "172048.040000", "172048.827500", "172049.617500", "172050.405000", "172051.192500", "172051.980000", "172052.770000", "172053.557500", "172054.345000", "172055.135000", "172055.922500", "172056.710000", "172057.497500", "172058.287500", "172059.075000", "172059.862500", "172100.650000", "172101.440000", "172102.227500", "172103.015000", "172103.802500", "172104.592500", "172105.380000", "172106.167500", "172106.955000", "172107.745000", "172108.532500", "172109.320000", "172110.107500", "172110.897500", "172111.685000", "172112.472500", "172113.262500", "172114.050000", "172114.837500", "172115.625000", "172116.415000", "172117.202500", "172117.990000", "172118.777500", "172119.567500", "172120.355000", "172121.142500", "172121.930000", "172122.720000", "172123.507500", "172124.295000", "172125.082500", "172125.872500", "172126.660000", "172127.447500", "172128.235000", "172129.025000", "172129.812500", "172130.600000", "172131.390000", "172132.177500", "172132.965000", "172133.752500", "172134.542500", "172135.330000", "172136.117500", "172136.905000", "172137.695000", "172138.482500", "172139.270000", "172140.057500", "172140.847500", "172141.635000", "172142.422500", "172143.210000", "172144.000000", "172144.787500", "172145.575000", "172146.365000", "172147.152500", "172147.940000", "172148.727500", "172149.517500", "172150.305000", "172151.092500", "172151.880000", "172152.670000", "172153.457500", "172154.245000", "172155.032500", "172155.822500", "172156.610000", "172157.397500", "172158.185000", "172158.975000", "172159.762500", "172200.550000", "172201.337500", "172202.127500", "172202.915000", "172203.702500", "172204.492500", "172205.280000", "172206.067500", "172206.855000", "172207.645000", "172208.432500", "172209.220000", "172210.007500", "172210.797500", "172211.585000", "172212.372500", "172213.160000", "172213.950000", "172214.737500", "172215.525000", "172216.312500", "172217.102500", "172217.890000", "172218.677500", "172219.465000", "172220.255000", "172221.042500", "172221.830000", "172222.620000", "172223.407500", "172224.195000", "172224.982500", "172225.772500", "172226.560000", "172227.347500", "172228.135000", "172228.925000", "172229.712500", "172230.500000", "172231.287500", "172232.077500", "172232.865000", "172233.652500", "172234.440000", "172235.230000", "172236.017500", "172236.805000", "172237.592500", "172238.382500", "172239.170000", "172239.957500", "172240.747500", "172241.535000", "172242.322500", "172243.110000", "172243.900000", "172244.687500", "172245.475000", "172246.262500", "172247.052500", "172247.840000", "172248.627500", "172249.415000", "172250.205000", "172250.992500", "172251.780000", "172252.567500", "172253.357500", "172254.145000", "172254.932500", "172255.720000", "172256.510000", "172257.297500", "172258.085000", "172258.875000", "172259.662500", "172300.450000", "172301.237500", "172302.027500", "172302.815000", "172303.602500", "172304.390000", "172305.180000", "172305.967500", "172306.755000", "172307.542500", "172308.332500", "172309.120000", "172309.907500", "172310.695000", "172311.485000", "172312.272500", "172313.060000", "172313.847500", "172314.637500", "172315.425000", "172316.212500", "172317.002500", "172317.790000", "172318.577500", "172319.365000", "172320.155000", "172320.942500", "172321.730000", "172322.517500", "172323.307500", "172324.095000", "172324.882500", "172325.670000", "172326.460000", "172327.247500", "172328.035000", "172328.822500", "172329.612500", "172330.400000", "172331.187500", "172331.975000", "172332.765000", "172333.552500", "172334.340000", "172335.130000", "172335.917500", "172336.705000", "172337.492500", "172338.282500", "172339.070000", "172339.857500", "172340.645000", "172341.435000", "172342.222500", "172343.010000", "172343.797500", "172344.587500", "172345.375000", "172346.162500", "172346.950000", "172347.740000", "172348.527500", "172349.315000", "172350.102500", "172350.892500", "172351.680000", "172352.467500", "172353.257500", "172354.045000", "172354.832500", "172355.620000", "172356.410000", "172357.197500", "172357.985000", "172358.772500", "172359.562500", "172400.350000", "172401.137500", "172401.925000", "172402.715000", "172403.502500", "172404.290000", "172405.077500", "172405.867500", "172406.655000", "172407.442500", "172408.230000", "172409.020000", "172409.807500", "172410.595000", "172411.385000", "172412.172500", "172412.960000", "172413.747500", "172414.537500", "172415.325000", "172416.112500", "172416.900000", "172417.690000", "172418.477500", "172419.265000", "172420.052500", "172420.842500", "172421.630000", "172422.417500", "172423.205000", "172423.995000", "172424.782500", "172425.570000", "172426.357500", "172427.147500", "172427.935000", "172428.722500", "172429.512500", "172430.300000", "172431.087500", "172431.875000", "172432.665000", "172433.452500", "172434.240000", "172435.027500", "172435.817500", "172436.605000", "172437.392500", "172438.180000", "172438.970000", "172439.757500", "172440.545000", "172441.332500", "172442.122500", "172442.910000", "172443.697500", "172444.485000", "172445.275000", "172446.062500", "172446.850000", "172447.640000", "172448.427500", "172449.215000", "172450.002500", "172450.792500", "172451.580000", "172452.367500", "172453.155000", "172453.945000", "172454.732500", "172455.520000", "172456.307500", "172457.097500", "172457.885000", "172458.672500", "172459.460000", "172500.250000", "172501.037500", "172501.825000", "172502.615000", "172503.402500", "172504.190000", "172504.977500", "172505.767500", "172506.555000", "172507.342500", "172508.130000", "172508.920000", "172509.707500", "172510.495000", "172511.282500", "172512.072500", "172512.860000", "172513.647500", "172514.435000", "172515.225000", "172516.012500", "172516.800000", "172517.587500", "172518.377500", "172519.165000", "172519.952500", "172520.742500", "172521.530000", "172522.317500", "172523.105000", "172523.895000", "172524.682500", "172525.470000", "172526.257500", "172527.047500", "172527.835000", "172528.622500", "172529.410000", "172530.200000", "172530.987500", "172531.775000", "172532.562500", "172533.352500", "172534.140000", "172534.927500", "172535.715000", "172536.505000", "172537.292500", "172538.080000", "172538.870000", "172539.657500", "172540.445000", "172541.232500", "172542.022500", "172542.810000", "172543.597500", "172544.385000", "172545.175000", "172545.962500", "172546.750000", "172547.537500", "172548.327500", "172549.115000", "172549.902500", "172550.690000", "172551.480000", "172552.267500", "172553.055000", "172553.842500", "172554.632500", "172555.420000", "172556.207500", "172556.997500", "172557.785000", "172558.572500", "172559.360000", "172600.150000", "172600.937500", "172601.725000", "172602.512500", "172603.302500", "172604.090000", "172604.877500", "172605.665000", "172606.455000", "172607.242500", "172608.030000", "172608.817500", "172609.607500", "172610.395000", "172611.182500", "172611.970000", "172612.760000", "172613.547500", "172614.335000", "172615.125000", "172615.912500", "172616.700000", "172617.487500", "172618.277500", "172619.065000", "172619.852500", "172620.640000", "172621.430000", "172622.217500", "172623.005000", "172623.792500", "172624.582500", "172625.370000", "172626.157500", "172626.945000", "172627.735000", "172628.522500", "172629.310000", "172630.097500", "172630.887500", "172631.675000", "172632.462500", "172633.252500", "172634.040000", "172634.827500", "172635.615000", "172636.405000", "172637.192500", "172637.980000", "172638.767500", "172639.557500", "172640.345000", "172641.132500", "172641.920000", "172642.710000", "172643.497500", "172644.285000", "172645.072500", "172645.862500", "172646.650000", "172647.437500", "172648.225000", "172649.015000", "172649.802500", "172650.590000", "172651.380000", "172652.167500", "172652.955000", "172653.742500", "172654.532500", "172655.320000", "172656.107500", "172656.895000", "172657.685000", "172658.472500", "172659.260000", "172700.047500", "172700.837500", "172701.625000", "172702.412500", "172703.200000", "172703.990000", "172704.777500", "172705.565000", "172706.352500", "172707.142500", "172707.930000", "172708.717500", "172709.507500", "172710.295000", "172711.082500", "172711.870000", "172712.660000", "172713.447500", "172714.235000", "172715.022500", "172715.812500", "172716.600000", "172717.387500", "172718.175000", "172718.965000", "172719.752500", "172720.540000", "172721.327500", "172722.117500", "172722.905000", "172723.692500", "172724.480000", "172725.270000", "172726.057500", "172726.845000"],
      "ContentTime": ["172015.421000", "172015.421000", "172015.421000", "172015.421000", "172015.421000", "172015.437000", "172015.437000", "172015.437000", "172015.437000", "172015.437000", "172015.437000", "172015.437000", "172015.453000", "172015.453000", "172015.453000", "172015.453000", "172015.453000", "172015.453000", "172015.468000", "172015.468000", "172015.468000", "172015.468000", "172015.468000", "172015.468000", "172015.468000", "172015.484000", "172015.484000", "172015.484000", "172015.484000", "172035.390000", "172035.390000", "172035.406000", "172035.406000", "172035.406000", "172035.406000", "172035.406000", "172035.406000", "172035.406000", "172035.421000", "172035.421000", "172035.421000", "172035.421000", "172035.421000", "172035.421000", "172035.437000", "172035.437000", "172035.437000", "172035.437000", "172035.437000", "172035.437000", "172035.437000", "172035.453000", "172035.453000", "172035.453000", "172035.453000", "172055.390000", "172055.390000", "172055.406000", "172055.406000", "172055.406000", "172055.406000", "172055.406000", "172055.406000", "172055.406000", "172055.421000", "172055.421000", "172055.421000", "172055.421000", "172055.421000", "172055.421000", "172055.421000", "172055.437000", "172055.437000", "172055.437000", "172055.437000", "172055.437000", "172055.453000", "172055.453000", "172055.453000", "172055.453000", "172115.390000", "172115.390000", "172115.406000", "172115.406000", "172115.406000", "172115.406000", "172115.406000", "172115.406000", "172115.406000", "172115.421000", "172115.421000", "172115.421000", "172115.421000", "172115.421000", "172115.421000", "172115.421000", "172115.437000", "172115.437000", "172115.437000", "172115.437000", "172115.437000", "172115.453000", "172115.453000", "172115.453000", "172115.453000", "172115.453000", "172135.390000", "172135.390000", "172135.406000", "172135.406000", "172135.406000", "172135.406000", "172135.406000", "172135.406000", "172135.406000", "172135.421000", "172135.421000", "172135.421000", "172135.421000", "172135.421000", "172135.421000", "172135.437000", "172135.437000", "172135.437000", "172135.437000", "172135.437000", "172135.437000", "172135.437000", "172135.437000", "172135.453000", "172135.453000", "172155.390000", "172155.390000", "172155.406000", "172155.406000", "172155.406000", "172155.406000", "172155.406000", "172155.406000", "172155.406000", "172155.421000", "172155.421000", "172155.421000", "172155.421000", "172155.421000", "172155.421000", "172155.421000", "172155.437000", "172155.437000", "172155.437000", "172155.437000", "172155.437000", "172155.437000", "172155.437000", "172155.453000", "172155.453000", "172155.453000", "172215.390000", "172215.390000", "172215.406000", "172215.406000", "172215.406000", "172215.406000", "172215.406000", "172215.406000", "172215.406000", "172215.421000", "172215.421000", "172215.421000", "172215.421000", "172215.437000", "172215.437000", "172215.437000", "172215.437000", "172215.437000", "172215.437000", "172215.437000", "172215.453000", "172215.453000", "172215.453000", "172215.453000", "172215.453000", "172235.390000", "172235.390000", "172235.406000", "172235.406000", "172235.406000", "172235.406000", "172235.406000", "172235.406000", "172235.406000", "172235.421000", "172235.421000", "172235.421000", "172235.421000", "172235.421000", "172235.421000", "172235.421000", "172235.437000", "172235.437000", "172235.437000", "172235.437000", "172235.437000", "172235.437000", "172235.437000", "172235.453000", "172235.453000", "172235.453000", "172255.390000", "172255.390000", "172255.406000", "172255.406000", "172255.406000", "172255.406000", "172255.406000", "172255.406000", "172255.406000", "172255.421000", "172255.421000", "172255.421000", "172255.421000", "172255.421000", "172255.421000", "172255.437000", "172255.437000", "172255.437000", "172255.437000", "172255.437000", "172255.437000", "172255.437000", "172255.437000", "172255.453000", "172255.453000", "172315.390000", "172315.390000", "172315.406000", "172315.406000", "172315.406000", "172315.406000", "172315.406000", "172315.406000", "172315.406000", "172315.421000", "172315.421000", "172315.421000", "172315.421000", "172315.421000", "172315.421000", "172315.421000", "172315.437000", "172315.437000", "172315.437000", "172315.437000", "172315.437000", "172315.437000", "172315.453000", "172315.453000", "172315.453000", "172315.453000", "172335.390000", "172335.390000", "172335.406000", "172335.406000", "172335.406000", "172335.406000", "172335.406000", "172335.406000", "172335.406000", "172335.421000", "172335.421000", "172335.421000", "172335.421000", "172335.421000", "172335.421000", "172335.437000", "172335.437000", "172335.437000", "172335.437000", "172335.437000", "172335.437000", "172335.437000", "172335.453000", "172335.453000", "172335.453000", "172355.390000", "172355.390000", "172355.406000", "172355.406000", "172355.406000", "172355.406000", "172355.406000", "172355.421000", "172355.421000", "172355.421000", "172355.421000", "172355.421000", "172355.421000", "172355.437000", "172355.437000", "172355.437000", "172355.437000", "172355.437000", "172355.437000", "172355.437000", "172355.453000", "172355.453000", "172355.453000", "172355.453000", "172355.453000", "172355.453000", "172415.390000", "172415.390000", "172415.406000", "172415.406000", "172415.406000", "172415.406000", "172415.406000", "172415.406000", "172415.421000", "172415.421000", "172415.421000", "172415.421000", "172415.421000", "172415.421000", "172415.437000", "172415.437000", "172415.437000", "172415.437000", "172415.437000", "172415.453000", "172415.453000", "172415.453000", "172415.453000", "172415.453000", "172415.453000", "172435.390000", "172435.390000", "172435.406000", "172435.406000", "172435.406000", "172435.406000", "172435.406000", "172435.406000", "172435.406000", "172435.421000", "172435.421000", "172435.421000", "172435.421000", "172435.421000", "172435.421000", "172435.421000", "172435.437000", "172435.437000", "172435.437000", "172435.437000", "172435.437000", "172435.437000", "172435.437000", "172435.453000", "172435.453000", "172455.390000", "172455.390000", "172455.406000", "172455.406000", "172455.406000", "172455.406000", "172455.406000", "172455.406000", "172455.421000", "172455.421000", "172455.421000", "172455.421000", "172455.421000", "172455.421000", "172455.421000", "172455.437000", "172455.437000", "172455.437000", "172455.437000", "172455.437000", "172455.437000", "172455.453000", "172455.453000", "172455.453000", "172455.453000", "172455.453000", "172515.390000", "172515.390000", "172515.406000", "172515.406000", "172515.406000", "172515.406000", "172515.406000", "172515.406000", "172515.421000", "172515.421000", "172515.421000", "172515.421000", "172515.437000", "172515.437000", "172515.437000", "172515.437000", "172515.437000", "172515.437000", "172515.437000", "172515.453000", "172515.453000", "172515.453000", "172515.453000", "172515.468000", "172515.468000", "172535.390000", "172535.390000", "172535.406000", "172535.406000", "172535.406000", "172535.406000", "172535.406000", "172535.406000", "172535.406000", "172535.421000", "172535.421000", "172535.421000", "172535.421000", "172535.421000", "172535.421000", "172535.421000", "172535.437000", "172535.437000", "172535.437000", "172535.437000", "172535.437000", "172535.437000", "172535.437000", "172535.453000", "172535.453000", "172535.453000", "172555.390000", "172555.390000", "172555.406000", "172555.406000", "172555.406000", "172555.406000", "172555.406000", "172555.406000", "172555.421000", "172555.421000", "172555.421000", "172555.421000", "172555.421000", "172555.437000", "172555.437000", "172555.437000", "172555.437000", "172555.437000", "172555.437000", "172555.437000", "172555.453000", "172555.453000", "172555.453000", "172555.453000", "172555.453000", "172615.390000", "172615.390000", "172615.406000", "172615.406000", "172615.406000", "172615.406000", "172615.406000", "172615.406000", "172615.406000", "172615.421000", "172615.421000", "172615.421000", "172615.421000", "172615.421000", "172615.421000", "172615.421000", "172615.437000", "172615.437000", "172615.437000", "172615.437000", "172615.437000", "172615.437000", "172615.453000", "172615.453000", "172615.453000", "172615.453000", "172635.390000", "172635.390000", "172635.406000", "172635.406000", "172635.406000", "172635.406000", "172635.406000", "172635.406000", "172635.406000", "172635.421000", "172635.421000", "172635.421000", "172635.421000", "172635.421000", "172635.421000", "172635.437000", "172635.437000", "172635.437000", "172635.437000", "172635.437000", "172635.437000", "172635.453000", "172635.453000", "172635.453000", "172635.453000", "172655.390000", "172655.390000", "172655.406000", "172655.406000", "172655.406000", "172655.406000", "172655.406000", "172655.406000", "172655.406000", "172655.421000", "172655.421000", "172655.421000", "172655.421000", "172655.421000", "172655.421000", "172655.421000", "172655.437000", "172655.437000", "172655.437000", "172655.437000", "172655.437000", "172655.437000", "172655.453000", "172655.453000", "172655.453000", "172655.453000", "172715.390000", "172715.390000", "172715.406000", "172715.406000", "172715.406000", "172715.406000", "172715.406000", "172715.406000", "172715.406000", "172715.421000", "172715.421000", "172715.421000", "172715.421000", "172715.421000", "172715.421000", "172715.437000", "172715.437000", "172715.437000", "172715.437000", "172715.437000", "172715.453000", "172715.453000", "172715.453000", "172715.453000", "172715.453000", "172728.218000", "172728.218000", "172728.218000", "172728.234000", "172728.234000", "172728.234000", "172728.234000", "172728.234000", "172728.234000", "172728.234000", "172728.250000", "172728.250000", "172728.250000", "172728.250000", "172728.250000", "172728.250000", "172728.250000"],
      "DataSetTrailingPadding": [
        "\u0000\u0000\u0000\u0000\u0000\u0000\u0000\u0000\u0000\u0000\u0000\u0000\u0000\u0000\u0000\u0000\u0000\u0000\u0000\u0000\u0000\u0000\u0000\u0000\u0000\u0000\u0000\u0000\u0000\u0000\u0000\u0000\u0000\u0000\u0000\u0000\u0000\u0000\u0000\u0000\u0000\u0000\u0000\u0000\u0000\u0000\u0000\u0000\u0000\u0000\u0000\u0000\u0000\u0000\u0000\u0000\u0000\u0000\u0000\u0000\u0000\u0000\u0000\u0000\u0000\u0000\u0000\u0000\u0000\u0000\u0000\u0000\u0000\u0000\u0000\u0000\u0000\u0000\u0000\u0000\u0000\u0000\u0000\u0000\u0000\u0000\u0000\u0000\u0000\u0000\u0000\u0000\u0000\u0000\u0000\u0000\u0000\u0000\u0000\u0000\u0000\u0000\u0000\u0000\u0000\u0000\u0000\u0000\u0000\u0000\u0000\u0000\u0000\u0000\u0000\u0000\u0000\u0000\u0000\u0000\u0000\u0000\u0000\u0000\u0000\u0000\u0000\u0000\u0000\u0000\u0000\u0000\u0000\u0000\u0000\u0000\u0000\u0000\u0000\u0000\u0000\u0000\u0000\u0000\u0000\u0000\u0000\u0000\u0000\u0000\u0000\u0000\u0000\u0000\u0000\u0000\u0000\u0000\u0000\u0000\u0000\u0000\u0000\u0000\u0000\u0000\u0000\u0000\u0000\u0000\u0000\u0000\u0000\u0000\u0000\u0000\u0000\u0000\u0000\u0000\u0000\u0000\u0000\u0000\u0000\u0000\u0000\u0000\u0000\u0000\u0000\u0000\u0000\u0000\u0000\u0000\u0000\u0000\u0000\u0000\u0000\u0000\u0000\u0000\u0000\u0000\u0000\u0000\u0000\u0000\u0000\u0000\u0000\u0000\u0000\u0000\u0000\u0000\u0000\u0000\u0000\u0000\u0000\u0000\u0000\u0000\u0000\u0000\u0000\u0000\u0000\u0000\u0000\u0000\u0000\u0000\u0000\u0000\u0000\u0000\u0000\u0000\u0000\u0000\u0000\u0000\u0000\u0000\u0000\u0000",
