{
  "AcquisitionMatrixPE": 104,
  "AcquisitionNumber": 1,
  "AcquisitionTime": "16:47:45.732500",
  "BandwidthPerPixelPhaseEncode": 13.935,
  "BaseResolution": 104,
  "CoilString": "C:HEA;HEP",
  "ConversionSoftware": "dcm2niix",
  "ConversionSoftwareVersion": "v1.0.20210317",
  "DerivedVendorReportedEchoSpacing": 0.000690017,
  "DeviceSerialNumber": "35450",
  "DwellTime": 2.5e-06,
  "EchoTime": 0.0348,
  "EffectiveEchoSpacing": 0.000690017,
  "FlipAngle": 55,
  "ImageComments": "Unaliased MB8/PE3 (remote)",
  "ImageOrientationPatientDICOM": [0.999998, 0.00018282, 0.0018644, -4.7429e-08, 0.995229, -0.0975651],
  "ImageType": [
    "ORIGINAL",
    "PRIMARY",
    "M",
    "MB",
    "ND",
    "MOSAIC"
],
  "ImagingFrequency": 123.235,
  "InPlanePhaseEncodingDirectionDICOM": "COL",
  "InstitutionAddress": "Univeristy Ave. 197,Newark,North East,US,07102-1814",
  "InstitutionName": "RUBIC",
  "InstitutionalDepartmentName": "Department",
  "MRAcquisitionType": "2D",
  "MagneticFieldStrength": 3,
  "Manufacturer": "Siemens",
  "ManufacturersModelName": "TrioTim",
  "Modality": "MR",
  "MultibandAccelerationFactor": 8,
  "PartialFourier": 0.875,
  "PatientPosition": "HFS",
  "PercentPhaseFOV": 100,
  "PercentSampling": 100,
  "PhaseEncodingDirection": "j-",
  "PhaseEncodingSteps": 91,
  "PhaseResolution": 1,
  "PixelBandwidth": 1923,
  "ProcedureStepDescription": "Cole^Michael",
  "ProtocolName": "cmrr_mbep2d_bold_2mm_MB8_Task_8x",
  "PulseSequenceDetails": "%CustomerSeq%\\cmrr_mbep2d_bold",
  "ReceiveCoilName": "32Ch_Head",
  "ReconMatrixPE": 104,
  "RepetitionTime": 0.785,
  "SAR": 0.103367,
  "ScanOptions": "PFP\\FS",
  "ScanningSequence": "EP",
  "SequenceName": "epfid2d1_104",
  "SequenceVariant": "SK\\SS",
  "SeriesDescription": "cmrr_mbep2d_bold_2mm_MB8_Task_8x",
  "SeriesNumber": 19,
  "ShimSetting": [2141, -308, -7868, 436, 116, -229, 306, 114],
  "SliceThickness": 2,
  "SliceTiming": [0, 0.4375, 0.0875, 0.525, 0.175, 0.6125, 0.2625, 0.7, 0.35, 0, 0.4375, 0.0875, 0.525, 0.175, 0.6125, 0.2625, 0.7, 0.35, 0, 0.4375, 0.0875, 0.525, 0.175, 0.6125, 0.2625, 0.7, 0.35, 0, 0.4375, 0.0875, 0.525, 0.175, 0.6125, 0.2625, 0.7, 0.35, 0, 0.4375, 0.0875, 0.525, 0.175, 0.6125, 0.2625, 0.7, 0.35, 0, 0.4375, 0.0875, 0.525, 0.175, 0.6125, 0.2625, 0.7, 0.35, 0, 0.4375, 0.0875, 0.525, 0.175, 0.6125, 0.2625, 0.7, 0.35, 0, 0.4375, 0.0875, 0.525, 0.175, 0.6125, 0.2625, 0.7, 0.35],
  "SoftwareVersions": "syngo MR B19",
  "SpacingBetweenSlices": 2,
  "StationName": "MRC35450",
  "TaskName": "cpro",
  "TotalReadoutTime": 0.0710717,
  "TxRefAmp": 311.498,
  "dcmmeta_affine": [
    [-1.999996542930603, -9.485792418217898e-08, 0.003746682545170188, 103.17632293701172],
    [-0.00036563980393111706, 1.9904582500457764, -0.19512982666492462, -67.47405242919922],
    [0.003728798357769847, 0.19513016939163208, 1.9904547929763794, -103.73338317871094],
    [0.0, 0.0, 0.0, 1.0]
],
  "dcmmeta_reorient_transform": [
    [0.0, -1.0, 0.0, 103.0],
    [1.0, 0.0, 0.0, 0.0],
    [0.0, 0.0, 1.0, 0.0],
    [0.0, 0.0, 0.0, 1.0]
],
  "dcmmeta_shape": [104, 104, 72, 581],
  "dcmmeta_slice_dim": 2,
  "dcmmeta_version": 0.6,
  "global": {
    "const": {
      "AcquisitionMatrix": [104, 0, 0, 104],
      "AngioFlag": "N",
      "BitsAllocated": 16,
      "BitsStored": 12,
      "Columns": 936,
      "EchoNumbers": 1,
      "EchoTime": 34.8,
      "EchoTrainLength": 1,
      "FlipAngle": 55.0,
      "HighBit": 11,
      "ImageOrientationPatient": [0.9999982452947, 0.0001828199023, 0.00186439920576, -4.7428962e-08, 0.99522914660055, -0.0975650847216],
      "ImagePositionPatient": [-935.17481101937, -965.72590628021, -4.0120032057953],
      "ImageType": [
        "ORIGINAL",
        "PRIMARY",
        "M",
        "MB",
        "ND",
        "MOSAIC"
],
      "ImagedNucleus": "1H",
      "ImagingFrequency": 123.234914,
      "InPlanePhaseEncodingDirection": "COL",
      "MRAcquisitionType": "2D",
      "MagneticFieldStrength": 3.0,
      "Manufacturer": "SIEMENS",
      "ManufacturerModelName": "TrioTim",
      "Modality": "MR",
      "NumberOfAverages": 1.0,
      "NumberOfPhaseEncodingSteps": 91,
      "PercentPhaseFieldOfView": 100.0,
      "PercentSampling": 100.0,
      "PerformedProcedureStepStartTime": "152947.468000",
      "PhotometricInterpretation": "MONOCHROME2",
      "PixelBandwidth": 1923.0,
      "PixelRepresentation": 0,
      "PixelSpacing": [2.0, 2.0],
      "ProtocolName": "cmrr_mbep2d_bold_2mm_MB8_Task_8x",
      "RepetitionTime": 785.0,
      "Rows": 936,
      "SAR": 0.10336698472513,
      "SamplesPerPixel": 1,
      "ScanOptions": [
        "PFP",
        "FS"
],
      "ScanningSequence": "EP",
      "SequenceName": "epfid2d1_104",
      "SequenceVariant": [
        "SK",
        "SS"
],
      "SeriesDescription": "cmrr_mbep2d_bold_2mm_MB8_Task_8x",
      "SeriesNumber": 19,
      "SeriesTime": "164820.953000",
      "SliceLocation": -96.461918400881,
      "SliceThickness": 2.0,
      "SmallestImagePixelValue": 0,
      "SoftwareVersions": "syngo MR B19",
      "SpacingBetweenSlices": 1.9999999671437,
      "SpecificCharacterSet": "ISO_IR 100",
      "StudyID": "1",
      "StudyTime": "152947.421000",
      "TransmitCoilName": "Body",
      "VariableFlipAngleFlag": "N",
      "WindowCenterWidthExplanation": "Algo1",
      "dBdt": 0.0},
    "slices": {}
  },
  "time": {
    "samples": {
      "AcquisitionNumber": [1, 2, 3, 4, 5, 6, 7, 8, 9, 10, 11, 12, 13, 14, 15, 16, 17, 18, 19, 20, 21, 22, 23, 24, 25, 26, 27, 28, 29, 30, 31, 32, 33, 34, 35, 36, 37, 38, 39, 40, 41, 42, 43, 44, 45, 46, 47, 48, 49, 50, 51, 52, 53, 54, 55, 56, 57, 58, 59, 60, 61, 62, 63, 64, 65, 66, 67, 68, 69, 70, 71, 72, 73, 74, 75, 76, 77, 78, 79, 80, 81, 82, 83, 84, 85, 86, 87, 88, 89, 90, 91, 92, 93, 94, 95, 96, 97, 98, 99, 100, 101, 102, 103, 104, 105, 106, 107, 108, 109, 110, 111, 112, 113, 114, 115, 116, 117, 118, 119, 120, 121, 122, 123, 124, 125, 126, 127, 128, 129, 130, 131, 132, 133, 134, 135, 136, 137, 138, 139, 140, 141, 142, 143, 144, 145, 146, 147, 148, 149, 150, 151, 152, 153, 154, 155, 156, 157, 158, 159, 160, 161, 162, 163, 164, 165, 166, 167, 168, 169, 170, 171, 172, 173, 174, 175, 176, 177, 178, 179, 180, 181, 182, 183, 184, 185, 186, 187, 188, 189, 190, 191, 192, 193, 194, 195, 196, 197, 198, 199, 200, 201, 202, 203, 204, 205, 206, 207, 208, 209, 210, 211, 212, 213, 214, 215, 216, 217, 218, 219, 220, 221, 222, 223, 224, 225, 226, 227, 228, 229, 230, 231, 232, 233, 234, 235, 236, 237, 238, 239, 240, 241, 242, 243, 244, 245, 246, 247, 248, 249, 250, 251, 252, 253, 254, 255, 256, 257, 258, 259, 260, 261, 262, 263, 264, 265, 266, 267, 268, 269, 270, 271, 272, 273, 274, 275, 276, 277, 278, 279, 280, 281, 282, 283, 284, 285, 286, 287, 288, 289, 290, 291, 292, 293, 294, 295, 296, 297, 298, 299, 300, 301, 302, 303, 304, 305, 306, 307, 308, 309, 310, 311, 312, 313, 314, 315, 316, 317, 318, 319, 320, 321, 322, 323, 324, 325, 326, 327, 328, 329, 330, 331, 332, 333, 334, 335, 336, 337, 338, 339, 340, 341, 342, 343, 344, 345, 346, 347, 348, 349, 350, 351, 352, 353, 354, 355, 356, 357, 358, 359, 360, 361, 362, 363, 364, 365, 366, 367, 368, 369, 370, 371, 372, 373, 374, 375, 376, 377, 378, 379, 380, 381, 382, 383, 384, 385, 386, 387, 388, 389, 390, 391, 392, 393, 394, 395, 396, 397, 398, 399, 400, 401, 402, 403, 404, 405, 406, 407, 408, 409, 410, 411, 412, 413, 414, 415, 416, 417, 418, 419, 420, 421, 422, 423, 424, 425, 426, 427, 428, 429, 430, 431, 432, 433, 434, 435, 436, 437, 438, 439, 440, 441, 442, 443, 444, 445, 446, 447, 448, 449, 450, 451, 452, 453, 454, 455, 456, 457, 458, 459, 460, 461, 462, 463, 464, 465, 466, 467, 468, 469, 470, 471, 472, 473, 474, 475, 476, 477, 478, 479, 480, 481, 482, 483, 484, 485, 486, 487, 488, 489, 490, 491, 492, 493, 494, 495, 496, 497, 498, 499, 500, 501, 502, 503, 504, 505, 506, 507, 508, 509, 510, 511, 512, 513, 514, 515, 516, 517, 518, 519, 520, 521, 522, 523, 524, 525, 526, 527, 528, 529, 530, 531, 532, 533, 534, 535, 536, 537, 538, 539, 540, 541, 542, 543, 544, 545, 546, 547, 548, 549, 550, 551, 552, 553, 554, 555, 556, 557, 558, 559, 560, 561, 562, 563, 564, 565, 566, 567, 568, 569, 570, 571, 572, 573, 574, 575, 576, 577, 578, 579, 580, 581],
      "AcquisitionTime": ["164745.732500", "164746.520000", "164747.307500", "164748.095000", "164748.885000", "164749.672500", "164750.460000", "164751.247500", "164752.037500", "164752.825000", "164753.612500", "164754.400000", "164755.190000", "164755.977500", "164756.765000", "164757.555000", "164758.342500", "164759.130000", "164759.917500", "164800.707500", "164801.495000", "164802.282500", "164803.070000", "164803.860000", "164804.647500", "164805.435000", "164806.222500", "164807.012500", "164807.800000", "164808.587500", "164809.375000", "164810.165000", "164810.952500", "164811.740000", "164812.527500", "164813.317500", "164814.105000", "164814.892500", "164815.682500", "164816.470000", "164817.257500", "164818.045000", "164818.835000", "164819.622500", "164820.410000", "164821.197500", "164821.987500", "164822.775000", "164823.562500", "164824.350000", "164825.140000", "164825.927500", "164826.715000", "164827.502500", "164828.292500", "164829.080000", "164829.867500", "164830.655000", "164831.445000", "164832.232500", "164833.020000", "164833.810000", "164834.597500", "164835.385000", "164836.172500", "164836.962500", "164837.750000", "164838.537500", "164839.325000", "164840.115000", "164840.902500", "164841.690000", "164842.477500", "164843.267500", "164844.055000", "164844.842500", "164845.630000", "164846.420000", "164847.207500", "164847.995000", "164848.782500", "164849.572500", "164850.360000", "164851.147500", "164851.937500", "164852.725000", "164853.512500", "164854.300000", "164855.090000", "164855.877500", "164856.665000", "164857.452500", "164858.242500", "164859.030000", "164859.817500", "164900.605000", "164901.395000", "164902.182500", "164902.970000", "164903.757500", "164904.547500", "164905.335000", "164906.122500", "164906.910000", "164907.700000", "164908.487500", "164909.275000", "164910.065000", "164910.852500", "164911.640000", "164912.427500", "164913.217500", "164914.005000", "164914.792500", "164915.580000", "164916.370000", "164917.157500", "164917.945000", "164918.732500", "164919.522500", "164920.310000", "164921.097500", "164921.885000", "164922.675000", "164923.462500", "164924.250000", "164925.037500", "164925.827500", "164926.615000", "164927.402500", "164928.192500", "164928.980000", "164929.767500", "164930.555000", "164931.345000", "164932.132500", "164932.920000", "164933.707500", "164934.497500", "164935.285000", "164936.072500", "164936.860000", "164937.650000", "164938.437500", "164939.225000", "164940.012500", "164940.802500", "164941.590000", "164942.377500", "164943.165000", "164943.955000", "164944.742500", "164945.530000", "164946.320000", "164947.107500", "164947.895000", "164948.682500", "164949.472500", "164950.260000", "164951.047500", "164951.835000", "164952.625000", "164953.412500", "164954.200000", "164954.987500", "164955.777500", "164956.565000", "164957.352500", "164958.140000", "164958.930000", "164959.717500", "165000.505000", "165001.292500", "165002.082500", "165002.870000", "165003.657500", "165004.447500", "165005.235000", "165006.022500", "165006.810000", "165007.600000", "165008.387500", "165009.175000", "165009.962500", "165010.752500", "165011.540000", "165012.327500", "165013.115000", "165013.905000", "165014.692500", "165015.480000", "165016.267500", "165017.057500", "165017.845000", "165018.632500", "165019.420000", "165020.210000", "165020.997500", "165021.785000", "165022.575000", "165023.362500", "165024.150000", "165024.937500", "165025.727500", "165026.515000", "165027.302500", "165028.090000", "165028.880000", "165029.667500", "165030.455000", "165031.242500", "165032.032500", "165032.820000", "165033.607500", "165034.395000", "165035.185000", "165035.972500", "165036.760000", "165037.547500", "165038.337500", "165039.125000", "165039.912500", "165040.702500", "165041.490000", "165042.277500", "165043.065000", "165043.855000", "165044.642500", "165045.430000", "165046.217500", "165047.007500", "165047.795000", "165048.582500", "165049.370000", "165050.160000", "165050.947500", "165051.735000", "165052.522500", "165053.312500", "165054.100000", "165054.887500", "165055.675000", "165056.465000", "165057.252500", "165058.040000", "165058.830000", "165059.617500", "165100.405000", "165101.192500", "165101.982500", "165102.770000", "165103.557500", "165104.345000", "165105.135000", "165105.922500", "165106.710000", "165107.497500", "165108.287500", "165109.075000", "165109.862500", "165110.650000", "165111.440000", "165112.227500", "165113.015000", "165113.805000", "165114.592500", "165115.380000", "165116.167500", "165116.957500", "165117.745000", "165118.532500", "165119.320000", "165120.110000", "165120.897500", "165121.685000", "165122.472500", "165123.262500", "165124.050000", "165124.837500", "165125.625000", "165126.415000", "165127.202500", "165127.990000", "165128.777500", "165129.567500", "165130.355000", "165131.142500", "165131.932500", "165132.720000", "165133.507500", "165134.295000", "165135.085000", "165135.872500", "165136.660000", "165137.447500", "165138.237500", "165139.025000", "165139.812500", "165140.600000", "165141.390000", "165142.177500", "165142.965000", "165143.752500", "165144.542500", "165145.330000", "165146.117500", "165146.905000", "165147.695000", "165148.482500", "165149.270000", "165150.060000", "165150.847500", "165151.635000", "165152.422500", "165153.212500", "165154.000000", "165154.787500", "165155.575000", "165156.365000", "165157.152500", "165157.940000", "165158.727500", "165159.517500", "165200.305000", "165201.092500", "165201.880000", "165202.670000", "165203.457500", "165204.245000", "165205.032500", "165205.822500", "165206.610000", "165207.397500", "165208.187500", "165208.975000", "165209.762500", "165210.550000", "165211.340000", "165212.127500", "165212.915000", "165213.702500", "165214.492500", "165215.280000", "165216.067500", "165216.855000", "165217.645000", "165218.432500", "165219.220000", "165220.007500", "165220.797500", "165221.585000", "165222.372500", "165223.160000", "165223.950000", "165224.737500", "165225.525000", "165226.315000", "165227.102500", "165227.890000", "165228.677500", "165229.467500", "165230.255000", "165231.042500", "165231.830000", "165232.620000", "165233.407500", "165234.195000", "165234.982500", "165235.772500", "165236.560000", "165237.347500", "165238.135000", "165238.925000", "165239.712500", "165240.500000", "165241.287500", "165242.077500", "165242.865000", "165243.652500", "165244.442500", "165245.230000", "165246.017500", "165246.805000", "165247.595000", "165248.382500", "165249.170000", "165249.957500", "165250.747500", "165251.535000", "165252.322500", "165253.110000", "165253.900000", "165254.687500", "165255.475000", "165256.262500", "165257.052500", "165257.840000", "165258.627500", "165259.415000", "165300.205000", "165300.992500", "165301.780000", "165302.570000", "165303.357500", "165304.145000", "165304.932500", "165305.722500", "165306.510000", "165307.297500", "165308.085000", "165308.875000", "165309.662500", "165310.450000", "165311.237500", "165312.027500", "165312.815000", "165313.602500", "165314.390000", "165315.180000", "165315.967500", "165316.755000", "165317.542500", "165318.332500", "165319.120000", "165319.907500", "165320.697500", "165321.485000", "165322.272500", "165323.060000", "165323.850000", "165324.637500", "165325.425000", "165326.212500", "165327.002500", "165327.790000", "165328.577500", "165329.365000", "165330.155000", "165330.942500", "165331.730000", "165332.517500", "165333.307500", "165334.095000", "165334.882500", "165335.670000", "165336.460000", "165337.247500", "165338.035000", "165338.825000", "165339.612500", "165340.400000", "165341.187500", "165341.977500", "165342.765000", "165343.552500", "165344.340000", "165345.130000", "165345.917500", "165346.705000", "165347.492500", "165348.282500", "165349.070000", "165349.857500", "165350.645000", "165351.435000", "165352.222500", "165353.010000", "165353.797500", "165354.587500", "165355.375000", "165356.162500", "165356.952500", "165357.740000", "165358.527500", "165359.315000", "165400.105000", "165400.892500", "165401.680000", "165402.467500", "165403.257500", "165404.045000", "165404.832500", "165405.620000", "165406.410000", "165407.197500", "165407.985000", "165408.772500", "165409.562500", "165410.350000", "165411.137500", "165411.925000", "165412.715000", "165413.502500", "165414.290000", "165415.080000", "165415.867500", "165416.655000", "165417.442500", "165418.232500", "165419.020000", "165419.807500", "165420.595000", "165421.385000", "165422.172500", "165422.960000", "165423.747500", "165424.537500", "165425.325000", "165426.112500", "165426.900000", "165427.690000", "165428.477500", "165429.265000", "165430.055000", "165430.842500", "165431.630000", "165432.417500", "165433.207500", "165433.995000", "165434.782500", "165435.570000", "165436.360000", "165437.147500", "165437.935000", "165438.722500", "165439.512500", "165440.300000", "165441.087500", "165441.875000", "165442.665000", "165443.452500", "165444.240000", "165445.027500", "165445.817500", "165446.605000", "165447.392500", "165448.182500", "165448.970000", "165449.757500", "165450.545000", "165451.335000", "165452.122500", "165452.910000", "165453.697500", "165454.487500", "165455.275000", "165456.062500", "165456.850000", "165457.640000", "165458.427500", "165459.215000", "165500.002500", "165500.792500", "165501.580000", "165502.367500", "165503.155000", "165503.945000", "165504.732500", "165505.520000", "165506.310000", "165507.097500", "165507.885000", "165508.672500", "165509.462500", "165510.250000", "165511.037500", "165511.825000", "165512.615000", "165513.402500", "165514.190000", "165514.977500", "165515.767500", "165516.555000", "165517.342500", "165518.130000", "165518.920000", "165519.707500", "165520.495000", "165521.282500", "165522.072500", "165522.860000"],
      "ContentTime": ["164820.953000", "164820.968000", "164820.968000", "164820.968000", "164820.968000", "164820.968000", "164820.968000", "164820.968000", "164820.984000", "164820.984000", "164820.984000", "164820.984000", "164820.984000", "164820.984000", "164820.984000", "164821.000000", "164821.000000", "164821.000000", "164821.000000", "164821.000000", "164821.000000", "164821.000000", "164821.015000", "164821.015000", "164821.015000", "164821.015000", "164821.015000", "164821.015000", "164821.015000", "164821.031000", "164821.031000", "164821.031000", "164821.031000", "164821.031000", "164821.031000", "164821.031000", "164821.046000", "164821.046000", "164821.046000", "164821.046000", "164821.046000", "164821.046000", "164821.046000", "164840.921000", "164840.921000", "164840.937000", "164840.937000", "164840.937000", "164840.937000", "164840.937000", "164840.937000", "164840.937000", "164840.953000", "164840.953000", "164840.953000", "164840.953000", "164840.953000", "164840.953000", "164840.953000", "164840.968000", "164840.968000", "164840.968000", "164840.968000", "164840.968000", "164840.968000", "164840.984000", "164840.984000", "164840.984000", "164900.921000", "164900.921000", "164900.937000", "164900.937000", "164900.937000", "164900.937000", "164900.937000", "164900.953000", "164900.953000", "164900.953000", "164900.953000", "164900.953000", "164900.968000", "164900.968000", "164900.968000", "164900.968000", "164900.968000", "164900.968000", "164900.968000", "164900.984000", "164900.984000", "164900.984000", "164900.984000", "164900.984000", "164900.984000", "164920.921000", "164920.921000", "164920.937000", "164920.937000", "164920.937000", "164920.937000", "164920.937000", "164920.937000", "164920.937000", "164920.953000", "164920.953000", "164920.953000", "164920.953000", "164920.953000", "164920.953000", "164920.953000", "164920.968000", "164920.968000", "164920.968000", "164920.968000", "164920.968000", "164920.968000", "164920.984000", "164920.984000", "164920.984000", "164920.984000", "164940.921000", "164940.921000", "164940.937000", "164940.937000", "164940.937000", "164940.937000", "164940.937000", "164940.953000", "164940.953000", "164940.953000", "164940.953000", "164940.953000", "164940.968000", "164940.968000", "164940.968000", "164940.968000", "164940.968000", "164940.984000", "164940.984000", "164940.984000", "164940.984000", "164940.984000", "164940.984000", "164940.984000", "164941.000000", "165000.921000", "165000.921000", "165000.937000", "165000.937000", "165000.937000", "165000.937000", "165000.937000", "165000.937000", "165000.953000", "165000.953000", "165000.953000", "165000.953000", "165000.953000", "165000.953000", "165000.953000", "165000.968000", "165000.968000", "165000.968000", "165000.968000", "165000.968000", "165000.968000", "165000.968000", "165000.984000", "165000.984000", "165000.984000", "165000.984000", "165020.921000", "165020.921000", "165020.937000", "165020.937000", "165020.937000", "165020.953000", "165020.953000", "165020.953000", "165020.953000", "165020.968000", "165020.968000", "165020.968000", "165020.968000", "165020.968000", "165020.968000", "165020.968000", "165020.984000", "165020.984000", "165020.984000", "165020.984000", "165020.984000", "165020.984000", "165020.984000", "165021.000000", "165021.000000", "165040.921000", "165040.921000", "165040.937000", "165040.937000", "165040.937000", "165040.937000", "165040.937000", "165040.937000", "165040.937000", "165040.953000", "165040.953000", "165040.953000", "165040.953000", "165040.953000", "165040.953000", "165040.953000", "165040.968000", "165040.968000", "165040.968000", "165040.968000", "165040.968000", "165040.968000", "165040.968000", "165040.984000", "165040.984000", "165040.984000", "165100.921000", "165100.921000", "165100.937000", "165100.937000", "165100.937000", "165100.937000", "165100.937000", "165100.937000", "165100.953000", "165100.953000", "165100.953000", "165100.953000", "165100.953000", "165100.953000", "165100.968000", "165100.968000", "165100.968000", "165100.968000", "165100.968000", "165100.984000", "165100.984000", "165100.984000", "165100.984000", "165100.984000", "165100.984000", "165120.921000", "165120.921000", "165120.937000", "165120.937000", "165120.937000", "165120.937000", "165120.937000", "165120.937000", "165120.937000", "165120.953000", "165120.953000", "165120.953000", "165120.953000", "165120.953000", "165120.953000", "165120.968000", "165120.968000", "165120.968000", "165120.968000", "165120.968000", "165120.968000", "165120.968000", "165120.984000", "165120.984000", "165120.984000", "165120.984000", "165140.921000", "165140.921000", "165140.937000", "165140.937000", "165140.937000", "165140.937000", "165140.937000", "165140.937000", "165140.937000", "165140.953000", "165140.953000", "165140.953000", "165140.953000", "165140.968000", "165140.968000", "165140.968000", "165140.968000", "165140.968000", "165140.968000", "165140.968000", "165140.984000", "165140.984000", "165140.984000", "165140.984000", "165140.984000", "165200.921000", "165200.921000", "165200.937000", "165200.937000", "165200.937000", "165200.937000", "165200.937000", "165200.937000", "165200.937000", "165200.953000", "165200.953000", "165200.953000", "165200.953000", "165200.953000", "165200.953000", "165200.953000", "165200.968000", "165200.968000", "165200.968000", "165200.968000", "165200.968000", "165200.968000", "165200.968000", "165200.984000", "165200.984000", "165200.984000", "165220.921000", "165220.921000", "165220.937000", "165220.937000", "165220.937000", "165220.937000", "165220.937000", "165220.937000", "165220.937000", "165220.953000", "165220.953000", "165220.953000", "165220.953000", "165220.953000", "165220.968000", "165220.968000", "165220.968000", "165220.968000", "165220.968000", "165220.968000", "165220.984000", "165220.984000", "165220.984000", "165220.984000", "165220.984000", "165240.921000", "165240.921000", "165240.937000", "165240.937000", "165240.937000", "165240.937000", "165240.937000", "165240.937000", "165240.937000", "165240.953000", "165240.953000", "165240.953000", "165240.953000", "165240.953000", "165240.953000", "165240.953000", "165240.968000", "165240.968000", "165240.968000", "165240.968000", "165240.968000", "165240.968000", "165240.968000", "165240.984000", "165240.984000", "165240.984000", "165300.921000", "165300.921000", "165300.937000", "165300.937000", "165300.937000", "165300.937000", "165300.937000", "165300.937000", "165300.937000", "165300.953000", "165300.953000", "165300.953000", "165300.953000", "165300.953000", "165300.953000", "165300.953000", "165300.968000", "165300.968000", "165300.968000", "165300.968000", "165300.968000", "165300.968000", "165300.984000", "165300.984000", "165300.984000", "165320.921000", "165320.921000", "165320.937000", "165320.937000", "165320.937000", "165320.937000", "165320.937000", "165320.937000", "165320.937000", "165320.953000", "165320.953000", "165320.953000", "165320.953000", "165320.953000", "165320.953000", "165320.953000", "165320.968000", "165320.968000", "165320.968000", "165320.968000", "165320.968000", "165320.968000", "165320.984000", "165320.984000", "165320.984000", "165320.984000", "165340.921000", "165340.921000", "165340.937000", "165340.937000", "165340.937000", "165340.937000", "165340.937000", "165340.937000", "165340.937000", "165340.953000", "165340.953000", "165340.953000", "165340.953000", "165340.953000", "165340.953000", "165340.953000", "165340.968000", "165340.968000", "165340.968000", "165340.968000", "165340.968000", "165340.968000", "165340.968000", "165340.984000", "165340.984000", "165400.921000", "165400.921000", "165400.937000", "165400.937000", "165400.937000", "165400.937000", "165400.937000", "165400.937000", "165400.937000", "165400.953000", "165400.953000", "165400.953000", "165400.953000", "165400.953000", "165400.953000", "165400.968000", "165400.968000", "165400.968000", "165400.968000", "165400.968000", "165400.968000", "165400.968000", "165400.984000", "165400.984000", "165400.984000", "165400.984000", "165420.921000", "165420.921000", "165420.937000", "165420.937000", "165420.937000", "165420.937000", "165420.937000", "165420.937000", "165420.937000", "165420.953000", "165420.953000", "165420.953000", "165420.953000", "165420.953000", "165420.953000", "165420.953000", "165420.968000", "165420.968000", "165420.968000", "165420.968000", "165420.968000", "165420.968000", "165420.984000", "165420.984000", "165420.984000", "165440.921000", "165440.921000", "165440.937000", "165440.937000", "165440.937000", "165440.937000", "165440.937000", "165440.937000", "165440.937000", "165440.953000", "165440.953000", "165440.953000", "165440.953000", "165440.968000", "165440.968000", "165440.968000", "165440.968000", "165440.968000", "165440.968000", "165440.984000", "165440.984000", "165440.984000", "165440.984000", "165441.000000", "165441.000000", "165441.000000", "165500.921000", "165500.921000", "165500.937000", "165500.937000", "165500.937000", "165500.937000", "165500.937000", "165500.937000", "165500.953000", "165500.953000", "165500.953000", "165500.953000", "165500.953000", "165500.953000", "165500.968000", "165500.968000", "165500.968000", "165500.968000", "165500.968000", "165500.968000", "165500.984000", "165500.984000", "165500.984000", "165500.984000", "165500.984000", "165520.921000", "165520.921000", "165520.937000", "165520.937000", "165520.937000", "165520.937000", "165520.937000", "165520.937000", "165520.937000", "165520.953000", "165520.953000", "165520.953000", "165520.953000", "165520.953000", "165520.953000", "165520.953000", "165520.968000", "165520.968000", "165520.968000", "165520.968000", "165520.968000", "165520.968000", "165520.984000", "165520.984000", "165520.984000", "165520.984000", "165523.234000", "165523.234000", "165523.234000"],
      "DataSetTrailingPadding": [
        "\u0000\u0000\u0000\u0000\u0000\u0000\u0000\u0000\u0000\u0000\u0000\u0000\u0000\u0000\u0000\u0000\u0000\u0000\u0000\u0000\u0000\u0000\u0000\u0000\u0000\u0000\u0000\u0000\u0000\u0000\u0000\u0000\u0000\u0000\u0000\u0000\u0000\u0000\u0000\u0000\u0000\u0000\u0000\u0000\u0000\u0000\u0000\u0000\u0000\u0000\u0000\u0000\u0000\u0000\u0000\u0000\u0000\u0000\u0000\u0000\u0000\u0000\u0000\u0000\u0000\u0000\u0000\u0000\u0000\u0000\u0000\u0000\u0000\u0000\u0000\u0000\u0000\u0000\u0000\u0000\u0000\u0000\u0000\u0000\u0000\u0000\u0000\u0000\u0000\u0000\u0000\u0000\u0000\u0000\u0000\u0000\u0000\u0000\u0000\u0000\u0000\u0000\u0000\u0000\u0000\u0000\u0000\u0000\u0000\u0000\u0000\u0000\u0000\u0000\u0000\u0000\u0000\u0000\u0000\u0000\u0000\u0000\u0000\u0000\u0000\u0000\u0000\u0000\u0000\u0000\u0000\u0000\u0000\u0000\u0000\u0000\u0000\u0000\u0000\u0000\u0000\u0000\u0000\u0000\u0000\u0000\u0000\u0000\u0000\u0000\u0000\u0000\u0000\u0000\u0000\u0000\u0000\u0000\u0000\u0000\u0000\u0000\u0000\u0000\u0000\u0000\u0000\u0000\u0000\u0000\u0000\u0000\u0000\u0000\u0000\u0000\u0000\u0000\u0000\u0000\u0000\u0000\u0000\u0000\u0000\u0000\u0000\u0000\u0000\u0000\u0000\u0000\u0000\u0000\u0000\u0000\u0000\u0000\u0000\u0000\u0000\u0000\u0000\u0000\u0000\u0000\u0000\u0000\u0000\u0000\u0000\u0000\u0000\u0000\u0000\u0000\u0000\u0000\u0000\u0000\u0000\u0000\u0000\u0000\u0000\u0000\u0000\u0000\u0000\u0000\u0000\u0000\u0000\u0000\u0000\u0000\u0000\u0000\u0000\u0000\u0000\u0000\u0000\u0000\u0000\u0000\u0000\u0000\u0000\u0000\u0000\u0000",
