{
  "AcquisitionMatrixPE": 104,
  "AcquisitionNumber": 1,
  "AcquisitionTime": "16:20:53.825000",
  "BandwidthPerPixelPhaseEncode": 13.935,
  "BaseResolution": 104,
  "CoilString": "C:HEA;HEP",
  "ConversionSoftware": "dcm2niix",
  "ConversionSoftwareVersion": "v1.0.20210317",
  "DerivedVendorReportedEchoSpacing": 0.000690017,
  "DeviceSerialNumber": "35450",
  "DwellTime": 2.5e-06,
  "EchoTime": 0.0348,
  "EffectiveEchoSpacing": 0.000690017,
  "FlipAngle": 55,
  "ImageComments": "Unaliased MB8/PE3",
  "ImageOrientationPatientDICOM": [1, 0, 0, 0, 0.952129, -0.305695],
  "ImageType": [
    "ORIGINAL",
    "PRIMARY",
    "M",
    "MB",
    "ND",
    "MOSAIC"
],
  "ImagingFrequency": 123.235,
  "InPlanePhaseEncodingDirectionDICOM": "COL",
  "InstitutionAddress": "Univeristy Ave. 197,Newark,North East,US,07102-1814",
  "InstitutionName": "RUBIC",
  "InstitutionalDepartmentName": "Department",
  "MRAcquisitionType": "2D",
  "MagneticFieldStrength": 3,
  "Manufacturer": "Siemens",
  "ManufacturersModelName": "TrioTim",
  "Modality": "MR",
  "MultibandAccelerationFactor": 8,
  "PartialFourier": 0.875,
  "PatientPosition": "HFS",
  "PercentPhaseFOV": 100,
  "PercentSampling": 100,
  "PhaseEncodingDirection": "j-",
  "PhaseEncodingSteps": 91,
  "PhaseResolution": 1,
  "PixelBandwidth": 1923,
  "ProcedureStepDescription": "Cole^Michael",
  "ProtocolName": "cmrr_mbep2d_bold_2mm_MB8_Task_8x",
  "PulseSequenceDetails": "%CustomerSeq%\\cmrr_mbep2d_bold",
  "ReceiveCoilName": "32Ch_Head",
  "ReconMatrixPE": 104,
  "RepetitionTime": 0.785,
  "SAR": 0.147519,
  "ScanOptions": "PFP\\FS",
  "ScanningSequence": "EP",
  "SequenceName": "epfid2d1_104",
  "SequenceVariant": "SK\\SS",
  "SeriesDescription": "cmrr_mbep2d_bold_2mm_MB8_Task_8x",
  "SeriesNumber": 15,
  "ShimSetting": [2135, -321, -7297, 320, 201, -240, -156, 27],
  "SliceThickness": 2,
  "SliceTiming": [0, 0.4375, 0.0875, 0.525, 0.175, 0.6125, 0.2625, 0.7, 0.35, 0, 0.4375, 0.0875, 0.525, 0.175, 0.6125, 0.2625, 0.7, 0.35, 0, 0.4375, 0.0875, 0.525, 0.175, 0.6125, 0.2625, 0.7, 0.35, 0, 0.4375, 0.0875, 0.525, 0.175, 0.6125, 0.2625, 0.7, 0.35, 0, 0.4375, 0.0875, 0.525, 0.175, 0.6125, 0.2625, 0.7, 0.35, 0, 0.4375, 0.0875, 0.525, 0.175, 0.6125, 0.2625, 0.7, 0.35, 0, 0.4375, 0.0875, 0.525, 0.175, 0.6125, 0.2625, 0.7, 0.35, 0, 0.4375, 0.0875, 0.525, 0.175, 0.6125, 0.2625, 0.7, 0.35],
  "SoftwareVersions": "syngo MR B19",
  "SpacingBetweenSlices": 2,
  "StationName": "MRC35450",
  "TaskName": "cpro",
  "TotalReadoutTime": 0.0710717,
  "TxRefAmp": 344.952,
  "dcmmeta_affine": [
    [-2.0, 0.0, 0.0, 102.6440658569336],
    [0.0, 1.9042588472366333, -0.6113905906677246, -64.6802749633789],
    [0.0, 0.6113905906677246, 1.9042587280273438, -121.13286590576172],
    [0.0, 0.0, 0.0, 1.0]
],
  "dcmmeta_reorient_transform": [
    [0.0, -1.0, 0.0, 103.0],
    [1.0, 0.0, 0.0, 0.0],
    [0.0, 0.0, 1.0, 0.0],
    [0.0, 0.0, 0.0, 1.0]
],
  "dcmmeta_shape": [104, 104, 72, 581],
  "dcmmeta_slice_dim": 2,
  "dcmmeta_version": 0.6,
  "global": {
    "const": {
      "AcquisitionMatrix": [104, 0, 0, 104],
      "AngioFlag": "N",
      "BitsAllocated": 16,
      "BitsStored": 12,
      "Columns": 936,
      "EchoNumbers": 1,
      "EchoTime": 34.8,
      "EchoTrainLength": 1,
      "FlipAngle": 55.0,
      "HighBit": 11,
      "ImageOrientationPatient": [1.0, 0.0, 0.0, 0.0, 0.95212939539477, -0.3056952967011],
      "ImagePositionPatient": [-934.64406776428, -923.63003425552, 196.1788552684],
      "ImageType": [
        "ORIGINAL",
        "PRIMARY",
        "M",
        "MB",
        "ND",
        "MOSAIC"
],
      "ImagedNucleus": "1H",
      "ImagingFrequency": 123.234707,
      "InPlanePhaseEncodingDirection": "COL",
      "MRAcquisitionType": "2D",
      "MagneticFieldStrength": 3.0,
      "Manufacturer": "SIEMENS",
      "ManufacturerModelName": "TrioTim",
      "Modality": "MR",
      "NumberOfAverages": 1.0,
      "NumberOfPhaseEncodingSteps": 91,
      "PercentPhaseFieldOfView": 100.0,
      "PercentSampling": 100.0,
      "PerformedProcedureStepStartTime": "150120.031000",
      "PhotometricInterpretation": "MONOCHROME2",
      "PixelBandwidth": 1923.0,
      "PixelRepresentation": 0,
      "PixelSpacing": [2.0, 2.0],
      "ProtocolName": "cmrr_mbep2d_bold_2mm_MB8_Task_8x",
      "RepetitionTime": 785.0,
      "Rows": 936,
      "SAR": 0.14751919503172,
      "SamplesPerPixel": 1,
      "ScanOptions": [
        "PFP",
        "FS"
],
      "ScanningSequence": "EP",
      "SequenceName": "epfid2d1_104",
      "SequenceVariant": [
        "SK",
        "SS"
],
      "SeriesDescription": "cmrr_mbep2d_bold_2mm_MB8_Task_8x",
      "SeriesNumber": 15,
      "SeriesTime": "170403.953000",
      "SliceLocation": -95.561702507867,
      "SliceThickness": 2.0,
      "SmallestImagePixelValue": 0,
      "SoftwareVersions": "syngo MR B19",
      "SpacingBetweenSlices": 1.9999999926155,
      "SpecificCharacterSet": "ISO_IR 100",
      "StudyID": "1",
      "StudyTime": "150119.984000",
      "TransmitCoilName": "Body",
      "VariableFlipAngleFlag": "N",
      "WindowCenterWidthExplanation": "Algo1",
      "dBdt": 0.0},
    "slices": {}
  },
  "time": {
    "samples": {
      "AcquisitionNumber": [1, 2, 3, 4, 5, 6, 7, 8, 9, 10, 11, 12, 13, 14, 15, 16, 17, 18, 19, 20, 21, 22, 23, 24, 25, 26, 27, 28, 29, 30, 31, 32, 33, 34, 35, 36, 37, 38, 39, 40, 41, 42, 43, 44, 45, 46, 47, 48, 49, 50, 51, 52, 53, 54, 55, 56, 57, 58, 59, 60, 61, 62, 63, 64, 65, 66, 67, 68, 69, 70, 71, 72, 73, 74, 75, 76, 77, 78, 79, 80, 81, 82, 83, 84, 85, 86, 87, 88, 89, 90, 91, 92, 93, 94, 95, 96, 97, 98, 99, 100, 101, 102, 103, 104, 105, 106, 107, 108, 109, 110, 111, 112, 113, 114, 115, 116, 117, 118, 119, 120, 121, 122, 123, 124, 125, 126, 127, 128, 129, 130, 131, 132, 133, 134, 135, 136, 137, 138, 139, 140, 141, 142, 143, 144, 145, 146, 147, 148, 149, 150, 151, 152, 153, 154, 155, 156, 157, 158, 159, 160, 161, 162, 163, 164, 165, 166, 167, 168, 169, 170, 171, 172, 173, 174, 175, 176, 177, 178, 179, 180, 181, 182, 183, 184, 185, 186, 187, 188, 189, 190, 191, 192, 193, 194, 195, 196, 197, 198, 199, 200, 201, 202, 203, 204, 205, 206, 207, 208, 209, 210, 211, 212, 213, 214, 215, 216, 217, 218, 219, 220, 221, 222, 223, 224, 225, 226, 227, 228, 229, 230, 231, 232, 233, 234, 235, 236, 237, 238, 239, 240, 241, 242, 243, 244, 245, 246, 247, 248, 249, 250, 251, 252, 253, 254, 255, 256, 257, 258, 259, 260, 261, 262, 263, 264, 265, 266, 267, 268, 269, 270, 271, 272, 273, 274, 275, 276, 277, 278, 279, 280, 281, 282, 283, 284, 285, 286, 287, 288, 289, 290, 291, 292, 293, 294, 295, 296, 297, 298, 299, 300, 301, 302, 303, 304, 305, 306, 307, 308, 309, 310, 311, 312, 313, 314, 315, 316, 317, 318, 319, 320, 321, 322, 323, 324, 325, 326, 327, 328, 329, 330, 331, 332, 333, 334, 335, 336, 337, 338, 339, 340, 341, 342, 343, 344, 345, 346, 347, 348, 349, 350, 351, 352, 353, 354, 355, 356, 357, 358, 359, 360, 361, 362, 363, 364, 365, 366, 367, 368, 369, 370, 371, 372, 373, 374, 375, 376, 377, 378, 379, 380, 381, 382, 383, 384, 385, 386, 387, 388, 389, 390, 391, 392, 393, 394, 395, 396, 397, 398, 399, 400, 401, 402, 403, 404, 405, 406, 407, 408, 409, 410, 411, 412, 413, 414, 415, 416, 417, 418, 419, 420, 421, 422, 423, 424, 425, 426, 427, 428, 429, 430, 431, 432, 433, 434, 435, 436, 437, 438, 439, 440, 441, 442, 443, 444, 445, 446, 447, 448, 449, 450, 451, 452, 453, 454, 455, 456, 457, 458, 459, 460, 461, 462, 463, 464, 465, 466, 467, 468, 469, 470, 471, 472, 473, 474, 475, 476, 477, 478, 479, 480, 481, 482, 483, 484, 485, 486, 487, 488, 489, 490, 491, 492, 493, 494, 495, 496, 497, 498, 499, 500, 501, 502, 503, 504, 505, 506, 507, 508, 509, 510, 511, 512, 513, 514, 515, 516, 517, 518, 519, 520, 521, 522, 523, 524, 525, 526, 527, 528, 529, 530, 531, 532, 533, 534, 535, 536, 537, 538, 539, 540, 541, 542, 543, 544, 545, 546, 547, 548, 549, 550, 551, 552, 553, 554, 555, 556, 557, 558, 559, 560, 561, 562, 563, 564, 565, 566, 567, 568, 569, 570, 571, 572, 573, 574, 575, 576, 577, 578, 579, 580, 581],
      "AcquisitionTime": ["162053.825000", "162054.612500", "162055.400000", "162056.190000", "162056.977500", "162057.765000", "162058.552500", "162059.342500", "162100.130000", "162100.917500", "162101.705000", "162102.495000", "162103.282500", "162104.070000", "162104.857500", "162105.647500", "162106.435000", "162107.222500", "162108.012500", "162108.800000", "162109.587500", "162110.375000", "162111.165000", "162111.952500", "162112.740000", "162113.527500", "162114.317500", "162115.105000", "162115.892500", "162116.680000", "162117.470000", "162118.257500", "162119.045000", "162119.832500", "162120.622500", "162121.410000", "162122.197500", "162122.985000", "162123.775000", "162124.562500", "162125.350000", "162126.140000", "162126.927500", "162127.715000", "162128.502500", "162129.292500", "162130.080000", "162130.867500", "162131.655000", "162132.445000", "162133.232500", "162134.020000", "162134.807500", "162135.597500", "162136.385000", "162137.172500", "162137.960000", "162138.750000", "162139.537500", "162140.325000", "162141.112500", "162141.902500", "162142.690000", "162143.477500", "162144.267500", "162145.055000", "162145.842500", "162146.630000", "162147.420000", "162148.207500", "162148.995000", "162149.782500", "162150.572500", "162151.360000", "162152.147500", "162152.935000", "162153.725000", "162154.512500", "162155.300000", "162156.087500", "162156.877500", "162157.665000", "162158.452500", "162159.240000", "162200.030000", "162200.817500", "162201.605000", "162202.395000", "162203.182500", "162203.970000", "162204.757500", "162205.547500", "162206.335000", "162207.122500", "162207.910000", "162208.700000", "162209.487500", "162210.275000", "162211.062500", "162211.852500", "162212.640000", "162213.427500", "162214.215000", "162215.005000", "162215.792500", "162216.580000", "162217.367500", "162218.157500", "162218.945000", "162219.732500", "162220.522500", "162221.310000", "162222.097500", "162222.885000", "162223.675000", "162224.462500", "162225.250000", "162226.037500", "162226.827500", "162227.615000", "162228.402500", "162229.190000", "162229.980000", "162230.767500", "162231.555000", "162232.342500", "162233.132500", "162233.920000", "162234.707500", "162235.495000", "162236.285000", "162237.072500", "162237.860000", "162238.650000", "162239.437500", "162240.225000", "162241.012500", "162241.802500", "162242.590000", "162243.377500", "162244.165000", "162244.955000", "162245.742500", "162246.530000", "162247.317500", "162248.107500", "162248.895000", "162249.682500", "162250.470000", "162251.260000", "162252.047500", "162252.835000", "162253.622500", "162254.412500", "162255.200000", "162255.987500", "162256.777500", "162257.565000", "162258.352500", "162259.140000", "162259.930000", "162300.717500", "162301.505000", "162302.292500", "162303.082500", "162303.870000", "162304.657500", "162305.445000", "162306.235000", "162307.022500", "162307.810000", "162308.597500", "162309.387500", "162310.175000", "162310.962500", "162311.752500", "162312.540000", "162313.327500", "162314.115000", "162314.905000", "162315.692500", "162316.480000", "162317.267500", "162318.057500", "162318.845000", "162319.632500", "162320.420000", "162321.210000", "162321.997500", "162322.785000", "162323.572500", "162324.362500", "162325.150000", "162325.937500", "162326.725000", "162327.515000", "162328.302500", "162329.090000", "162329.880000", "162330.667500", "162331.455000", "162332.242500", "162333.032500", "162333.820000", "162334.607500", "162335.395000", "162336.185000", "162336.972500", "162337.760000", "162338.547500", "162339.337500", "162340.125000", "162340.912500", "162341.700000", "162342.490000", "162343.277500", "162344.065000", "162344.852500", "162345.642500", "162346.430000", "162347.217500", "162348.007500", "162348.795000", "162349.582500", "162350.370000", "162351.160000", "162351.947500", "162352.735000", "162353.522500", "162354.312500", "162355.100000", "162355.887500", "162356.675000", "162357.465000", "162358.252500", "162359.040000", "162359.827500", "162400.617500", "162401.405000", "162402.192500", "162402.980000", "162403.770000", "162404.557500", "162405.345000", "162406.135000", "162406.922500", "162407.710000", "162408.497500", "162409.287500", "162410.075000", "162410.862500", "162411.650000", "162412.440000", "162413.227500", "162414.015000", "162414.802500", "162415.592500", "162416.380000", "162417.167500", "162417.955000", "162418.745000", "162419.532500", "162420.320000", "162421.107500", "162421.897500", "162422.685000", "162423.472500", "162424.262500", "162425.050000", "162425.837500", "162426.625000", "162427.415000", "162428.202500", "162428.990000", "162429.777500", "162430.567500", "162431.355000", "162432.142500", "162432.930000", "162433.720000", "162434.507500", "162435.295000", "162436.082500", "162436.872500", "162437.660000", "162438.447500", "162439.235000", "162440.025000", "162440.812500", "162441.600000", "162442.390000", "162443.177500", "162443.965000", "162444.752500", "162445.542500", "162446.330000", "162447.117500", "162447.905000", "162448.695000", "162449.482500", "162450.270000", "162451.057500", "162451.847500", "162452.635000", "162453.422500", "162454.210000", "162455.000000", "162455.787500", "162456.575000", "162457.362500", "162458.152500", "162458.940000", "162459.727500", "162500.517500", "162501.305000", "162502.092500", "162502.880000", "162503.670000", "162504.457500", "162505.245000", "162506.032500", "162506.822500", "162507.610000", "162508.397500", "162509.185000", "162509.975000", "162510.762500", "162511.550000", "162512.337500", "162513.127500", "162513.915000", "162514.702500", "162515.490000", "162516.280000", "162517.067500", "162517.855000", "162518.645000", "162519.432500", "162520.220000", "162521.007500", "162521.797500", "162522.585000", "162523.372500", "162524.160000", "162524.950000", "162525.737500", "162526.525000", "162527.312500", "162528.102500", "162528.890000", "162529.677500", "162530.465000", "162531.255000", "162532.042500", "162532.830000", "162533.617500", "162534.407500", "162535.195000", "162535.982500", "162536.772500", "162537.560000", "162538.347500", "162539.135000", "162539.925000", "162540.712500", "162541.500000", "162542.287500", "162543.077500", "162543.865000", "162544.652500", "162545.440000", "162546.230000", "162547.017500", "162547.805000", "162548.592500", "162549.382500", "162550.170000", "162550.957500", "162551.745000", "162552.535000", "162553.322500", "162554.110000", "162554.900000", "162555.687500", "162556.475000", "162557.262500", "162558.052500", "162558.840000", "162559.627500", "162600.415000", "162601.205000", "162601.992500", "162602.780000", "162603.567500", "162604.357500", "162605.145000", "162605.932500", "162606.720000", "162607.510000", "162608.297500", "162609.085000", "162609.872500", "162610.662500", "162611.450000", "162612.237500", "162613.027500", "162613.815000", "162614.602500", "162615.390000", "162616.180000", "162616.967500", "162617.755000", "162618.542500", "162619.332500", "162620.120000", "162620.907500", "162621.695000", "162622.485000", "162623.272500", "162624.060000", "162624.847500", "162625.637500", "162626.425000", "162627.212500", "162628.002500", "162628.790000", "162629.577500", "162630.365000", "162631.155000", "162631.942500", "162632.730000", "162633.517500", "162634.307500", "162635.095000", "162635.882500", "162636.670000", "162637.460000", "162638.247500", "162639.035000", "162639.822500", "162640.612500", "162641.400000", "162642.187500", "162642.975000", "162643.765000", "162644.552500", "162645.340000", "162646.130000", "162646.917500", "162647.705000", "162648.492500", "162649.282500", "162650.070000", "162650.857500", "162651.645000", "162652.435000", "162653.222500", "162654.010000", "162654.797500", "162655.587500", "162656.375000", "162657.162500", "162657.950000", "162658.740000", "162659.527500", "162700.315000", "162701.102500", "162701.892500", "162702.680000", "162703.467500", "162704.257500", "162705.045000", "162705.832500", "162706.620000", "162707.410000", "162708.197500", "162708.985000", "162709.772500", "162710.562500", "162711.350000", "162712.137500", "162712.925000", "162713.715000", "162714.502500", "162715.290000", "162716.077500", "162716.867500", "162717.655000", "162718.442500", "162719.230000", "162720.020000", "162720.807500", "162721.595000", "162722.385000", "162723.172500", "162723.960000", "162724.747500", "162725.537500", "162726.325000", "162727.112500", "162727.900000", "162728.690000", "162729.477500", "162730.265000", "162731.052500", "162731.842500", "162732.630000", "162733.417500", "162734.205000", "162734.995000", "162735.782500", "162736.570000", "162737.357500", "162738.147500", "162738.935000", "162739.722500", "162740.512500", "162741.300000", "162742.087500", "162742.875000", "162743.665000", "162744.452500", "162745.240000", "162746.027500", "162746.817500", "162747.605000", "162748.392500", "162749.180000", "162749.970000", "162750.757500", "162751.545000", "162752.332500", "162753.122500", "162753.910000", "162754.697500", "162755.485000", "162756.275000", "162757.062500", "162757.850000", "162758.640000", "162759.427500", "162800.215000", "162801.002500", "162801.792500", "162802.580000", "162803.367500", "162804.155000", "162804.945000", "162805.732500", "162806.520000", "162807.307500", "162808.097500", "162808.885000", "162809.672500", "162810.460000", "162811.250000", "162812.037500", "162812.825000", "162813.612500", "162814.402500", "162815.190000", "162815.977500", "162816.767500", "162817.555000", "162818.342500", "162819.130000", "162819.920000", "162820.707500", "162821.495000", "162822.282500", "162823.072500", "162823.860000", "162824.647500", "162825.435000", "162826.225000", "162827.012500", "162827.800000", "162828.587500", "162829.377500", "162830.165000", "162830.952500"],
      "ContentTime": ["170403.953000", "170403.953000", "170403.968000", "170403.968000", "170403.968000", "170403.968000", "170403.968000", "170403.968000", "170503.937000", "170503.937000", "170503.937000", "170503.937000", "170503.937000", "170503.937000", "170503.937000", "170503.953000", "170503.953000", "170503.953000", "170503.953000", "170503.953000", "170503.953000", "170503.968000", "170503.968000", "170503.968000", "170503.968000", "170503.968000", "170503.968000", "170503.968000", "170503.984000", "170503.984000", "170503.984000", "170503.984000", "170503.984000", "170503.984000", "170504.000000", "170504.000000", "170603.937000", "170603.937000", "170603.937000", "170603.937000", "170603.937000", "170603.937000", "170603.937000", "170603.953000", "170603.953000", "170603.953000", "170603.953000", "170603.953000", "170603.953000", "170603.953000", "170603.968000", "170603.968000", "170603.968000", "170603.968000", "170603.968000", "170603.968000", "170603.968000", "170603.984000", "170603.984000", "170603.984000", "170603.984000", "170603.984000", "170603.984000", "170703.937000", "170703.937000", "170703.937000", "170703.937000", "170703.937000", "170703.937000", "170703.937000", "170703.953000", "170703.953000", "170703.953000", "170703.953000", "170703.953000", "170703.953000", "170703.953000", "170703.968000", "170703.968000", "170703.968000", "170703.968000", "170703.968000", "170703.968000", "170703.968000", "170703.984000", "170703.984000", "170703.984000", "170703.984000", "170703.984000", "170703.984000", "170803.937000", "170803.937000", "170803.937000", "170803.937000", "170803.937000", "170803.937000", "170803.937000", "170803.953000", "170803.953000", "170803.953000", "170803.953000", "170803.953000", "170803.953000", "170803.968000", "170803.968000", "170803.968000", "170803.968000", "170803.968000", "170803.968000", "170803.984000", "170803.984000", "170803.984000", "170803.984000", "170803.984000", "170803.984000", "170803.984000", "170804.000000", "170804.000000", "170903.937000", "170903.937000", "170903.937000", "170903.937000", "170903.937000", "170903.937000", "170903.937000", "170903.953000", "170903.953000", "170903.953000", "170903.953000", "170903.953000", "170903.953000", "170903.953000", "170903.968000", "170903.968000", "170903.968000", "170903.968000", "170903.968000", "170903.968000", "170903.968000", "170903.984000", "170903.984000", "170903.984000", "170903.984000", "170903.984000", "170903.984000", "171003.937000", "171003.937000", "171003.937000", "171003.937000", "171003.937000", "171003.937000", "171003.937000", "171003.953000", "171003.953000", "171003.953000", "171003.953000", "171003.953000", "171003.953000", "171003.953000", "171003.968000", "171003.968000", "171003.968000", "171003.968000", "171003.968000", "171003.968000", "171003.968000", "171003.984000", "171003.984000", "171003.984000", "171003.984000", "171003.984000", "171003.984000", "171004.000000", "171103.937000", "171103.937000", "171103.937000", "171103.937000", "171103.937000", "171103.937000", "171103.937000", "171103.953000", "171103.953000", "171103.953000", "171103.953000", "171103.953000", "171103.953000", "171103.953000", "171103.968000", "171103.968000", "171103.968000", "171103.968000", "171103.968000", "171103.984000", "171103.984000", "171103.984000", "171103.984000", "171103.984000", "171103.984000", "171104.000000", "171104.000000", "171104.000000", "171203.937000", "171203.937000", "171203.937000", "171203.937000", "171203.937000", "171203.937000", "171203.937000", "171203.953000", "171203.953000", "171203.953000", "171203.953000", "171203.953000", "171203.953000", "171203.953000", "171203.968000", "171203.968000", "171203.968000", "171203.968000", "171203.968000", "171203.968000", "171203.968000", "171203.984000", "171203.984000", "171203.984000", "171204.000000", "171204.000000", "171204.000000", "171303.937000", "171303.937000", "171303.937000", "171303.937000", "171303.937000", "171303.937000", "171303.937000", "171303.953000", "171303.953000", "171303.953000", "171303.953000", "171303.953000", "171303.953000", "171303.953000", "171303.968000", "171303.968000", "171303.968000", "171303.968000", "171303.968000", "171303.968000", "171303.984000", "171303.984000", "171303.984000", "171303.984000", "171303.984000", "171303.984000", "171303.984000", "171403.937000", "171403.937000", "171403.937000", "171403.937000", "171403.937000", "171403.937000", "171403.937000", "171403.953000", "171403.953000", "171403.953000", "171403.953000", "171403.953000", "171403.953000", "171403.968000", "171403.968000", "171403.968000", "171403.968000", "171403.968000", "171403.968000", "171403.968000", "171403.984000", "171403.984000", "171403.984000", "171403.984000", "171403.984000", "171404.000000", "171404.000000", "171404.000000", "171503.937000", "171503.937000", "171503.937000", "171503.937000", "171503.937000", "171503.937000", "171503.937000", "171503.953000", "171503.953000", "171503.953000", "171503.953000", "171503.953000", "171503.953000", "171503.953000", "171503.968000", "171503.968000", "171503.968000", "171503.968000", "171503.968000", "171503.984000", "171503.984000", "171503.984000", "171503.984000", "171503.984000", "171504.000000", "171504.000000", "171504.000000", "171603.937000", "171603.937000", "171603.937000", "171603.937000", "171603.937000", "171603.937000", "171603.937000", "171603.953000", "171603.953000", "171603.953000", "171603.953000", "171603.953000", "171603.953000", "171603.953000", "171603.968000", "171603.968000", "171603.968000", "171603.968000", "171603.968000", "171603.968000", "171603.968000", "171603.984000", "171603.984000", "171603.984000", "171603.984000", "171603.984000", "171603.984000", "171603.984000", "171703.937000", "171703.937000", "171703.937000", "171703.937000", "171703.937000", "171703.937000", "171703.937000", "171703.953000", "171703.953000", "171703.953000", "171703.953000", "171703.953000", "171703.953000", "171703.953000", "171703.968000", "171703.968000", "171703.968000", "171703.968000", "171703.968000", "171703.968000", "171703.968000", "171703.984000", "171703.984000", "171703.984000", "171703.984000", "171703.984000", "171703.984000", "171803.937000", "171803.937000", "171803.937000", "171803.937000", "171803.937000", "171803.937000", "171803.937000", "171803.953000", "171803.953000", "171803.953000", "171803.953000", "171803.953000", "171803.953000", "171803.953000", "171803.968000", "171803.968000", "171803.968000", "171803.968000", "171803.968000", "171803.968000", "171803.984000", "171803.984000", "171803.984000", "171803.984000", "171803.984000", "171804.000000", "171804.000000", "171903.921000", "171903.937000", "171903.937000", "171903.937000", "171903.937000", "171903.937000", "171903.937000", "171903.937000", "171903.953000", "171903.953000", "171903.953000", "171903.953000", "171903.953000", "171903.953000", "171903.953000", "171903.968000", "171903.968000", "171903.968000", "171903.968000", "171903.968000", "171903.968000", "171903.968000", "171903.984000", "171903.984000", "171903.984000", "171903.984000", "171903.984000", "171903.984000", "172003.921000", "172003.937000", "172003.937000", "172003.937000", "172003.937000", "172003.937000", "172003.937000", "172003.937000", "172003.953000", "172003.953000", "172003.953000", "172003.953000", "172003.953000", "172003.953000", "172003.953000", "172003.968000", "172003.968000", "172003.968000", "172003.968000", "172003.968000", "172003.968000", "172003.968000", "172003.984000", "172003.984000", "172003.984000", "172003.984000", "172003.984000", "172003.984000", "172043.921000", "172043.937000", "172043.937000", "172043.937000", "172043.937000", "172043.937000", "172043.937000", "172043.937000", "172043.953000", "172043.953000", "172043.953000", "172043.953000", "172043.953000", "172043.953000", "172043.953000", "172043.968000", "172043.968000", "172043.968000", "172043.968000", "172143.921000", "172143.937000", "172143.937000", "172143.937000", "172143.937000", "172143.937000", "172143.937000", "172143.937000", "172143.953000", "172143.953000", "172143.953000", "172143.953000", "172143.953000", "172143.953000", "172143.953000", "172143.968000", "172143.968000", "172143.968000", "172143.968000", "172143.968000", "172143.968000", "172143.968000", "172143.984000", "172143.984000", "172143.984000", "172143.984000", "172143.984000", "172243.921000", "172243.937000", "172243.937000", "172243.937000", "172243.937000", "172243.937000", "172243.937000", "172243.937000", "172243.953000", "172243.953000", "172243.953000", "172243.953000", "172243.953000", "172243.953000", "172243.953000", "172243.968000", "172243.968000", "172243.968000", "172243.968000", "172243.968000", "172243.968000", "172243.984000", "172243.984000", "172243.984000", "172243.984000", "172243.984000", "172243.984000", "172243.984000", "172343.921000", "172343.937000", "172343.937000", "172343.937000", "172343.937000", "172343.937000", "172343.937000", "172343.937000", "172343.953000", "172343.953000", "172343.953000", "172343.953000", "172343.953000", "172343.953000", "172343.953000", "172343.968000", "172343.968000", "172343.968000", "172343.968000", "172343.968000", "172343.968000", "172343.968000", "172343.984000", "172343.984000", "172343.984000", "172343.984000", "172343.984000", "172343.984000", "172443.921000", "172443.921000", "172443.921000", "172443.921000", "172443.921000", "172443.921000", "172443.937000", "172443.937000", "172443.937000", "172443.937000", "172443.937000", "172443.937000", "172443.937000", "172443.953000", "172443.953000", "172443.953000", "172443.953000", "172443.953000", "172443.953000", "172443.953000", "172443.968000", "172443.968000", "172443.968000", "172443.968000", "172443.968000", "172443.968000", "172443.968000", "172443.984000", "172449.609000", "172449.609000", "172449.609000"],
