{
  "AcquisitionMatrixPE": 104,
  "AcquisitionNumber": 1,
  "AcquisitionTime": "16:37:27.710000",
  "BandwidthPerPixelPhaseEncode": 13.935,
  "BaseResolution": 104,
  "CoilString": "C:HEA;HEP",
  "ConversionSoftware": "dcm2niix",
  "ConversionSoftwareVersion": "v1.0.20210317",
  "DerivedVendorReportedEchoSpacing": 0.000690017,
  "DeviceSerialNumber": "35450",
  "DwellTime": 2.5e-06,
  "EchoTime": 0.0348,
  "EffectiveEchoSpacing": 0.000690017,
  "FlipAngle": 55,
  "ImageComments": "Unaliased MB8/PE3",
  "ImageOrientationPatientDICOM": [1, 0, 0, 0, 0.952129, -0.305695],
  "ImageType": [
    "ORIGINAL",
    "PRIMARY",
    "M",
    "MB",
    "ND",
    "MOSAIC"
],
  "ImagingFrequency": 123.235,
  "InPlanePhaseEncodingDirectionDICOM": "COL",
  "InstitutionAddress": "Univeristy Ave. 197,Newark,North East,US,07102-1814",
  "InstitutionName": "RUBIC",
  "InstitutionalDepartmentName": "Department",
  "MRAcquisitionType": "2D",
  "MagneticFieldStrength": 3,
  "Manufacturer": "Siemens",
  "ManufacturersModelName": "TrioTim",
  "Modality": "MR",
  "MultibandAccelerationFactor": 8,
  "PartialFourier": 0.875,
  "PatientPosition": "HFS",
  "PercentPhaseFOV": 100,
  "PercentSampling": 100,
  "PhaseEncodingDirection": "j-",
  "PhaseEncodingSteps": 91,
  "PhaseResolution": 1,
  "PixelBandwidth": 1923,
  "ProcedureStepDescription": "Cole^Michael",
  "ProtocolName": "cmrr_mbep2d_bold_2mm_MB8_Task_8x",
  "PulseSequenceDetails": "%CustomerSeq%\\cmrr_mbep2d_bold",
  "ReceiveCoilName": "32Ch_Head",
  "ReconMatrixPE": 104,
  "RepetitionTime": 0.785,
  "SAR": 0.147519,
  "ScanOptions": "PFP\\FS",
  "ScanningSequence": "EP",
  "SequenceName": "epfid2d1_104",
  "SequenceVariant": "SK\\SS",
  "SeriesDescription": "cmrr_mbep2d_bold_2mm_MB8_Task_8x",
  "SeriesNumber": 19,
  "ShimSetting": [2135, -321, -7297, 320, 201, -240, -156, 27],
  "SliceThickness": 2,
  "SliceTiming": [0, 0.4375, 0.0875, 0.525, 0.175, 0.6125, 0.2625, 0.7, 0.35, 0, 0.4375, 0.0875, 0.525, 0.175, 0.6125, 0.2625, 0.7, 0.35, 0, 0.4375, 0.0875, 0.525, 0.175, 0.6125, 0.2625, 0.7, 0.35, 0, 0.4375, 0.0875, 0.525, 0.175, 0.6125, 0.2625, 0.7, 0.35, 0, 0.4375, 0.0875, 0.525, 0.175, 0.6125, 0.2625, 0.7, 0.35, 0, 0.4375, 0.0875, 0.525, 0.175, 0.6125, 0.2625, 0.7, 0.35, 0, 0.4375, 0.0875, 0.525, 0.175, 0.6125, 0.2625, 0.7, 0.35, 0, 0.4375, 0.0875, 0.525, 0.175, 0.6125, 0.2625, 0.7, 0.35],
  "SoftwareVersions": "syngo MR B19",
  "SpacingBetweenSlices": 2,
  "StationName": "MRC35450",
  "TaskName": "cpro",
  "TotalReadoutTime": 0.0710717,
  "TxRefAmp": 344.952,
  "dcmmeta_affine": [
    [-2.0, 0.0, 0.0, 102.6440658569336],
    [0.0, 1.9042588472366333, -0.6113905906677246, -64.6802749633789],
    [0.0, 0.6113905906677246, 1.9042587280273438, -121.13286590576172],
    [0.0, 0.0, 0.0, 1.0]
],
  "dcmmeta_reorient_transform": [
    [0.0, -1.0, 0.0, 103.0],
    [1.0, 0.0, 0.0, 0.0],
    [0.0, 0.0, 1.0, 0.0],
    [0.0, 0.0, 0.0, 1.0]
],
  "dcmmeta_shape": [104, 104, 72, 581],
  "dcmmeta_slice_dim": 2,
  "dcmmeta_version": 0.6,
  "global": {
    "const": {
      "AcquisitionMatrix": [104, 0, 0, 104],
      "AngioFlag": "N",
      "BitsAllocated": 16,
      "BitsStored": 12,
      "Columns": 936,
      "EchoNumbers": 1,
      "EchoTime": 34.8,
      "EchoTrainLength": 1,
      "FlipAngle": 55.0,
      "HighBit": 11,
      "ImageOrientationPatient": [1.0, 0.0, 0.0, 0.0, 0.95212939539477, -0.3056952967011],
      "ImagePositionPatient": [-934.64406776428, -923.63003425552, 196.1788552684],
      "ImageType": [
        "ORIGINAL",
        "PRIMARY",
        "M",
        "MB",
        "ND",
        "MOSAIC"
],
      "ImagedNucleus": "1H",
      "ImagingFrequency": 123.234707,
      "InPlanePhaseEncodingDirection": "COL",
      "MRAcquisitionType": "2D",
      "MagneticFieldStrength": 3.0,
      "Manufacturer": "SIEMENS",
      "ManufacturerModelName": "TrioTim",
      "Modality": "MR",
      "NumberOfAverages": 1.0,
      "NumberOfPhaseEncodingSteps": 91,
      "PercentPhaseFieldOfView": 100.0,
      "PercentSampling": 100.0,
      "PerformedProcedureStepStartTime": "150120.031000",
      "PhotometricInterpretation": "MONOCHROME2",
      "PixelBandwidth": 1923.0,
      "PixelRepresentation": 0,
      "PixelSpacing": [2.0, 2.0],
      "ProtocolName": "cmrr_mbep2d_bold_2mm_MB8_Task_8x",
      "RepetitionTime": 785.0,
      "Rows": 936,
      "SAR": 0.14751919503172,
      "SamplesPerPixel": 1,
      "ScanOptions": [
        "PFP",
        "FS"
],
      "ScanningSequence": "EP",
      "SequenceName": "epfid2d1_104",
      "SequenceVariant": [
        "SK",
        "SS"
],
      "SeriesDescription": "cmrr_mbep2d_bold_2mm_MB8_Task_8x",
      "SeriesNumber": 19,
      "SeriesTime": "174618.812000",
      "SliceLocation": -95.561702507867,
      "SliceThickness": 2.0,
      "SmallestImagePixelValue": 0,
      "SoftwareVersions": "syngo MR B19",
      "SpacingBetweenSlices": 1.9999999926155,
      "SpecificCharacterSet": "ISO_IR 100",
      "StudyID": "1",
      "StudyTime": "150119.984000",
      "TransmitCoilName": "Body",
      "VariableFlipAngleFlag": "N",
      "WindowCenterWidthExplanation": "Algo1",
      "dBdt": 0.0},
    "slices": {}
  },
  "time": {
    "samples": {
      "AcquisitionNumber": [1, 2, 3, 4, 5, 6, 7, 8, 9, 10, 11, 12, 13, 14, 15, 16, 17, 18, 19, 20, 21, 22, 23, 24, 25, 26, 27, 28, 29, 30, 31, 32, 33, 34, 35, 36, 37, 38, 39, 40, 41, 42, 43, 44, 45, 46, 47, 48, 49, 50, 51, 52, 53, 54, 55, 56, 57, 58, 59, 60, 61, 62, 63, 64, 65, 66, 67, 68, 69, 70, 71, 72, 73, 74, 75, 76, 77, 78, 79, 80, 81, 82, 83, 84, 85, 86, 87, 88, 89, 90, 91, 92, 93, 94, 95, 96, 97, 98, 99, 100, 101, 102, 103, 104, 105, 106, 107, 108, 109, 110, 111, 112, 113, 114, 115, 116, 117, 118, 119, 120, 121, 122, 123, 124, 125, 126, 127, 128, 129, 130, 131, 132, 133, 134, 135, 136, 137, 138, 139, 140, 141, 142, 143, 144, 145, 146, 147, 148, 149, 150, 151, 152, 153, 154, 155, 156, 157, 158, 159, 160, 161, 162, 163, 164, 165, 166, 167, 168, 169, 170, 171, 172, 173, 174, 175, 176, 177, 178, 179, 180, 181, 182, 183, 184, 185, 186, 187, 188, 189, 190, 191, 192, 193, 194, 195, 196, 197, 198, 199, 200, 201, 202, 203, 204, 205, 206, 207, 208, 209, 210, 211, 212, 213, 214, 215, 216, 217, 218, 219, 220, 221, 222, 223, 224, 225, 226, 227, 228, 229, 230, 231, 232, 233, 234, 235, 236, 237, 238, 239, 240, 241, 242, 243, 244, 245, 246, 247, 248, 249, 250, 251, 252, 253, 254, 255, 256, 257, 258, 259, 260, 261, 262, 263, 264, 265, 266, 267, 268, 269, 270, 271, 272, 273, 274, 275, 276, 277, 278, 279, 280, 281, 282, 283, 284, 285, 286, 287, 288, 289, 290, 291, 292, 293, 294, 295, 296, 297, 298, 299, 300, 301, 302, 303, 304, 305, 306, 307, 308, 309, 310, 311, 312, 313, 314, 315, 316, 317, 318, 319, 320, 321, 322, 323, 324, 325, 326, 327, 328, 329, 330, 331, 332, 333, 334, 335, 336, 337, 338, 339, 340, 341, 342, 343, 344, 345, 346, 347, 348, 349, 350, 351, 352, 353, 354, 355, 356, 357, 358, 359, 360, 361, 362, 363, 364, 365, 366, 367, 368, 369, 370, 371, 372, 373, 374, 375, 376, 377, 378, 379, 380, 381, 382, 383, 384, 385, 386, 387, 388, 389, 390, 391, 392, 393, 394, 395, 396, 397, 398, 399, 400, 401, 402, 403, 404, 405, 406, 407, 408, 409, 410, 411, 412, 413, 414, 415, 416, 417, 418, 419, 420, 421, 422, 423, 424, 425, 426, 427, 428, 429, 430, 431, 432, 433, 434, 435, 436, 437, 438, 439, 440, 441, 442, 443, 444, 445, 446, 447, 448, 449, 450, 451, 452, 453, 454, 455, 456, 457, 458, 459, 460, 461, 462, 463, 464, 465, 466, 467, 468, 469, 470, 471, 472, 473, 474, 475, 476, 477, 478, 479, 480, 481, 482, 483, 484, 485, 486, 487, 488, 489, 490, 491, 492, 493, 494, 495, 496, 497, 498, 499, 500, 501, 502, 503, 504, 505, 506, 507, 508, 509, 510, 511, 512, 513, 514, 515, 516, 517, 518, 519, 520, 521, 522, 523, 524, 525, 526, 527, 528, 529, 530, 531, 532, 533, 534, 535, 536, 537, 538, 539, 540, 541, 542, 543, 544, 545, 546, 547, 548, 549, 550, 551, 552, 553, 554, 555, 556, 557, 558, 559, 560, 561, 562, 563, 564, 565, 566, 567, 568, 569, 570, 571, 572, 573, 574, 575, 576, 577, 578, 579, 580, 581],
      "AcquisitionTime": ["163727.710000", "163728.497500", "163729.285000", "163730.075000", "163730.862500", "163731.650000", "163732.437500", "163733.227500", "163734.015000", "163734.802500", "163735.590000", "163736.380000", "163737.167500", "163737.955000", "163738.745000", "163739.532500", "163740.320000", "163741.107500", "163741.897500", "163742.685000", "163743.472500", "163744.260000", "163745.050000", "163745.837500", "163746.625000", "163747.412500", "163748.202500", "163748.990000", "163749.777500", "163750.565000", "163751.355000", "163752.142500", "163752.930000", "163753.717500", "163754.507500", "163755.295000", "163756.082500", "163756.872500", "163757.660000", "163758.447500", "163759.235000", "163800.025000", "163800.812500", "163801.600000", "163802.387500", "163803.177500", "163803.965000", "163804.752500", "163805.540000", "163806.330000", "163807.117500", "163807.905000", "163808.692500", "163809.482500", "163810.270000", "163811.057500", "163811.845000", "163812.635000", "163813.422500", "163814.210000", "163815.000000", "163815.787500", "163816.575000", "163817.362500", "163818.152500", "163818.940000", "163819.727500", "163820.515000", "163821.305000", "163822.092500", "163822.880000", "163823.667500", "163824.457500", "163825.245000", "163826.032500", "163826.820000", "163827.610000", "163828.397500", "163829.185000", "163829.972500", "163830.762500", "163831.550000", "163832.337500", "163833.127500", "163833.915000", "163834.702500", "163835.490000", "163836.280000", "163837.067500", "163837.855000", "163838.642500", "163839.432500", "163840.220000", "163841.007500", "163841.795000", "163842.585000", "163843.372500", "163844.160000", "163844.947500", "163845.737500", "163846.525000", "163847.312500", "163848.100000", "163848.890000", "163849.677500", "163850.465000", "163851.255000", "163852.042500", "163852.830000", "163853.617500", "163854.407500", "163855.195000", "163855.982500", "163856.770000", "163857.560000", "163858.347500", "163859.135000", "163859.922500", "163900.712500", "163901.500000", "163902.287500", "163903.075000", "163903.865000", "163904.652500", "163905.440000", "163906.227500", "163907.017500", "163907.805000", "163908.592500", "163909.382500", "163910.170000", "163910.957500", "163911.745000", "163912.535000", "163913.322500", "163914.110000", "163914.897500", "163915.687500", "163916.475000", "163917.262500", "163918.050000", "163918.840000", "163919.627500", "163920.415000", "163921.202500", "163921.992500", "163922.780000", "163923.567500", "163924.355000", "163925.145000", "163925.932500", "163926.720000", "163927.510000", "163928.297500", "163929.085000", "163929.872500", "163930.662500", "163931.450000", "163932.237500", "163933.025000", "163933.815000", "163934.602500", "163935.390000", "163936.177500", "163936.967500", "163937.755000", "163938.542500", "163939.330000", "163940.120000", "163940.907500", "163941.695000", "163942.482500", "163943.272500", "163944.060000", "163944.847500", "163945.637500", "163946.425000", "163947.212500", "163948.000000", "163948.790000", "163949.577500", "163950.365000", "163951.152500", "163951.942500", "163952.730000", "163953.517500", "163954.305000", "163955.095000", "163955.882500", "163956.670000", "163957.457500", "163958.247500", "163959.035000", "163959.822500", "164000.612500", "164001.400000", "164002.187500", "164002.975000", "164003.765000", "164004.552500", "164005.340000", "164006.127500", "164006.917500", "164007.705000", "164008.492500", "164009.280000", "164010.070000", "164010.857500", "164011.645000", "164012.432500", "164013.222500", "164014.010000", "164014.797500", "164015.585000", "164016.375000", "164017.162500", "164017.950000", "164018.740000", "164019.527500", "164020.315000", "164021.102500", "164021.892500", "164022.680000", "164023.467500", "164024.255000", "164025.045000", "164025.832500", "164026.620000", "164027.407500", "164028.197500", "164028.985000", "164029.772500", "164030.560000", "164031.350000", "164032.137500", "164032.925000", "164033.712500", "164034.502500", "164035.290000", "164036.077500", "164036.867500", "164037.655000", "164038.442500", "164039.230000", "164040.020000", "164040.807500", "164041.595000", "164042.382500", "164043.172500", "164043.960000", "164044.747500", "164045.535000", "164046.325000", "164047.112500", "164047.900000", "164048.687500", "164049.477500", "164050.265000", "164051.052500", "164051.840000", "164052.630000", "164053.417500", "164054.205000", "164054.995000", "164055.782500", "164056.570000", "164057.357500", "164058.147500", "164058.935000", "164059.722500", "164100.510000", "164101.300000", "164102.087500", "164102.875000", "164103.662500", "164104.452500", "164105.240000", "164106.027500", "164106.815000", "164107.605000", "164108.392500", "164109.180000", "164109.967500", "164110.757500", "164111.545000", "164112.332500", "164113.122500", "164113.910000", "164114.697500", "164115.485000", "164116.275000", "164117.062500", "164117.850000", "164118.637500", "164119.427500", "164120.215000", "164121.002500", "164121.790000", "164122.580000", "164123.367500", "164124.155000", "164124.942500", "164125.732500", "164126.520000", "164127.307500", "164128.095000", "164128.885000", "164129.672500", "164130.460000", "164131.250000", "164132.037500", "164132.825000", "164133.612500", "164134.402500", "164135.190000", "164135.977500", "164136.765000", "164137.555000", "164138.342500", "164139.130000", "164139.917500", "164140.707500", "164141.495000", "164142.282500", "164143.070000", "164143.860000", "164144.647500", "164145.435000", "164146.222500", "164147.012500", "164147.800000", "164148.587500", "164149.377500", "164150.165000", "164150.952500", "164151.740000", "164152.530000", "164153.317500", "164154.105000", "164154.892500", "164155.682500", "164156.470000", "164157.257500", "164158.045000", "164158.835000", "164159.622500", "164200.410000", "164201.197500", "164201.987500", "164202.775000", "164203.562500", "164204.350000", "164205.140000", "164205.927500", "164206.715000", "164207.505000", "164208.292500", "164209.080000", "164209.867500", "164210.657500", "164211.445000", "164212.232500", "164213.020000", "164213.810000", "164214.597500", "164215.385000", "164216.172500", "164216.962500", "164217.750000", "164218.537500", "164219.325000", "164220.115000", "164220.902500", "164221.690000", "164222.477500", "164223.267500", "164224.055000", "164224.842500", "164225.632500", "164226.420000", "164227.207500", "164227.995000", "164228.785000", "164229.572500", "164230.360000", "164231.147500", "164231.937500", "164232.725000", "164233.512500", "164234.300000", "164235.090000", "164235.877500", "164236.665000", "164237.452500", "164238.242500", "164239.030000", "164239.817500", "164240.605000", "164241.395000", "164242.182500", "164242.970000", "164243.760000", "164244.547500", "164245.335000", "164246.122500", "164246.912500", "164247.700000", "164248.487500", "164249.275000", "164250.065000", "164250.852500", "164251.640000", "164252.427500", "164253.217500", "164254.005000", "164254.792500", "164255.580000", "164256.370000", "164257.157500", "164257.945000", "164258.732500", "164259.522500", "164300.310000", "164301.097500", "164301.887500", "164302.675000", "164303.462500", "164304.250000", "164305.040000", "164305.827500", "164306.615000", "164307.402500", "164308.192500", "164308.980000", "164309.767500", "164310.555000", "164311.345000", "164312.132500", "164312.920000", "164313.707500", "164314.497500", "164315.285000", "164316.072500", "164316.862500", "164317.650000", "164318.437500", "164319.225000", "164320.015000", "164320.802500", "164321.590000", "164322.377500", "164323.167500", "164323.955000", "164324.742500", "164325.530000", "164326.320000", "164327.107500", "164327.895000", "164328.682500", "164329.472500", "164330.260000", "164331.047500", "164331.835000", "164332.625000", "164333.412500", "164334.200000", "164334.990000", "164335.777500", "164336.565000", "164337.352500", "164338.142500", "164338.930000", "164339.717500", "164340.505000", "164341.295000", "164342.082500", "164342.870000", "164343.657500", "164344.447500", "164345.235000", "164346.022500", "164346.810000", "164347.600000", "164348.387500", "164349.175000", "164349.962500", "164350.752500", "164351.540000", "164352.327500", "164353.117500", "164353.905000", "164354.692500", "164355.480000", "164356.270000", "164357.057500", "164357.845000", "164358.632500", "164359.422500", "164400.210000", "164400.997500", "164401.785000", "164402.575000", "164403.362500", "164404.150000", "164404.937500", "164405.727500", "164406.515000", "164407.302500", "164408.090000", "164408.880000", "164409.667500", "164410.455000", "164411.245000", "164412.032500", "164412.820000", "164413.607500", "164414.397500", "164415.185000", "164415.972500", "164416.760000", "164417.550000", "164418.337500", "164419.125000", "164419.912500", "164420.702500", "164421.490000", "164422.277500", "164423.065000", "164423.855000", "164424.642500", "164425.430000", "164426.217500", "164427.007500", "164427.795000", "164428.582500", "164429.372500", "164430.160000", "164430.947500", "164431.735000", "164432.525000", "164433.312500", "164434.100000", "164434.887500", "164435.677500", "164436.465000", "164437.252500", "164438.040000", "164438.830000", "164439.617500", "164440.405000", "164441.192500", "164441.982500", "164442.770000", "164443.557500", "164444.345000", "164445.135000", "164445.922500", "164446.710000", "164447.500000", "164448.287500", "164449.075000", "164449.862500", "164450.652500", "164451.440000", "164452.227500", "164453.015000", "164453.805000", "164454.592500", "164455.380000", "164456.167500", "164456.957500", "164457.745000", "164458.532500", "164459.320000", "164500.110000", "164500.897500", "164501.685000", "164502.472500", "164503.262500", "164504.050000", "164504.837500"],
      "ContentTime": ["174618.812000", "174618.812000", "174618.812000", "174618.812000", "174618.812000", "174618.812000", "174618.828000", "174618.828000", "174718.781000", "174718.781000", "174718.781000", "174718.781000", "174718.781000", "174718.781000", "174718.796000", "174718.796000", "174718.796000", "174718.796000", "174718.796000", "174718.796000", "174718.796000", "174718.812000", "174718.812000", "174718.812000", "174718.812000", "174718.812000", "174718.812000", "174718.812000", "174718.828000", "174718.828000", "174718.828000", "174718.828000", "174718.828000", "174718.828000", "174718.828000", "174718.843000", "174738.781000", "174738.781000", "174738.781000", "174738.781000", "174738.781000", "174738.781000", "174738.796000", "174738.796000", "174738.796000", "174838.781000", "174838.781000", "174838.781000", "174838.781000", "174838.781000", "174838.781000", "174838.796000", "174838.796000", "174838.796000", "174838.796000", "174838.796000", "174838.796000", "174838.796000", "174838.812000", "174838.812000", "174838.812000", "174838.812000", "174838.812000", "174838.812000", "174838.828000", "174838.828000", "174838.828000", "174838.828000", "174838.828000", "174838.828000", "174838.828000", "174838.843000", "174838.843000", "174938.781000", "174938.781000", "174938.781000", "174938.781000", "174938.781000", "174938.781000", "174938.796000", "174938.796000", "174938.796000", "174938.796000", "174938.796000", "174938.796000", "174938.796000", "174938.812000", "174938.812000", "174938.812000", "174938.812000", "174938.812000", "174938.828000", "174938.828000", "174938.828000", "174938.828000", "174938.828000", "174938.828000", "174938.843000", "174938.843000", "174938.843000", "174938.843000", "175038.781000", "175038.781000", "175038.781000", "175038.781000", "175038.781000", "175038.781000", "175038.796000", "175038.796000", "175038.796000", "175038.796000", "175038.812000", "175038.812000", "175038.812000", "175038.812000", "175038.812000", "175038.812000", "175038.812000", "175038.828000", "175038.828000", "175038.828000", "175038.828000", "175038.828000", "175038.828000", "175038.828000", "175038.843000", "175038.843000", "175038.843000", "175038.843000", "175038.843000", "175138.781000", "175138.781000", "175138.781000", "175138.781000", "175138.781000", "175138.781000", "175138.796000", "175138.796000", "175138.796000", "175138.796000", "175138.796000", "175138.796000", "175138.812000", "175138.812000", "175138.812000", "175138.812000", "175138.812000", "175138.812000", "175138.812000", "175138.828000", "175138.828000", "175138.828000", "175138.828000", "175138.828000", "175138.828000", "175138.828000", "175138.843000", "175138.843000", "175238.781000", "175238.781000", "175238.781000", "175238.781000", "175238.781000", "175238.781000", "175238.796000", "175238.796000", "175238.796000", "175238.796000", "175238.796000", "175238.796000", "175238.812000", "175238.812000", "175238.812000", "175238.812000", "175238.812000", "175238.812000", "175238.812000", "175238.828000", "175238.828000", "175238.828000", "175238.828000", "175238.828000", "175238.828000", "175238.828000", "175238.843000", "175238.843000", "175338.781000", "175338.781000", "175338.781000", "175338.781000", "175338.781000", "175338.781000", "175338.796000", "175338.796000", "175338.796000", "175338.796000", "175338.796000", "175338.796000", "175338.812000", "175338.812000", "175338.812000", "175338.812000", "175338.812000", "175338.812000", "175338.812000", "175338.828000", "175338.828000", "175338.828000", "175338.828000", "175338.828000", "175338.843000", "175338.843000", "175338.843000", "175338.843000", "175438.781000", "175438.781000", "175438.781000", "175438.781000", "175438.781000", "175438.781000", "175438.796000", "175438.796000", "175438.796000", "175438.796000", "175438.796000", "175438.796000", "175438.796000", "175438.812000", "175438.812000", "175438.812000", "175438.812000", "175438.812000", "175438.812000", "175438.828000", "175438.828000", "175438.828000", "175438.828000", "175438.828000", "175438.828000", "175438.828000", "175438.843000", "175438.843000", "175538.781000", "175538.781000", "175538.781000", "175538.781000", "175538.781000", "175538.781000", "175538.796000", "175538.796000", "175538.796000", "175538.796000", "175538.796000", "175538.796000", "175538.812000", "175538.812000", "175538.812000", "175538.812000", "175538.812000", "175538.812000", "175538.812000", "175538.828000", "175538.828000", "175538.828000", "175538.828000", "175538.828000", "175538.828000", "175538.828000", "175538.843000", "175538.843000", "175538.843000", "175638.781000", "175638.781000", "175638.781000", "175638.781000", "175638.796000", "175638.796000", "175638.796000", "175638.796000", "175638.796000", "175638.796000", "175638.796000", "175638.812000", "175638.812000", "175638.812000", "175638.812000", "175638.812000", "175638.812000", "175638.812000", "175638.828000", "175638.828000", "175638.828000", "175638.828000", "175638.828000", "175638.828000", "175638.828000", "175638.843000", "175638.843000", "175638.843000", "175718.781000", "175718.781000", "175718.781000", "175718.781000", "175718.781000", "175718.781000", "175718.796000", "175718.796000", "175718.796000", "175718.796000", "175718.796000", "175718.796000", "175718.796000", "175718.812000", "175718.812000", "175718.812000", "175718.812000", "175718.812000", "175718.812000", "175818.781000", "175818.781000", "175818.781000", "175818.781000", "175818.781000", "175818.781000", "175818.796000", "175818.796000", "175818.796000", "175818.796000", "175818.796000", "175818.796000", "175818.812000", "175818.812000", "175818.812000", "175818.812000", "175818.812000", "175818.812000", "175818.812000", "175818.828000", "175818.828000", "175818.828000", "175818.828000", "175818.828000", "175818.828000", "175818.828000", "175818.843000", "175818.843000", "175918.781000", "175918.781000", "175918.781000", "175918.781000", "175918.781000", "175918.781000", "175918.796000", "175918.796000", "175918.796000", "175918.796000", "175918.796000", "175918.796000", "175918.796000", "175918.812000", "175918.812000", "175918.812000", "175918.812000", "175918.812000", "175918.812000", "175918.828000", "175918.828000", "175918.828000", "175918.828000", "175918.828000", "175918.828000", "175918.828000", "175918.843000", "175918.843000", "180018.781000", "180018.781000", "180018.781000", "180018.781000", "180018.781000", "180018.781000", "180018.796000", "180018.796000", "180018.796000", "180018.796000", "180018.796000", "180018.796000", "180018.796000", "180018.812000", "180018.812000", "180018.812000", "180018.812000", "180018.812000", "180018.812000", "180018.828000", "180018.828000", "180018.828000", "180018.828000", "180018.828000", "180018.828000", "180018.828000", "180018.843000", "180018.843000", "180118.781000", "180118.781000", "180118.781000", "180118.781000", "180118.781000", "180118.781000", "180118.796000", "180118.796000", "180118.796000", "180118.796000", "180118.796000", "180118.796000", "180118.812000", "180118.812000", "180118.812000", "180118.812000", "180118.812000", "180118.812000", "180118.812000", "180118.828000", "180118.828000", "180118.828000", "180118.828000", "180118.828000", "180118.828000", "180118.828000", "180118.843000", "180118.843000", "180218.781000", "180218.781000", "180218.781000", "180218.781000", "180218.781000", "180218.781000", "180218.796000", "180218.796000", "180218.796000", "180218.796000", "180218.796000", "180218.796000", "180218.812000", "180218.812000", "180218.812000", "180218.812000", "180218.812000", "180218.812000", "180218.812000", "180218.828000", "180218.828000", "180218.828000", "180218.828000", "180218.828000", "180218.828000", "180218.828000", "180218.843000", "180218.843000", "180218.843000", "180318.781000", "180318.781000", "180318.781000", "180318.781000", "180318.796000", "180318.796000", "180318.796000", "180318.796000", "180318.796000", "180318.812000", "180318.812000", "180318.812000", "180318.812000", "180318.812000", "180318.812000", "180318.828000", "180318.828000", "180318.828000", "180318.828000", "180318.828000", "180318.828000", "180318.828000", "180318.843000", "180318.843000", "180318.843000", "180318.843000", "180318.843000", "180318.843000", "180418.781000", "180418.781000", "180418.781000", "180418.781000", "180418.781000", "180418.796000", "180418.796000", "180418.796000", "180418.796000", "180418.796000", "180418.796000", "180418.796000", "180418.812000", "180418.812000", "180418.812000", "180418.812000", "180418.812000", "180418.812000", "180418.812000", "180418.828000", "180418.828000", "180418.828000", "180418.828000", "180418.828000", "180418.828000", "180418.828000", "180418.843000", "180418.843000", "180518.781000", "180518.781000", "180518.781000", "180518.781000", "180518.781000", "180518.796000", "180518.796000", "180518.796000", "180518.796000", "180518.796000", "180518.796000", "180518.796000", "180518.812000", "180518.812000", "180518.812000", "180518.812000", "180518.812000", "180518.812000", "180518.812000", "180518.828000", "180518.828000", "180518.828000", "180518.828000", "180518.828000", "180518.828000", "180518.828000", "180518.843000", "180518.843000", "180618.781000", "180618.781000", "180618.781000", "180618.781000", "180618.781000", "180618.781000", "180618.796000", "180618.796000", "180618.796000", "180618.796000", "180618.796000", "180618.812000", "180618.812000", "180618.812000", "180618.812000", "180618.812000", "180618.812000", "180618.812000", "180618.828000", "180618.828000", "180618.828000", "180618.828000", "180618.828000", "180618.828000", "180618.843000", "180618.843000", "180618.843000", "180618.843000", "180638.062000", "180638.062000", "180638.062000", "180638.062000", "180638.062000", "180638.078000", "180638.078000", "180638.078000", "180638.078000", "180638.078000"],
