{
  "AcquisitionMatrixPE": 104,
  "AcquisitionNumber": 1,
  "AcquisitionTime": "11:55:18.757500",
  "BandwidthPerPixelPhaseEncode": 13.935,
  "BaseResolution": 104,
  "CoilString": "C:HEA;HEP",
  "ConversionSoftware": "dcm2niix",
  "ConversionSoftwareVersion": "v1.0.20210317",
  "DerivedVendorReportedEchoSpacing": 0.000690017,
  "DeviceSerialNumber": "35450",
  "DwellTime": 2.5e-06,
  "EchoTime": 0.0348,
  "EffectiveEchoSpacing": 0.000690017,
  "FlipAngle": 55,
  "ImageComments": "Unaliased MB8/PE3 (remote)",
  "ImageOrientationPatientDICOM": [0.999323, 0.00314123, 0.0366549, -2.58362e-08, 0.996348, -0.0853837],
  "ImageType": [
    "ORIGINAL",
    "PRIMARY",
    "M",
    "MB",
    "ND",
    "MOSAIC"
],
  "ImagingFrequency": 123.235,
  "InPlanePhaseEncodingDirectionDICOM": "COL",
  "InstitutionAddress": "Univeristy Ave. 197,Newark,North East,US,07102-1814",
  "InstitutionName": "RUBIC",
  "InstitutionalDepartmentName": "Department",
  "MRAcquisitionType": "2D",
  "MagneticFieldStrength": 3,
  "Manufacturer": "Siemens",
  "ManufacturersModelName": "TrioTim",
  "Modality": "MR",
  "MultibandAccelerationFactor": 8,
  "PartialFourier": 0.875,
  "PatientPosition": "HFS",
  "PercentPhaseFOV": 100,
  "PercentSampling": 100,
  "PhaseEncodingDirection": "j-",
  "PhaseEncodingSteps": 91,
  "PhaseResolution": 1,
  "PixelBandwidth": 1923,
  "ProcedureStepDescription": "Cole^Michael",
  "ProtocolName": "cmrr_mbep2d_bold_2mm_MB8_Task_8x",
  "PulseSequenceDetails": "%CustomerSeq%\\cmrr_mbep2d_bold",
  "ReceiveCoilName": "32Ch_Head",
  "ReconMatrixPE": 104,
  "RepetitionTime": 0.785,
  "SAR": 0.135972,
  "ScanOptions": "PFP\\FS",
  "ScanningSequence": "EP",
  "SequenceName": "epfid2d1_104",
  "SequenceVariant": "SK\\SS",
  "SeriesDescription": "cmrr_mbep2d_bold_2mm_MB8_Task_8x",
  "SeriesNumber": 21,
  "ShimSetting": [2139, -478, -7711, 36, 460, -226, -579, -54],
  "SliceThickness": 2,
  "SliceTiming": [0, 0.4375, 0.0875, 0.525, 0.175, 0.6125, 0.2625, 0.7, 0.35, 0, 0.4375, 0.0875, 0.525, 0.175, 0.6125, 0.2625, 0.7, 0.35, 0, 0.4375, 0.0875, 0.525, 0.175, 0.6125, 0.2625, 0.7, 0.35, 0, 0.4375, 0.0875, 0.525, 0.175, 0.6125, 0.2625, 0.7, 0.35, 0, 0.4375, 0.0875, 0.525, 0.175, 0.6125, 0.2625, 0.7, 0.35, 0, 0.4375, 0.0875, 0.525, 0.175, 0.6125, 0.2625, 0.7, 0.35, 0, 0.4375, 0.0875, 0.525, 0.175, 0.6125, 0.2625, 0.7, 0.35, 0, 0.4375, 0.0875, 0.525, 0.175, 0.6125, 0.2625, 0.7, 0.35],
  "SoftwareVersions": "syngo MR B19",
  "SpacingBetweenSlices": 2,
  "StationName": "MRC35450",
  "TaskName": "cpro",
  "TotalReadoutTime": 0.0710717,
  "TxRefAmp": 336.567,
  "dcmmeta_affine": [
    [-1.9986461400985718, -5.167246541759596e-08, 0.07357855886220932, 102.00381469726562],
    [-0.00628246134147048, 1.9926962852478027, -0.17065182328224182, -85.33047485351562],
    [0.07330985367298126, 0.1707674264907837, 1.991347312927246, -107.18875885009766],
    [0.0, 0.0, 0.0, 1.0]
],
  "dcmmeta_reorient_transform": [
    [0.0, -1.0, 0.0, 103.0],
    [1.0, 0.0, 0.0, 0.0],
    [0.0, 0.0, 1.0, 0.0],
    [0.0, 0.0, 0.0, 1.0]
],
  "dcmmeta_shape": [104, 104, 72, 581],
  "dcmmeta_slice_dim": 2,
  "dcmmeta_version": 0.6,
  "global": {
    "const": {
      "AcquisitionMatrix": [104, 0, 0, 104],
      "AngioFlag": "N",
      "BitsAllocated": 16,
      "BitsStored": 12,
      "Columns": 936,
      "EchoNumbers": 1,
      "EchoTime": 34.8,
      "EchoTrainLength": 1,
      "FlipAngle": 55.0,
      "HighBit": 11,
      "ImageOrientationPatient": [0.99932304540335, 0.003141230777, 0.03665492593061, -2.5836233e-08, 0.9963481428482, -0.0853837118129],
      "ImagePositionPatient": [-933.44056506482, -951.49240111767, -49.057367400535],
      "ImageType": [
        "ORIGINAL",
        "PRIMARY",
        "M",
        "MB",
        "ND",
        "MOSAIC"
],
      "ImagedNucleus": "1H",
      "ImagingFrequency": 123.234717,
      "InPlanePhaseEncodingDirection": "COL",
      "MRAcquisitionType": "2D",
      "MagneticFieldStrength": 3.0,
      "Manufacturer": "SIEMENS",
      "ManufacturerModelName": "TrioTim",
      "Modality": "MR",
      "NumberOfAverages": 1.0,
      "NumberOfPhaseEncodingSteps": 91,
      "PercentPhaseFieldOfView": 100.0,
      "PercentSampling": 100.0,
      "PerformedProcedureStepStartTime": "101411.546000",
      "PhotometricInterpretation": "MONOCHROME2",
      "PixelBandwidth": 1923.0,
      "PixelRepresentation": 0,
      "PixelSpacing": [2.0, 2.0],
      "ProtocolName": "cmrr_mbep2d_bold_2mm_MB8_Task_8x",
      "RepetitionTime": 785.0,
      "Rows": 936,
      "SAR": 0.13597159243223,
      "SamplesPerPixel": 1,
      "ScanOptions": [
        "PFP",
        "FS"
],
      "ScanningSequence": "EP",
      "SequenceName": "epfid2d1_104",
      "SequenceVariant": [
        "SK",
        "SS"
],
      "SeriesDescription": "cmrr_mbep2d_bold_2mm_MB8_Task_8x",
      "SeriesNumber": 21,
      "SeriesTime": "115536.687000",
      "SliceLocation": -95.691479717022,
      "SliceThickness": 2.0,
      "SmallestImagePixelValue": 0,
      "SoftwareVersions": "syngo MR B19",
      "SpacingBetweenSlices": 2.0000000317834,
      "SpecificCharacterSet": "ISO_IR 100",
      "StudyID": "1",
      "StudyTime": "101411.484000",
      "TransmitCoilName": "Body",
      "VariableFlipAngleFlag": "N",
      "WindowCenterWidthExplanation": "Algo1",
      "dBdt": 0.0},
    "slices": {}
  },
  "time": {
    "samples": {
      "AcquisitionNumber": [1, 2, 3, 4, 5, 6, 7, 8, 9, 10, 11, 12, 13, 14, 15, 16, 17, 18, 19, 20, 21, 22, 23, 24, 25, 26, 27, 28, 29, 30, 31, 32, 33, 34, 35, 36, 37, 38, 39, 40, 41, 42, 43, 44, 45, 46, 47, 48, 49, 50, 51, 52, 53, 54, 55, 56, 57, 58, 59, 60, 61, 62, 63, 64, 65, 66, 67, 68, 69, 70, 71, 72, 73, 74, 75, 76, 77, 78, 79, 80, 81, 82, 83, 84, 85, 86, 87, 88, 89, 90, 91, 92, 93, 94, 95, 96, 97, 98, 99, 100, 101, 102, 103, 104, 105, 106, 107, 108, 109, 110, 111, 112, 113, 114, 115, 116, 117, 118, 119, 120, 121, 122, 123, 124, 125, 126, 127, 128, 129, 130, 131, 132, 133, 134, 135, 136, 137, 138, 139, 140, 141, 142, 143, 144, 145, 146, 147, 148, 149, 150, 151, 152, 153, 154, 155, 156, 157, 158, 159, 160, 161, 162, 163, 164, 165, 166, 167, 168, 169, 170, 171, 172, 173, 174, 175, 176, 177, 178, 179, 180, 181, 182, 183, 184, 185, 186, 187, 188, 189, 190, 191, 192, 193, 194, 195, 196, 197, 198, 199, 200, 201, 202, 203, 204, 205, 206, 207, 208, 209, 210, 211, 212, 213, 214, 215, 216, 217, 218, 219, 220, 221, 222, 223, 224, 225, 226, 227, 228, 229, 230, 231, 232, 233, 234, 235, 236, 237, 238, 239, 240, 241, 242, 243, 244, 245, 246, 247, 248, 249, 250, 251, 252, 253, 254, 255, 256, 257, 258, 259, 260, 261, 262, 263, 264, 265, 266, 267, 268, 269, 270, 271, 272, 273, 274, 275, 276, 277, 278, 279, 280, 281, 282, 283, 284, 285, 286, 287, 288, 289, 290, 291, 292, 293, 294, 295, 296, 297, 298, 299, 300, 301, 302, 303, 304, 305, 306, 307, 308, 309, 310, 311, 312, 313, 314, 315, 316, 317, 318, 319, 320, 321, 322, 323, 324, 325, 326, 327, 328, 329, 330, 331, 332, 333, 334, 335, 336, 337, 338, 339, 340, 341, 342, 343, 344, 345, 346, 347, 348, 349, 350, 351, 352, 353, 354, 355, 356, 357, 358, 359, 360, 361, 362, 363, 364, 365, 366, 367, 368, 369, 370, 371, 372, 373, 374, 375, 376, 377, 378, 379, 380, 381, 382, 383, 384, 385, 386, 387, 388, 389, 390, 391, 392, 393, 394, 395, 396, 397, 398, 399, 400, 401, 402, 403, 404, 405, 406, 407, 408, 409, 410, 411, 412, 413, 414, 415, 416, 417, 418, 419, 420, 421, 422, 423, 424, 425, 426, 427, 428, 429, 430, 431, 432, 433, 434, 435, 436, 437, 438, 439, 440, 441, 442, 443, 444, 445, 446, 447, 448, 449, 450, 451, 452, 453, 454, 455, 456, 457, 458, 459, 460, 461, 462, 463, 464, 465, 466, 467, 468, 469, 470, 471, 472, 473, 474, 475, 476, 477, 478, 479, 480, 481, 482, 483, 484, 485, 486, 487, 488, 489, 490, 491, 492, 493, 494, 495, 496, 497, 498, 499, 500, 501, 502, 503, 504, 505, 506, 507, 508, 509, 510, 511, 512, 513, 514, 515, 516, 517, 518, 519, 520, 521, 522, 523, 524, 525, 526, 527, 528, 529, 530, 531, 532, 533, 534, 535, 536, 537, 538, 539, 540, 541, 542, 543, 544, 545, 546, 547, 548, 549, 550, 551, 552, 553, 554, 555, 556, 557, 558, 559, 560, 561, 562, 563, 564, 565, 566, 567, 568, 569, 570, 571, 572, 573, 574, 575, 576, 577, 578, 579, 580, 581],
      "AcquisitionTime": ["115518.757500", "115519.545000", "115520.335000", "115521.122500", "115521.910000", "115522.697500", "115523.487500", "115524.275000", "115525.062500", "115525.850000", "115526.640000", "115527.427500", "115528.215000", "115529.002500", "115529.792500", "115530.580000", "115531.367500", "115532.157500", "115532.945000", "115533.732500", "115534.520000", "115535.310000", "115536.097500", "115536.885000", "115537.672500", "115538.462500", "115539.250000", "115540.037500", "115540.825000", "115541.615000", "115542.402500", "115543.190000", "115543.977500", "115544.767500", "115545.555000", "115546.342500", "115547.132500", "115547.920000", "115548.707500", "115549.495000", "115550.285000", "115551.072500", "115551.860000", "115552.647500", "115553.437500", "115554.225000", "115555.012500", "115555.800000", "115556.590000", "115557.377500", "115558.165000", "115558.952500", "115559.742500", "115600.530000", "115601.317500", "115602.105000", "115602.895000", "115603.682500", "115604.470000", "115605.260000", "115606.047500", "115606.835000", "115607.622500", "115608.412500", "115609.200000", "115609.987500", "115610.775000", "115611.565000", "115612.352500", "115613.140000", "115613.927500", "115614.717500", "115615.505000", "115616.292500", "115617.080000", "115617.870000", "115618.657500", "115619.445000", "115620.232500", "115621.022500", "115621.810000", "115622.597500", "115623.387500", "115624.175000", "115624.962500", "115625.750000", "115626.540000", "115627.327500", "115628.115000", "115628.902500", "115629.692500", "115630.480000", "115631.267500", "115632.055000", "115632.845000", "115633.632500", "115634.420000", "115635.207500", "115635.997500", "115636.785000", "115637.572500", "115638.360000", "115639.150000", "115639.937500", "115640.725000", "115641.515000", "115642.302500", "115643.090000", "115643.877500", "115644.667500", "115645.455000", "115646.242500", "115647.030000", "115647.820000", "115648.607500", "115649.395000", "115650.182500", "115650.972500", "115651.760000", "115652.547500", "115653.335000", "115654.125000", "115654.912500", "115655.700000", "115656.487500", "115657.277500", "115658.065000", "115658.852500", "115659.642500", "115700.430000", "115701.217500", "115702.005000", "115702.795000", "115703.582500", "115704.370000", "115705.157500", "115705.947500", "115706.735000", "115707.522500", "115708.310000", "115709.100000", "115709.887500", "115710.675000", "115711.462500", "115712.252500", "115713.040000", "115713.827500", "115714.615000", "115715.405000", "115716.192500", "115716.980000", "115717.770000", "115718.557500", "115719.345000", "115720.132500", "115720.922500", "115721.710000", "115722.497500", "115723.285000", "115724.075000", "115724.862500", "115725.650000", "115726.437500", "115727.227500", "115728.015000", "115728.802500", "115729.590000", "115730.380000", "115731.167500", "115731.955000", "115732.742500", "115733.532500", "115734.320000", "115735.107500", "115735.897500", "115736.685000", "115737.472500", "115738.260000", "115739.050000", "115739.837500", "115740.625000", "115741.412500", "115742.202500", "115742.990000", "115743.777500", "115744.565000", "115745.355000", "115746.142500", "115746.930000", "115747.717500", "115748.507500", "115749.295000", "115750.082500", "115750.870000", "115751.660000", "115752.447500", "115753.235000", "115754.025000", "115754.812500", "115755.600000", "115756.387500", "115757.177500", "115757.965000", "115758.752500", "115759.540000", "115800.330000", "115801.117500", "115801.905000", "115802.692500", "115803.482500", "115804.270000", "115805.057500", "115805.845000", "115806.635000", "115807.422500", "115808.210000", "115808.997500", "115809.787500", "115810.575000", "115811.362500", "115812.152500", "115812.940000", "115813.727500", "115814.515000", "115815.305000", "115816.092500", "115816.880000", "115817.667500", "115818.457500", "115819.245000", "115820.032500", "115820.820000", "115821.610000", "115822.397500", "115823.185000", "115823.972500", "115824.762500", "115825.550000", "115826.337500", "115827.125000", "115827.915000", "115828.702500", "115829.490000", "115830.280000", "115831.067500", "115831.855000", "115832.642500", "115833.432500", "115834.220000", "115835.007500", "115835.795000", "115836.585000", "115837.372500", "115838.160000", "115838.947500", "115839.737500", "115840.525000", "115841.312500", "115842.100000", "115842.890000", "115843.677500", "115844.465000", "115845.252500", "115846.042500", "115846.830000", "115847.617500", "115848.407500", "115849.195000", "115849.982500", "115850.770000", "115851.560000", "115852.347500", "115853.135000", "115853.922500", "115854.712500", "115855.500000", "115856.287500", "115857.075000", "115857.865000", "115858.652500", "115859.440000", "115900.227500", "115901.017500", "115901.805000", "115902.592500", "115903.382500", "115904.170000", "115904.957500", "115905.745000", "115906.535000", "115907.322500", "115908.110000", "115908.897500", "115909.687500", "115910.475000", "115911.262500", "115912.050000", "115912.840000", "115913.627500", "115914.415000", "115915.202500", "115915.992500", "115916.780000", "115917.567500", "115918.355000", "115919.145000", "115919.932500", "115920.720000", "115921.510000", "115922.297500", "115923.085000", "115923.872500", "115924.662500", "115925.450000", "115926.237500", "115927.025000", "115927.815000", "115928.602500", "115929.390000", "115930.177500", "115930.967500", "115931.755000", "115932.542500", "115933.330000", "115934.120000", "115934.907500", "115935.695000", "115936.482500", "115937.272500", "115938.060000", "115938.847500", "115939.637500", "115940.425000", "115941.212500", "115942.000000", "115942.790000", "115943.577500", "115944.365000", "115945.152500", "115945.942500", "115946.730000", "115947.517500", "115948.305000", "115949.095000", "115949.882500", "115950.670000", "115951.457500", "115952.247500", "115953.035000", "115953.822500", "115954.610000", "115955.400000", "115956.187500", "115956.975000", "115957.765000", "115958.552500", "115959.340000", "120000.127500", "120000.917500", "120001.705000", "120002.492500", "120003.280000", "120004.070000", "120004.857500", "120005.645000", "120006.432500", "120007.222500", "120008.010000", "120008.797500", "120009.585000", "120010.375000", "120011.162500", "120011.950000", "120012.737500", "120013.527500", "120014.315000", "120015.102500", "120015.892500", "120016.680000", "120017.467500", "120018.255000", "120019.045000", "120019.832500", "120020.620000", "120021.407500", "120022.197500", "120022.985000", "120023.772500", "120024.560000", "120025.350000", "120026.137500", "120026.925000", "120027.712500", "120028.502500", "120029.290000", "120030.077500", "120030.865000", "120031.655000", "120032.442500", "120033.230000", "120034.020000", "120034.807500", "120035.595000", "120036.382500", "120037.172500", "120037.960000", "120038.747500", "120039.535000", "120040.325000", "120041.112500", "120041.900000", "120042.687500", "120043.477500", "120044.265000", "120045.052500", "120045.840000", "120046.630000", "120047.417500", "120048.205000", "120048.992500", "120049.782500", "120050.570000", "120051.357500", "120052.147500", "120052.935000", "120053.722500", "120054.510000", "120055.300000", "120056.087500", "120056.875000", "120057.662500", "120058.452500", "120059.240000", "120100.027500", "120100.815000", "120101.605000", "120102.392500", "120103.180000", "120103.967500", "120104.757500", "120105.545000", "120106.332500", "120107.120000", "120107.910000", "120108.697500", "120109.485000", "120110.275000", "120111.062500", "120111.850000", "120112.637500", "120113.427500", "120114.215000", "120115.002500", "120115.790000", "120116.580000", "120117.367500", "120118.155000", "120118.942500", "120119.732500", "120120.520000", "120121.307500", "120122.095000", "120122.885000", "120123.672500", "120124.460000", "120125.247500", "120126.037500", "120126.825000", "120127.612500", "120128.402500", "120129.190000", "120129.977500", "120130.765000", "120131.555000", "120132.342500", "120133.130000", "120133.917500", "120134.707500", "120135.495000", "120136.282500", "120137.070000", "120137.860000", "120138.647500", "120139.435000", "120140.222500", "120141.012500", "120141.800000", "120142.587500", "120143.375000", "120144.165000", "120144.952500", "120145.740000", "120146.530000", "120147.317500", "120148.105000", "120148.892500", "120149.682500", "120150.470000", "120151.257500", "120152.045000", "120152.835000", "120153.622500", "120154.410000", "120155.197500", "120155.987500", "120156.775000", "120157.562500", "120158.350000", "120159.140000", "120159.927500", "120200.715000", "120201.502500", "120202.292500", "120203.080000", "120203.867500", "120204.657500", "120205.445000", "120206.232500", "120207.020000", "120207.810000", "120208.597500", "120209.385000", "120210.172500", "120210.962500", "120211.750000", "120212.537500", "120213.325000", "120214.115000", "120214.902500", "120215.690000", "120216.477500", "120217.267500", "120218.055000", "120218.842500", "120219.632500", "120220.420000", "120221.207500", "120221.995000", "120222.785000", "120223.572500", "120224.360000", "120225.147500", "120225.937500", "120226.725000", "120227.512500", "120228.300000", "120229.090000", "120229.877500", "120230.665000", "120231.452500", "120232.242500", "120233.030000", "120233.817500", "120234.605000", "120235.395000", "120236.182500", "120236.970000", "120237.760000", "120238.547500", "120239.335000", "120240.122500", "120240.912500", "120241.700000", "120242.487500", "120243.275000", "120244.065000", "120244.852500", "120245.640000", "120246.427500", "120247.217500", "120248.005000", "120248.792500", "120249.580000", "120250.370000", "120251.157500", "120251.945000", "120252.732500", "120253.522500", "120254.310000", "120255.097500", "120255.887500"],
      "ContentTime": ["115536.687000", "115536.687000", "115536.687000", "115536.703000", "115536.703000", "115536.703000", "115536.703000", "115536.703000", "115536.703000", "115536.703000", "115536.703000", "115536.718000", "115536.718000", "115536.718000", "115536.718000", "115536.718000", "115536.718000", "115536.718000", "115536.718000", "115536.734000", "115556.656000", "115556.671000", "115556.671000", "115556.671000", "115556.671000", "115556.671000", "115556.671000", "115556.671000", "115556.687000", "115556.687000", "115556.687000", "115556.687000", "115556.687000", "115556.687000", "115556.687000", "115556.687000", "115556.703000", "115556.703000", "115556.703000", "115556.703000", "115556.703000", "115556.703000", "115556.703000", "115556.718000", "115556.718000", "115616.656000", "115616.671000", "115616.671000", "115616.671000", "115616.671000", "115616.671000", "115616.671000", "115616.671000", "115616.671000", "115616.687000", "115616.687000", "115616.687000", "115616.687000", "115616.687000", "115616.687000", "115616.703000", "115616.703000", "115616.703000", "115616.703000", "115616.703000", "115616.703000", "115616.703000", "115616.703000", "115616.718000", "115616.718000", "115616.718000", "115636.656000", "115636.671000", "115636.671000", "115636.671000", "115636.671000", "115636.671000", "115636.671000", "115636.671000", "115636.687000", "115636.687000", "115636.687000", "115636.687000", "115636.687000", "115636.687000", "115636.687000", "115636.687000", "115636.703000", "115636.703000", "115636.703000", "115636.703000", "115636.703000", "115636.703000", "115636.703000", "115636.718000", "115636.718000", "115656.656000", "115656.671000", "115656.671000", "115656.671000", "115656.671000", "115656.671000", "115656.671000", "115656.671000", "115656.687000", "115656.687000", "115656.687000", "115656.687000", "115656.687000", "115656.687000", "115656.687000", "115656.687000", "115656.703000", "115656.703000", "115656.703000", "115656.703000", "115656.703000", "115656.703000", "115656.703000", "115656.718000", "115656.718000", "115656.718000", "115716.656000", "115716.671000", "115716.671000", "115716.671000", "115716.671000", "115716.671000", "115716.671000", "115716.671000", "115716.671000", "115716.687000", "115716.687000", "115716.687000", "115716.687000", "115716.687000", "115716.687000", "115716.687000", "115716.703000", "115716.703000", "115716.703000", "115716.703000", "115716.703000", "115716.703000", "115716.703000", "115716.703000", "115716.718000", "115736.656000", "115736.671000", "115736.671000", "115736.671000", "115736.671000", "115736.687000", "115736.687000", "115736.687000", "115736.687000", "115736.687000", "115736.687000", "115736.687000", "115736.687000", "115736.703000", "115736.703000", "115736.703000", "115736.703000", "115736.703000", "115736.703000", "115736.718000", "115736.718000", "115736.718000", "115736.718000", "115736.718000", "115736.718000", "115736.734000", "115756.656000", "115756.671000", "115756.671000", "115756.671000", "115756.671000", "115756.671000", "115756.687000", "115756.687000", "115756.687000", "115756.687000", "115756.687000", "115756.687000", "115756.687000", "115756.703000", "115756.703000", "115756.703000", "115756.703000", "115756.703000", "115756.703000", "115756.703000", "115756.703000", "115756.718000", "115756.718000", "115756.718000", "115756.718000", "115816.656000", "115816.671000", "115816.671000", "115816.671000", "115816.671000", "115816.671000", "115816.671000", "115816.671000", "115816.687000", "115816.687000", "115816.687000", "115816.687000", "115816.687000", "115816.687000", "115816.687000", "115816.687000", "115816.703000", "115816.703000", "115816.703000", "115816.703000", "115816.703000", "115816.703000", "115816.703000", "115816.703000", "115816.718000", "115816.718000", "115836.656000", "115836.671000", "115836.671000", "115836.671000", "115836.671000", "115836.671000", "115836.671000", "115836.671000", "115836.687000", "115836.687000", "115836.687000", "115836.687000", "115836.687000", "115836.687000", "115836.687000", "115836.687000", "115836.703000", "115836.703000", "115836.703000", "115836.703000", "115836.703000", "115836.703000", "115836.703000", "115836.703000", "115836.718000", "115856.656000", "115856.671000", "115856.671000", "115856.671000", "115856.671000", "115856.671000", "115856.671000", "115856.671000", "115856.687000", "115856.687000", "115856.687000", "115856.687000", "115856.687000", "115856.687000", "115856.687000", "115856.687000", "115856.703000", "115856.703000", "115856.703000", "115856.703000", "115856.703000", "115856.703000", "115856.703000", "115856.703000", "115856.718000", "115856.718000", "115916.656000", "115916.671000", "115916.671000", "115916.671000", "115916.671000", "115916.671000", "115916.671000", "115916.687000", "115916.687000", "115916.687000", "115916.687000", "115916.687000", "115916.687000", "115916.687000", "115916.703000", "115916.703000", "115916.703000", "115916.703000", "115916.703000", "115916.703000", "115916.703000", "115916.703000", "115916.718000", "115916.718000", "115916.718000", "115936.656000", "115936.671000", "115936.671000", "115936.671000", "115936.671000", "115936.671000", "115936.671000", "115936.671000", "115936.687000", "115936.687000", "115936.687000", "115936.687000", "115936.687000", "115936.687000", "115936.687000", "115936.687000", "115936.703000", "115936.703000", "115936.703000", "115936.703000", "115936.703000", "115936.703000", "115936.703000", "115936.718000", "115936.718000", "115936.718000", "115956.656000", "115956.671000", "115956.671000", "115956.671000", "115956.671000", "115956.671000", "115956.671000", "115956.671000", "115956.687000", "115956.687000", "115956.687000", "115956.687000", "115956.687000", "115956.687000", "115956.687000", "115956.687000", "115956.703000", "115956.703000", "115956.703000", "115956.703000", "115956.703000", "115956.703000", "115956.703000", "115956.718000", "115956.718000", "120016.656000", "120016.671000", "120016.671000", "120016.671000", "120016.671000", "120016.671000", "120016.687000", "120016.687000", "120016.687000", "120016.687000", "120016.687000", "120016.687000", "120016.687000", "120016.687000", "120016.703000", "120016.703000", "120016.703000", "120016.703000", "120016.703000", "120016.703000", "120016.718000", "120016.718000", "120016.718000", "120016.718000", "120016.718000", "120016.718000", "120036.656000", "120036.671000", "120036.671000", "120036.671000", "120036.671000", "120036.671000", "120036.671000", "120036.687000", "120036.687000", "120036.687000", "120036.687000", "120036.687000", "120036.687000", "120036.687000", "120036.687000", "120036.703000", "120036.703000", "120036.703000", "120036.703000", "120036.703000", "120036.703000", "120036.703000", "120036.718000", "120036.718000", "120036.718000", "120056.656000", "120056.671000", "120056.671000", "120056.671000", "120056.671000", "120056.671000", "120056.671000", "120056.671000", "120056.687000", "120056.687000", "120056.687000", "120056.687000", "120056.687000", "120056.687000", "120056.687000", "120056.687000", "120056.703000", "120056.703000", "120056.703000", "120056.703000", "120056.703000", "120056.703000", "120056.718000", "120056.718000", "120056.718000", "120056.718000", "120116.656000", "120116.671000", "120116.671000", "120116.671000", "120116.671000", "120116.671000", "120116.671000", "120116.671000", "120116.687000", "120116.687000", "120116.687000", "120116.687000", "120116.687000", "120116.687000", "120116.687000", "120116.687000", "120116.703000", "120116.703000", "120116.703000", "120116.703000", "120116.703000", "120116.703000", "120116.703000", "120116.718000", "120116.718000", "120136.656000", "120136.671000", "120136.671000", "120136.671000", "120136.671000", "120136.671000", "120136.671000", "120136.671000", "120136.687000", "120136.687000", "120136.687000", "120136.687000", "120136.687000", "120136.687000", "120136.687000", "120136.687000", "120136.703000", "120136.703000", "120136.703000", "120136.703000", "120136.703000", "120136.718000", "120136.718000", "120136.718000", "120136.718000", "120136.718000", "120156.656000", "120156.671000", "120156.671000", "120156.671000", "120156.671000", "120156.671000", "120156.671000", "120156.671000", "120156.687000", "120156.687000", "120156.687000", "120156.687000", "120156.687000", "120156.687000", "120156.687000", "120156.687000", "120156.703000", "120156.703000", "120156.703000", "120156.703000", "120156.718000", "120156.718000", "120156.718000", "120156.718000", "120156.718000", "120216.656000", "120216.671000", "120216.671000", "120216.671000", "120216.671000", "120216.671000", "120216.671000", "120216.671000", "120216.687000", "120216.687000", "120216.687000", "120216.687000", "120216.687000", "120216.687000", "120216.687000", "120216.687000", "120216.703000", "120216.703000", "120216.703000", "120216.703000", "120216.703000", "120216.703000", "120216.703000", "120216.718000", "120216.718000", "120216.718000", "120236.656000", "120236.671000", "120236.671000", "120236.671000", "120236.671000", "120236.671000", "120236.671000", "120236.671000", "120236.687000", "120236.687000", "120236.687000", "120236.687000", "120236.687000", "120236.687000", "120236.687000", "120236.703000", "120236.703000", "120236.703000", "120236.703000", "120236.703000", "120236.703000", "120236.703000", "120236.718000", "120236.718000", "120236.718000", "120256.640000", "120256.656000", "120256.656000", "120256.656000", "120256.656000", "120256.656000", "120256.656000", "120256.656000", "120256.671000", "120256.671000", "120256.671000", "120256.671000", "120256.671000", "120256.687000", "120256.687000", "120256.687000", "120256.687000", "120256.687000", "120256.687000", "120256.703000", "120256.703000", "120256.703000", "120256.703000", "120256.703000", "120256.703000", "120256.718000"],
