{
  "AcquisitionMatrixPE": 104,
  "AcquisitionNumber": 1,
  "AcquisitionTime": "12:19:18.677500",
  "BandwidthPerPixelPhaseEncode": 13.935,
  "BaseResolution": 104,
  "CoilString": "C:HEA;HEP",
  "ConversionSoftware": "dcm2niix",
  "ConversionSoftwareVersion": "v1.0.20210317",
  "DerivedVendorReportedEchoSpacing": 0.000690017,
  "DeviceSerialNumber": "35450",
  "DwellTime": 2.5e-06,
  "EchoTime": 0.0348,
  "EffectiveEchoSpacing": 0.000690017,
  "FlipAngle": 55,
  "ImageComments": "Unaliased MB8/PE3 (remote)",
  "ImageOrientationPatientDICOM": [0.999323, 0.00314123, 0.0366549, -2.58362e-08, 0.996348, -0.0853837],
  "ImageType": [
    "ORIGINAL",
    "PRIMARY",
    "M",
    "MB",
    "ND",
    "MOSAIC"
],
  "ImagingFrequency": 123.235,
  "InPlanePhaseEncodingDirectionDICOM": "COL",
  "InstitutionAddress": "Univeristy Ave. 197,Newark,North East,US,07102-1814",
  "InstitutionName": "RUBIC",
  "InstitutionalDepartmentName": "Department",
  "MRAcquisitionType": "2D",
  "MagneticFieldStrength": 3,
  "Manufacturer": "Siemens",
  "ManufacturersModelName": "TrioTim",
  "Modality": "MR",
  "MultibandAccelerationFactor": 8,
  "PartialFourier": 0.875,
  "PatientPosition": "HFS",
  "PercentPhaseFOV": 100,
  "PercentSampling": 100,
  "PhaseEncodingDirection": "j-",
  "PhaseEncodingSteps": 91,
  "PhaseResolution": 1,
  "PixelBandwidth": 1923,
  "ProcedureStepDescription": "Cole^Michael",
  "ProtocolName": "cmrr_mbep2d_bold_2mm_MB8_Task_8x",
  "PulseSequenceDetails": "%CustomerSeq%\\cmrr_mbep2d_bold",
  "ReceiveCoilName": "32Ch_Head",
  "ReconMatrixPE": 104,
  "RepetitionTime": 0.785,
  "SAR": 0.135972,
  "ScanOptions": "PFP\\FS",
  "ScanningSequence": "EP",
  "SequenceName": "epfid2d1_104",
  "SequenceVariant": "SK\\SS",
  "SeriesDescription": "cmrr_mbep2d_bold_2mm_MB8_Task_8x",
  "SeriesNumber": 27,
  "ShimSetting": [2139, -478, -7711, 36, 460, -226, -579, -54],
  "SliceThickness": 2,
  "SliceTiming": [0, 0.4375, 0.0875, 0.525, 0.175, 0.6125, 0.2625, 0.7, 0.35, 0, 0.4375, 0.0875, 0.525, 0.175, 0.6125, 0.2625, 0.7, 0.35, 0, 0.4375, 0.0875, 0.525, 0.175, 0.6125, 0.2625, 0.7, 0.35, 0, 0.4375, 0.0875, 0.525, 0.175, 0.6125, 0.2625, 0.7, 0.35, 0, 0.4375, 0.0875, 0.525, 0.175, 0.6125, 0.2625, 0.7, 0.35, 0, 0.4375, 0.0875, 0.525, 0.175, 0.6125, 0.2625, 0.7, 0.35, 0, 0.4375, 0.0875, 0.525, 0.175, 0.6125, 0.2625, 0.7, 0.35, 0, 0.4375, 0.0875, 0.525, 0.175, 0.6125, 0.2625, 0.7, 0.35],
  "SoftwareVersions": "syngo MR B19",
  "SpacingBetweenSlices": 2,
  "StationName": "MRC35450",
  "TaskName": "cpro",
  "TotalReadoutTime": 0.0710717,
  "TxRefAmp": 336.567,
  "dcmmeta_affine": [
    [-1.9986461400985718, -5.167246541759596e-08, 0.07357855886220932, 102.00381469726562],
    [-0.00628246134147048, 1.9926962852478027, -0.17065182328224182, -85.33047485351562],
    [0.07330985367298126, 0.1707674264907837, 1.991347312927246, -107.18875885009766],
    [0.0, 0.0, 0.0, 1.0]
],
  "dcmmeta_reorient_transform": [
    [0.0, -1.0, 0.0, 103.0],
    [1.0, 0.0, 0.0, 0.0],
    [0.0, 0.0, 1.0, 0.0],
    [0.0, 0.0, 0.0, 1.0]
],
  "dcmmeta_shape": [104, 104, 72, 581],
  "dcmmeta_slice_dim": 2,
  "dcmmeta_version": 0.6,
  "global": {
    "const": {
      "AcquisitionMatrix": [104, 0, 0, 104],
      "AngioFlag": "N",
      "BitsAllocated": 16,
      "BitsStored": 12,
      "Columns": 936,
      "EchoNumbers": 1,
      "EchoTime": 34.8,
      "EchoTrainLength": 1,
      "FlipAngle": 55.0,
      "HighBit": 11,
      "ImageOrientationPatient": [0.99932304540335, 0.003141230777, 0.03665492593061, -2.5836233e-08, 0.9963481428482, -0.0853837118129],
      "ImagePositionPatient": [-933.44056506482, -951.49240111767, -49.057367400535],
      "ImageType": [
        "ORIGINAL",
        "PRIMARY",
        "M",
        "MB",
        "ND",
        "MOSAIC"
],
      "ImagedNucleus": "1H",
      "ImagingFrequency": 123.234717,
      "InPlanePhaseEncodingDirection": "COL",
      "MRAcquisitionType": "2D",
      "MagneticFieldStrength": 3.0,
      "Manufacturer": "SIEMENS",
      "ManufacturerModelName": "TrioTim",
      "Modality": "MR",
      "NumberOfAverages": 1.0,
      "NumberOfPhaseEncodingSteps": 91,
      "PercentPhaseFieldOfView": 100.0,
      "PercentSampling": 100.0,
      "PerformedProcedureStepStartTime": "101411.546000",
      "PhotometricInterpretation": "MONOCHROME2",
      "PixelBandwidth": 1923.0,
      "PixelRepresentation": 0,
      "PixelSpacing": [2.0, 2.0],
      "ProtocolName": "cmrr_mbep2d_bold_2mm_MB8_Task_8x",
      "RepetitionTime": 785.0,
      "Rows": 936,
      "SAR": 0.13597159243223,
      "SamplesPerPixel": 1,
      "ScanOptions": [
        "PFP",
        "FS"
],
      "ScanningSequence": "EP",
      "SequenceName": "epfid2d1_104",
      "SequenceVariant": [
        "SK",
        "SS"
],
      "SeriesDescription": "cmrr_mbep2d_bold_2mm_MB8_Task_8x",
      "SeriesNumber": 27,
      "SeriesTime": "121956.687000",
      "SliceLocation": -95.691479717022,
      "SliceThickness": 2.0,
      "SmallestImagePixelValue": 0,
      "SoftwareVersions": "syngo MR B19",
      "SpacingBetweenSlices": 2.0000000317834,
      "SpecificCharacterSet": "ISO_IR 100",
      "StudyID": "1",
      "StudyTime": "101411.484000",
      "TransmitCoilName": "Body",
      "VariableFlipAngleFlag": "N",
      "WindowCenterWidthExplanation": "Algo1",
      "dBdt": 0.0},
    "slices": {}
  },
  "time": {
    "samples": {
      "AcquisitionNumber": [1, 2, 3, 4, 5, 6, 7, 8, 9, 10, 11, 12, 13, 14, 15, 16, 17, 18, 19, 20, 21, 22, 23, 24, 25, 26, 27, 28, 29, 30, 31, 32, 33, 34, 35, 36, 37, 38, 39, 40, 41, 42, 43, 44, 45, 46, 47, 48, 49, 50, 51, 52, 53, 54, 55, 56, 57, 58, 59, 60, 61, 62, 63, 64, 65, 66, 67, 68, 69, 70, 71, 72, 73, 74, 75, 76, 77, 78, 79, 80, 81, 82, 83, 84, 85, 86, 87, 88, 89, 90, 91, 92, 93, 94, 95, 96, 97, 98, 99, 100, 101, 102, 103, 104, 105, 106, 107, 108, 109, 110, 111, 112, 113, 114, 115, 116, 117, 118, 119, 120, 121, 122, 123, 124, 125, 126, 127, 128, 129, 130, 131, 132, 133, 134, 135, 136, 137, 138, 139, 140, 141, 142, 143, 144, 145, 146, 147, 148, 149, 150, 151, 152, 153, 154, 155, 156, 157, 158, 159, 160, 161, 162, 163, 164, 165, 166, 167, 168, 169, 170, 171, 172, 173, 174, 175, 176, 177, 178, 179, 180, 181, 182, 183, 184, 185, 186, 187, 188, 189, 190, 191, 192, 193, 194, 195, 196, 197, 198, 199, 200, 201, 202, 203, 204, 205, 206, 207, 208, 209, 210, 211, 212, 213, 214, 215, 216, 217, 218, 219, 220, 221, 222, 223, 224, 225, 226, 227, 228, 229, 230, 231, 232, 233, 234, 235, 236, 237, 238, 239, 240, 241, 242, 243, 244, 245, 246, 247, 248, 249, 250, 251, 252, 253, 254, 255, 256, 257, 258, 259, 260, 261, 262, 263, 264, 265, 266, 267, 268, 269, 270, 271, 272, 273, 274, 275, 276, 277, 278, 279, 280, 281, 282, 283, 284, 285, 286, 287, 288, 289, 290, 291, 292, 293, 294, 295, 296, 297, 298, 299, 300, 301, 302, 303, 304, 305, 306, 307, 308, 309, 310, 311, 312, 313, 314, 315, 316, 317, 318, 319, 320, 321, 322, 323, 324, 325, 326, 327, 328, 329, 330, 331, 332, 333, 334, 335, 336, 337, 338, 339, 340, 341, 342, 343, 344, 345, 346, 347, 348, 349, 350, 351, 352, 353, 354, 355, 356, 357, 358, 359, 360, 361, 362, 363, 364, 365, 366, 367, 368, 369, 370, 371, 372, 373, 374, 375, 376, 377, 378, 379, 380, 381, 382, 383, 384, 385, 386, 387, 388, 389, 390, 391, 392, 393, 394, 395, 396, 397, 398, 399, 400, 401, 402, 403, 404, 405, 406, 407, 408, 409, 410, 411, 412, 413, 414, 415, 416, 417, 418, 419, 420, 421, 422, 423, 424, 425, 426, 427, 428, 429, 430, 431, 432, 433, 434, 435, 436, 437, 438, 439, 440, 441, 442, 443, 444, 445, 446, 447, 448, 449, 450, 451, 452, 453, 454, 455, 456, 457, 458, 459, 460, 461, 462, 463, 464, 465, 466, 467, 468, 469, 470, 471, 472, 473, 474, 475, 476, 477, 478, 479, 480, 481, 482, 483, 484, 485, 486, 487, 488, 489, 490, 491, 492, 493, 494, 495, 496, 497, 498, 499, 500, 501, 502, 503, 504, 505, 506, 507, 508, 509, 510, 511, 512, 513, 514, 515, 516, 517, 518, 519, 520, 521, 522, 523, 524, 525, 526, 527, 528, 529, 530, 531, 532, 533, 534, 535, 536, 537, 538, 539, 540, 541, 542, 543, 544, 545, 546, 547, 548, 549, 550, 551, 552, 553, 554, 555, 556, 557, 558, 559, 560, 561, 562, 563, 564, 565, 566, 567, 568, 569, 570, 571, 572, 573, 574, 575, 576, 577, 578, 579, 580, 581],
      "AcquisitionTime": ["121918.677500", "121919.465000", "121920.255000", "121921.042500", "121921.830000", "121922.617500", "121923.407500", "121924.195000", "121924.982500", "121925.770000", "121926.560000", "121927.347500", "121928.135000", "121928.922500", "121929.712500", "121930.500000", "121931.287500", "121932.077500", "121932.865000", "121933.652500", "121934.440000", "121935.230000", "121936.017500", "121936.805000", "121937.592500", "121938.382500", "121939.170000", "121939.957500", "121940.745000", "121941.535000", "121942.322500", "121943.110000", "121943.897500", "121944.687500", "121945.475000", "121946.262500", "121947.050000", "121947.840000", "121948.627500", "121949.415000", "121950.205000", "121950.992500", "121951.780000", "121952.567500", "121953.357500", "121954.145000", "121954.932500", "121955.720000", "121956.510000", "121957.297500", "121958.085000", "121958.872500", "121959.662500", "122000.450000", "122001.237500", "122002.025000", "122002.815000", "122003.602500", "122004.390000", "122005.177500", "122005.967500", "122006.755000", "122007.542500", "122008.332500", "122009.120000", "122009.907500", "122010.695000", "122011.485000", "122012.272500", "122013.060000", "122013.847500", "122014.637500", "122015.425000", "122016.212500", "122017.000000", "122017.790000", "122018.577500", "122019.365000", "122020.152500", "122020.942500", "122021.730000", "122022.517500", "122023.305000", "122024.095000", "122024.882500", "122025.670000", "122026.460000", "122027.247500", "122028.035000", "122028.822500", "122029.612500", "122030.400000", "122031.187500", "122031.975000", "122032.765000", "122033.552500", "122034.340000", "122035.127500", "122035.917500", "122036.705000", "122037.492500", "122038.280000", "122039.070000", "122039.857500", "122040.645000", "122041.432500", "122042.222500", "122043.010000", "122043.797500", "122044.587500", "122045.375000", "122046.162500", "122046.950000", "122047.740000", "122048.527500", "122049.315000", "122050.102500", "122050.892500", "122051.680000", "122052.467500", "122053.255000", "122054.045000", "122054.832500", "122055.620000", "122056.407500", "122057.197500", "122057.985000", "122058.772500", "122059.562500", "122100.350000", "122101.137500", "122101.925000", "122102.715000", "122103.502500", "122104.290000", "122105.077500", "122105.867500", "122106.655000", "122107.442500", "122108.230000", "122109.020000", "122109.807500", "122110.595000", "122111.382500", "122112.172500", "122112.960000", "122113.747500", "122114.535000", "122115.325000", "122116.112500", "122116.900000", "122117.690000", "122118.477500", "122119.265000", "122120.052500", "122120.842500", "122121.630000", "122122.417500", "122123.205000", "122123.995000", "122124.782500", "122125.570000", "122126.357500", "122127.147500", "122127.935000", "122128.722500", "122129.510000", "122130.300000", "122131.087500", "122131.875000", "122132.662500", "122133.452500", "122134.240000", "122135.027500", "122135.817500", "122136.605000", "122137.392500", "122138.180000", "122138.970000", "122139.757500", "122140.545000", "122141.332500", "122142.122500", "122142.910000", "122143.697500", "122144.485000", "122145.275000", "122146.062500", "122146.850000", "122147.637500", "122148.427500", "122149.215000", "122150.002500", "122150.790000", "122151.580000", "122152.367500", "122153.155000", "122153.945000", "122154.732500", "122155.520000", "122156.307500", "122157.097500", "122157.885000", "122158.672500", "122159.460000", "122200.250000", "122201.037500", "122201.825000", "122202.612500", "122203.402500", "122204.190000", "122204.977500", "122205.765000", "122206.555000", "122207.342500", "122208.130000", "122208.917500", "122209.707500", "122210.495000", "122211.282500", "122212.072500", "122212.860000", "122213.647500", "122214.435000", "122215.225000", "122216.012500", "122216.800000", "122217.587500", "122218.377500", "122219.165000", "122219.952500", "122220.740000", "122221.530000", "122222.317500", "122223.105000", "122223.892500", "122224.682500", "122225.470000", "122226.257500", "122227.045000", "122227.835000", "122228.622500", "122229.410000", "122230.200000", "122230.987500", "122231.775000", "122232.562500", "122233.352500", "122234.140000", "122234.927500", "122235.715000", "122236.505000", "122237.292500", "122238.080000", "122238.867500", "122239.657500", "122240.445000", "122241.232500", "122242.020000", "122242.810000", "122243.597500", "122244.385000", "122245.172500", "122245.962500", "122246.750000", "122247.537500", "122248.327500", "122249.115000", "122249.902500", "122250.690000", "122251.480000", "122252.267500", "122253.055000", "122253.842500", "122254.632500", "122255.420000", "122256.207500", "122256.995000", "122257.785000", "122258.572500", "122259.360000", "122300.147500", "122300.937500", "122301.725000", "122302.512500", "122303.300000", "122304.090000", "122304.877500", "122305.665000", "122306.455000", "122307.242500", "122308.030000", "122308.817500", "122309.607500", "122310.395000", "122311.182500", "122311.970000", "122312.760000", "122313.547500", "122314.335000", "122315.122500", "122315.912500", "122316.700000", "122317.487500", "122318.275000", "122319.065000", "122319.852500", "122320.640000", "122321.427500", "122322.217500", "122323.005000", "122323.792500", "122324.582500", "122325.370000", "122326.157500", "122326.945000", "122327.735000", "122328.522500", "122329.310000", "122330.097500", "122330.887500", "122331.675000", "122332.462500", "122333.250000", "122334.040000", "122334.827500", "122335.615000", "122336.402500", "122337.192500", "122337.980000", "122338.767500", "122339.555000", "122340.345000", "122341.132500", "122341.920000", "122342.710000", "122343.497500", "122344.285000", "122345.072500", "122345.862500", "122346.650000", "122347.437500", "122348.225000", "122349.015000", "122349.802500", "122350.590000", "122351.377500", "122352.167500", "122352.955000", "122353.742500", "122354.530000", "122355.320000", "122356.107500", "122356.895000", "122357.682500", "122358.472500", "122359.260000", "122400.047500", "122400.837500", "122401.625000", "122402.412500", "122403.200000", "122403.990000", "122404.777500", "122405.565000", "122406.352500", "122407.142500", "122407.930000", "122408.717500", "122409.505000", "122410.295000", "122411.082500", "122411.870000", "122412.657500", "122413.447500", "122414.235000", "122415.022500", "122415.812500", "122416.600000", "122417.387500", "122418.175000", "122418.965000", "122419.752500", "122420.540000", "122421.327500", "122422.117500", "122422.905000", "122423.692500", "122424.480000", "122425.270000", "122426.057500", "122426.845000", "122427.632500", "122428.422500", "122429.210000", "122429.997500", "122430.785000", "122431.575000", "122432.362500", "122433.150000", "122433.940000", "122434.727500", "122435.515000", "122436.302500", "122437.092500", "122437.880000", "122438.667500", "122439.455000", "122440.245000", "122441.032500", "122441.820000", "122442.607500", "122443.397500", "122444.185000", "122444.972500", "122445.760000", "122446.550000", "122447.337500", "122448.125000", "122448.912500", "122449.702500", "122450.490000", "122451.277500", "122452.067500", "122452.855000", "122453.642500", "122454.430000", "122455.220000", "122456.007500", "122456.795000", "122457.582500", "122458.372500", "122459.160000", "122459.947500", "122500.735000", "122501.525000", "122502.312500", "122503.100000", "122503.887500", "122504.677500", "122505.465000", "122506.252500", "122507.040000", "122507.830000", "122508.617500", "122509.405000", "122510.195000", "122510.982500", "122511.770000", "122512.557500", "122513.347500", "122514.135000", "122514.922500", "122515.710000", "122516.500000", "122517.287500", "122518.075000", "122518.862500", "122519.652500", "122520.440000", "122521.227500", "122522.015000", "122522.805000", "122523.592500", "122524.380000", "122525.167500", "122525.957500", "122526.745000", "122527.532500", "122528.322500", "122529.110000", "122529.897500", "122530.685000", "122531.475000", "122532.262500", "122533.050000", "122533.837500", "122534.627500", "122535.415000", "122536.202500", "122536.990000", "122537.780000", "122538.567500", "122539.355000", "122540.142500", "122540.932500", "122541.720000", "122542.507500", "122543.295000", "122544.085000", "122544.872500", "122545.660000", "122546.450000", "122547.237500", "122548.025000", "122548.812500", "122549.602500", "122550.390000", "122551.177500", "122551.965000", "122552.755000", "122553.542500", "122554.330000", "122555.117500", "122555.907500", "122556.695000", "122557.482500", "122558.270000", "122559.060000", "122559.847500", "122600.635000", "122601.422500", "122602.212500", "122603.000000", "122603.787500", "122604.577500", "122605.365000", "122606.152500", "122606.940000", "122607.730000", "122608.517500", "122609.305000", "122610.092500", "122610.882500", "122611.670000", "122612.457500", "122613.245000", "122614.035000", "122614.822500", "122615.610000", "122616.397500", "122617.187500", "122617.975000", "122618.762500", "122619.550000", "122620.340000", "122621.127500", "122621.915000", "122622.705000", "122623.492500", "122624.280000", "122625.067500", "122625.857500", "122626.645000", "122627.432500", "122628.220000", "122629.010000", "122629.797500", "122630.585000", "122631.372500", "122632.162500", "122632.950000", "122633.737500", "122634.525000", "122635.315000", "122636.102500", "122636.890000", "122637.677500", "122638.467500", "122639.255000", "122640.042500", "122640.832500", "122641.620000", "122642.407500", "122643.195000", "122643.985000", "122644.772500", "122645.560000", "122646.347500", "122647.137500", "122647.925000", "122648.712500", "122649.500000", "122650.290000", "122651.077500", "122651.865000", "122652.652500", "122653.442500", "122654.230000", "122655.017500", "122655.805000"],
      "ContentTime": ["121956.687000", "121956.687000", "121956.687000", "121956.687000", "121956.703000", "121956.703000", "121956.703000", "121956.703000", "121956.703000", "121956.703000", "121956.703000", "121956.703000", "121956.718000", "121956.718000", "121956.718000", "121956.718000", "121956.718000", "121956.718000", "121956.718000", "121956.734000", "121956.734000", "121956.734000", "121956.734000", "121956.734000", "121956.734000", "121956.734000", "121956.734000", "121956.750000", "121956.750000", "121956.750000", "121956.750000", "121956.750000", "121956.750000", "121956.750000", "121956.765000", "121956.765000", "121956.765000", "121956.765000", "121956.765000", "121956.765000", "121956.765000", "121956.765000", "121956.781000", "121956.781000", "122016.656000", "122016.671000", "122016.671000", "122016.671000", "122016.671000", "122016.671000", "122016.671000", "122016.671000", "122016.687000", "122016.687000", "122016.687000", "122016.687000", "122016.687000", "122016.687000", "122016.687000", "122016.703000", "122016.703000", "122016.703000", "122016.703000", "122016.703000", "122016.703000", "122016.703000", "122016.703000", "122016.718000", "122016.718000", "122016.718000", "122036.656000", "122036.671000", "122036.671000", "122036.671000", "122036.671000", "122036.671000", "122036.671000", "122036.671000", "122036.687000", "122036.687000", "122036.687000", "122036.687000", "122036.687000", "122036.687000", "122036.703000", "122036.703000", "122036.703000", "122036.703000", "122036.703000", "122036.703000", "122036.703000", "122036.718000", "122036.718000", "122036.718000", "122036.718000", "122056.656000", "122056.671000", "122056.671000", "122056.671000", "122056.671000", "122056.671000", "122056.671000", "122056.671000", "122056.687000", "122056.687000", "122056.687000", "122056.687000", "122056.687000", "122056.687000", "122056.703000", "122056.703000", "122056.703000", "122056.703000", "122056.703000", "122056.703000", "122056.703000", "122056.718000", "122056.718000", "122056.718000", "122056.718000", "122056.718000", "122116.656000", "122116.671000", "122116.671000", "122116.671000", "122116.671000", "122116.671000", "122116.671000", "122116.671000", "122116.687000", "122116.687000", "122116.687000", "122116.687000", "122116.687000", "122116.687000", "122116.687000", "122116.687000", "122116.703000", "122116.703000", "122116.703000", "122116.703000", "122116.703000", "122116.703000", "122116.703000", "122116.718000", "122116.718000", "122136.656000", "122136.671000", "122136.671000", "122136.671000", "122136.671000", "122136.671000", "122136.671000", "122136.671000", "122136.687000", "122136.687000", "122136.687000", "122136.687000", "122136.687000", "122136.687000", "122136.703000", "122136.703000", "122136.703000", "122136.703000", "122136.703000", "122136.703000", "122136.703000", "122136.703000", "122136.718000", "122136.718000", "122136.718000", "122136.718000", "122156.656000", "122156.671000", "122156.671000", "122156.671000", "122156.671000", "122156.671000", "122156.671000", "122156.671000", "122156.687000", "122156.687000", "122156.687000", "122156.687000", "122156.687000", "122156.687000", "122156.687000", "122156.703000", "122156.703000", "122156.703000", "122156.703000", "122156.703000", "122156.703000", "122156.703000", "122156.703000", "122156.718000", "122156.718000", "122216.656000", "122216.671000", "122216.671000", "122216.671000", "122216.671000", "122216.671000", "122216.671000", "122216.671000", "122216.687000", "122216.687000", "122216.687000", "122216.687000", "122216.687000", "122216.687000", "122216.687000", "122216.687000", "122216.703000", "122216.703000", "122216.703000", "122216.703000", "122216.703000", "122216.703000", "122216.703000", "122216.703000", "122216.718000", "122216.718000", "122236.656000", "122236.671000", "122236.671000", "122236.671000", "122236.671000", "122236.671000", "122236.671000", "122236.671000", "122236.687000", "122236.687000", "122236.687000", "122236.687000", "122236.687000", "122236.687000", "122236.687000", "122236.703000", "122236.703000", "122236.703000", "122236.703000", "122236.703000", "122236.703000", "122236.703000", "122236.703000", "122236.718000", "122236.718000", "122256.656000", "122256.671000", "122256.671000", "122256.671000", "122256.671000", "122256.671000", "122256.671000", "122256.671000", "122256.687000", "122256.687000", "122256.687000", "122256.687000", "122256.687000", "122256.687000", "122256.703000", "122256.703000", "122256.703000", "122256.703000", "122256.703000", "122256.703000", "122256.703000", "122256.718000", "122256.718000", "122256.718000", "122256.718000", "122256.718000", "122316.656000", "122316.671000", "122316.671000", "122316.671000", "122316.671000", "122316.671000", "122316.671000", "122316.671000", "122316.687000", "122316.687000", "122316.687000", "122316.687000", "122316.687000", "122316.687000", "122316.687000", "122316.687000", "122316.703000", "122316.703000", "122316.703000", "122316.703000", "122316.703000", "122316.703000", "122316.718000", "122316.718000", "122316.718000", "122336.656000", "122336.671000", "122336.671000", "122336.671000", "122336.671000", "122336.671000", "122336.671000", "122336.671000", "122336.687000", "122336.687000", "122336.687000", "122336.687000", "122336.687000", "122336.703000", "122336.703000", "122336.703000", "122336.703000", "122336.703000", "122336.703000", "122336.703000", "122336.703000", "122336.718000", "122336.718000", "122336.718000", "122336.718000", "122336.718000", "122356.656000", "122356.671000", "122356.671000", "122356.671000", "122356.671000", "122356.671000", "122356.671000", "122356.671000", "122356.687000", "122356.687000", "122356.687000", "122356.687000", "122356.687000", "122356.687000", "122356.687000", "122356.687000", "122356.703000", "122356.703000", "122356.703000", "122356.703000", "122356.703000", "122356.703000", "122356.703000", "122356.718000", "122356.718000", "122416.656000", "122416.671000", "122416.671000", "122416.671000", "122416.671000", "122416.671000", "122416.687000", "122416.687000", "122416.687000", "122416.687000", "122416.687000", "122416.687000", "122416.687000", "122416.703000", "122416.703000", "122416.703000", "122416.703000", "122416.703000", "122416.703000", "122416.703000", "122416.703000", "122416.718000", "122416.718000", "122416.718000", "122416.718000", "122436.656000", "122436.671000", "122436.671000", "122436.671000", "122436.671000", "122436.671000", "122436.687000", "122436.687000", "122436.687000", "122436.687000", "122436.687000", "122436.687000", "122436.687000", "122436.703000", "122436.703000", "122436.703000", "122436.703000", "122436.703000", "122436.703000", "122436.703000", "122436.703000", "122436.718000", "122436.718000", "122436.718000", "122436.718000", "122436.718000", "122456.656000", "122456.671000", "122456.671000", "122456.671000", "122456.671000", "122456.671000", "122456.671000", "122456.671000", "122456.687000", "122456.687000", "122456.687000", "122456.687000", "122456.687000", "122456.703000", "122456.703000", "122456.703000", "122456.703000", "122456.703000", "122456.703000", "122456.703000", "122456.718000", "122456.718000", "122456.718000", "122456.718000", "122456.718000", "122516.656000", "122516.671000", "122516.671000", "122516.671000", "122516.671000", "122516.671000", "122516.671000", "122516.671000", "122516.687000", "122516.687000", "122516.687000", "122516.687000", "122516.687000", "122516.687000", "122516.687000", "122516.687000", "122516.703000", "122516.703000", "122516.703000", "122516.703000", "122516.703000", "122516.703000", "122516.703000", "122516.718000", "122516.718000", "122516.718000", "122536.656000", "122536.671000", "122536.671000", "122536.671000", "122536.671000", "122536.671000", "122536.671000", "122536.671000", "122536.687000", "122536.687000", "122536.687000", "122536.687000", "122536.687000", "122536.687000", "122536.687000", "122536.687000", "122536.703000", "122536.703000", "122536.703000", "122536.703000", "122536.703000", "122536.703000", "122536.718000", "122536.718000", "122536.718000", "122556.656000", "122556.671000", "122556.671000", "122556.671000", "122556.671000", "122556.671000", "122556.671000", "122556.671000", "122556.687000", "122556.687000", "122556.687000", "122556.687000", "122556.687000", "122556.687000", "122556.687000", "122556.687000", "122556.703000", "122556.703000", "122556.703000", "122556.703000", "122556.703000", "122556.703000", "122556.703000", "122556.718000", "122556.718000", "122556.718000", "122616.656000", "122616.671000", "122616.671000", "122616.671000", "122616.671000", "122616.671000", "122616.671000", "122616.671000", "122616.687000", "122616.687000", "122616.687000", "122616.687000", "122616.687000", "122616.687000", "122616.687000", "122616.703000", "122616.703000", "122616.703000", "122616.703000", "122616.703000", "122616.703000", "122616.703000", "122616.703000", "122616.718000", "122616.718000", "122636.656000", "122636.671000", "122636.671000", "122636.671000", "122636.671000", "122636.671000", "122636.671000", "122636.671000", "122636.687000", "122636.687000", "122636.687000", "122636.687000", "122636.687000", "122636.687000", "122636.687000", "122636.687000", "122636.703000", "122636.703000", "122636.703000", "122636.703000", "122636.703000", "122636.703000", "122636.703000", "122636.718000", "122636.718000", "122636.718000", "122656.656000", "122656.671000", "122656.671000", "122656.671000", "122656.671000", "122656.671000", "122656.671000", "122656.671000", "122656.687000", "122656.687000", "122656.687000", "122656.687000", "122656.687000", "122656.687000", "122656.687000", "122656.687000", "122656.703000", "122656.703000", "122656.703000", "122656.703000", "122656.703000", "122656.703000", "122656.703000", "122656.718000", "122656.718000", "122657.703000", "122657.703000"],
