{
  "AcquisitionMatrixPE": 104,
  "AcquisitionNumber": 1,
  "AcquisitionTime": "17:11:5.725000",
  "BandwidthPerPixelPhaseEncode": 13.935,
  "BaseResolution": 104,
  "CoilString": "C:HEA;HEP",
  "ConversionSoftware": "dcm2niix",
  "ConversionSoftwareVersion": "v1.0.20210317",
  "DerivedVendorReportedEchoSpacing": 0.000690017,
  "DeviceSerialNumber": "35450",
  "DwellTime": 2.5e-06,
  "EchoTime": 0.0348,
  "EffectiveEchoSpacing": 0.000690017,
  "FlipAngle": 55,
  "ImageComments": "Unaliased MB8/PE3 (remote)",
  "ImageOrientationPatientDICOM": [1, 0, 0, 0, 0.997185, -0.0749787],
  "ImageType": [
    "ORIGINAL",
    "PRIMARY",
    "M",
    "MB",
    "ND",
    "MOSAIC"
],
  "ImagingFrequency": 123.235,
  "InPlanePhaseEncodingDirectionDICOM": "COL",
  "InstitutionAddress": "Univeristy Ave. 197,Newark,North East,US,07102-1814",
  "InstitutionName": "RUBIC",
  "InstitutionalDepartmentName": "Department",
  "MRAcquisitionType": "2D",
  "MagneticFieldStrength": 3,
  "Manufacturer": "Siemens",
  "ManufacturersModelName": "TrioTim",
  "Modality": "MR",
  "MultibandAccelerationFactor": 8,
  "PartialFourier": 0.875,
  "PatientPosition": "HFS",
  "PercentPhaseFOV": 100,
  "PercentSampling": 100,
  "PhaseEncodingDirection": "j-",
  "PhaseEncodingSteps": 91,
  "PhaseResolution": 1,
  "PixelBandwidth": 1923,
  "ProcedureStepDescription": "Cole^Michael",
  "ProtocolName": "cmrr_mbep2d_bold_2mm_MB8_Task_8x",
  "PulseSequenceDetails": "%CustomerSeq%\\cmrr_mbep2d_bold",
  "ReceiveCoilName": "32Ch_Head",
  "ReconMatrixPE": 104,
  "RepetitionTime": 0.785,
  "SAR": 0.13314,
  "ScanOptions": "PFP\\FS",
  "ScanningSequence": "EP",
  "SequenceName": "epfid2d1_104",
  "SequenceVariant": "SK\\SS",
  "SeriesDescription": "cmrr_mbep2d_bold_2mm_MB8_Task_8x",
  "SeriesNumber": 27,
  "ShimSetting": [2078, -355, -7378, 494, -16, 134, 85, 92],
  "SliceThickness": 2,
  "SliceTiming": [0, 0.4375, 0.0875, 0.525, 0.175, 0.6125, 0.2625, 0.7, 0.35, 0, 0.4375, 0.0875, 0.525, 0.175, 0.6125, 0.2625, 0.7, 0.35, 0, 0.4375, 0.0875, 0.525, 0.175, 0.6125, 0.2625, 0.7, 0.35, 0, 0.4375, 0.0875, 0.525, 0.175, 0.6125, 0.2625, 0.7, 0.35, 0, 0.4375, 0.0875, 0.525, 0.175, 0.6125, 0.2625, 0.7, 0.35, 0, 0.4375, 0.0875, 0.525, 0.175, 0.6125, 0.2625, 0.7, 0.35, 0, 0.4375, 0.0875, 0.525, 0.175, 0.6125, 0.2625, 0.7, 0.35, 0, 0.4375, 0.0875, 0.525, 0.175, 0.6125, 0.2625, 0.7, 0.35],
  "SoftwareVersions": "syngo MR B19",
  "SpacingBetweenSlices": 2,
  "StationName": "MRC35450",
  "TaskName": "cpro",
  "TotalReadoutTime": 0.0710717,
  "TxRefAmp": 324.938,
  "dcmmeta_affine": [
    [-2.0, 0.0, 0.0, 105.3559341430664],
    [0.0, 1.9943702220916748, -0.14995744824409485, -71.33765411376953],
    [0.0, 0.14995744824409485, 1.9943702220916748, -97.89212799072266],
    [0.0, 0.0, 0.0, 1.0]
],
  "dcmmeta_reorient_transform": [
    [0.0, -1.0, 0.0, 103.0],
    [1.0, 0.0, 0.0, 0.0],
    [0.0, 0.0, 1.0, 0.0],
    [0.0, 0.0, 0.0, 1.0]
],
  "dcmmeta_shape": [104, 104, 72, 581],
  "dcmmeta_slice_dim": 2,
  "dcmmeta_version": 0.6,
  "global": {
    "const": {
      "AcquisitionMatrix": [104, 0, 0, 104],
      "AngioFlag": "N",
      "BitsAllocated": 16,
      "BitsStored": 12,
      "Columns": 936,
      "EchoNumbers": 1,
      "EchoTime": 34.8,
      "EchoTrainLength": 1,
      "FlipAngle": 55.0,
      "HighBit": 11,
      "ImageOrientationPatient": [1.0, 0.0, 0.0, 0.0, 0.99718513348179, -0.0749787274025],
      "ImagePositionPatient": [-937.35593223572, -963.74051191344, -20.064211993505],
      "ImageType": [
        "ORIGINAL",
        "PRIMARY",
        "M",
        "MB",
        "ND",
        "MOSAIC"
],
      "ImagedNucleus": "1H",
      "ImagingFrequency": 123.234511,
      "InPlanePhaseEncodingDirection": "COL",
      "MRAcquisitionType": "2D",
      "MagneticFieldStrength": 3.0,
      "Manufacturer": "SIEMENS",
      "ManufacturerModelName": "TrioTim",
      "Modality": "MR",
      "NumberOfAverages": 1.0,
      "NumberOfPhaseEncodingSteps": 91,
      "PercentPhaseFieldOfView": 100.0,
      "PercentSampling": 100.0,
      "PerformedProcedureStepStartTime": "150854.796000",
      "PhotometricInterpretation": "MONOCHROME2",
      "PixelBandwidth": 1923.0,
      "PixelRepresentation": 0,
      "PixelSpacing": [2.0, 2.0],
      "ProtocolName": "cmrr_mbep2d_bold_2mm_MB8_Task_8x",
      "RepetitionTime": 785.0,
      "Rows": 936,
      "SAR": 0.13314031572677,
      "SamplesPerPixel": 1,
      "ScanOptions": [
        "PFP",
        "FS"
],
      "ScanningSequence": "EP",
      "SequenceName": "epfid2d1_104",
      "SequenceVariant": [
        "SK",
        "SS"
],
      "SeriesDescription": "cmrr_mbep2d_bold_2mm_MB8_Task_8x",
      "SeriesNumber": 27,
      "SeriesTime": "171143.328000",
      "SliceLocation": -92.267771044495,
      "SliceThickness": 2.0,
      "SmallestImagePixelValue": 0,
      "SoftwareVersions": "syngo MR B19",
      "SpacingBetweenSlices": 1.9999999931387,
      "SpecificCharacterSet": "ISO_IR 100",
      "StudyID": "1",
      "StudyTime": "150854.718000",
      "TransmitCoilName": "Body",
      "VariableFlipAngleFlag": "N",
      "WindowCenterWidthExplanation": "Algo1",
      "dBdt": 0.0},
    "slices": {}
  },
  "time": {
    "samples": {
      "AcquisitionNumber": [1, 2, 3, 4, 5, 6, 7, 8, 9, 10, 11, 12, 13, 14, 15, 16, 17, 18, 19, 20, 21, 22, 23, 24, 25, 26, 27, 28, 29, 30, 31, 32, 33, 34, 35, 36, 37, 38, 39, 40, 41, 42, 43, 44, 45, 46, 47, 48, 49, 50, 51, 52, 53, 54, 55, 56, 57, 58, 59, 60, 61, 62, 63, 64, 65, 66, 67, 68, 69, 70, 71, 72, 73, 74, 75, 76, 77, 78, 79, 80, 81, 82, 83, 84, 85, 86, 87, 88, 89, 90, 91, 92, 93, 94, 95, 96, 97, 98, 99, 100, 101, 102, 103, 104, 105, 106, 107, 108, 109, 110, 111, 112, 113, 114, 115, 116, 117, 118, 119, 120, 121, 122, 123, 124, 125, 126, 127, 128, 129, 130, 131, 132, 133, 134, 135, 136, 137, 138, 139, 140, 141, 142, 143, 144, 145, 146, 147, 148, 149, 150, 151, 152, 153, 154, 155, 156, 157, 158, 159, 160, 161, 162, 163, 164, 165, 166, 167, 168, 169, 170, 171, 172, 173, 174, 175, 176, 177, 178, 179, 180, 181, 182, 183, 184, 185, 186, 187, 188, 189, 190, 191, 192, 193, 194, 195, 196, 197, 198, 199, 200, 201, 202, 203, 204, 205, 206, 207, 208, 209, 210, 211, 212, 213, 214, 215, 216, 217, 218, 219, 220, 221, 222, 223, 224, 225, 226, 227, 228, 229, 230, 231, 232, 233, 234, 235, 236, 237, 238, 239, 240, 241, 242, 243, 244, 245, 246, 247, 248, 249, 250, 251, 252, 253, 254, 255, 256, 257, 258, 259, 260, 261, 262, 263, 264, 265, 266, 267, 268, 269, 270, 271, 272, 273, 274, 275, 276, 277, 278, 279, 280, 281, 282, 283, 284, 285, 286, 287, 288, 289, 290, 291, 292, 293, 294, 295, 296, 297, 298, 299, 300, 301, 302, 303, 304, 305, 306, 307, 308, 309, 310, 311, 312, 313, 314, 315, 316, 317, 318, 319, 320, 321, 322, 323, 324, 325, 326, 327, 328, 329, 330, 331, 332, 333, 334, 335, 336, 337, 338, 339, 340, 341, 342, 343, 344, 345, 346, 347, 348, 349, 350, 351, 352, 353, 354, 355, 356, 357, 358, 359, 360, 361, 362, 363, 364, 365, 366, 367, 368, 369, 370, 371, 372, 373, 374, 375, 376, 377, 378, 379, 380, 381, 382, 383, 384, 385, 386, 387, 388, 389, 390, 391, 392, 393, 394, 395, 396, 397, 398, 399, 400, 401, 402, 403, 404, 405, 406, 407, 408, 409, 410, 411, 412, 413, 414, 415, 416, 417, 418, 419, 420, 421, 422, 423, 424, 425, 426, 427, 428, 429, 430, 431, 432, 433, 434, 435, 436, 437, 438, 439, 440, 441, 442, 443, 444, 445, 446, 447, 448, 449, 450, 451, 452, 453, 454, 455, 456, 457, 458, 459, 460, 461, 462, 463, 464, 465, 466, 467, 468, 469, 470, 471, 472, 473, 474, 475, 476, 477, 478, 479, 480, 481, 482, 483, 484, 485, 486, 487, 488, 489, 490, 491, 492, 493, 494, 495, 496, 497, 498, 499, 500, 501, 502, 503, 504, 505, 506, 507, 508, 509, 510, 511, 512, 513, 514, 515, 516, 517, 518, 519, 520, 521, 522, 523, 524, 525, 526, 527, 528, 529, 530, 531, 532, 533, 534, 535, 536, 537, 538, 539, 540, 541, 542, 543, 544, 545, 546, 547, 548, 549, 550, 551, 552, 553, 554, 555, 556, 557, 558, 559, 560, 561, 562, 563, 564, 565, 566, 567, 568, 569, 570, 571, 572, 573, 574, 575, 576, 577, 578, 579, 580, 581],
      "AcquisitionTime": ["171105.725000", "171106.512500", "171107.302500", "171108.090000", "171108.877500", "171109.665000", "171110.455000", "171111.242500", "171112.030000", "171112.817500", "171113.607500", "171114.395000", "171115.182500", "171115.970000", "171116.760000", "171117.547500", "171118.335000", "171119.122500", "171119.912500", "171120.700000", "171121.487500", "171122.275000", "171123.065000", "171123.852500", "171124.640000", "171125.430000", "171126.217500", "171127.005000", "171127.792500", "171128.582500", "171129.370000", "171130.157500", "171130.945000", "171131.735000", "171132.522500", "171133.310000", "171134.097500", "171134.887500", "171135.675000", "171136.462500", "171137.250000", "171138.040000", "171138.827500", "171139.615000", "171140.402500", "171141.192500", "171141.980000", "171142.767500", "171143.557500", "171144.345000", "171145.132500", "171145.920000", "171146.710000", "171147.497500", "171148.285000", "171149.072500", "171149.862500", "171150.650000", "171151.437500", "171152.225000", "171153.015000", "171153.802500", "171154.590000", "171155.377500", "171156.167500", "171156.955000", "171157.742500", "171158.532500", "171159.320000", "171200.107500", "171200.895000", "171201.685000", "171202.472500", "171203.260000", "171204.047500", "171204.837500", "171205.625000", "171206.412500", "171207.200000", "171207.990000", "171208.777500", "171209.565000", "171210.352500", "171211.142500", "171211.930000", "171212.717500", "171213.505000", "171214.295000", "171215.082500", "171215.870000", "171216.660000", "171217.447500", "171218.235000", "171219.022500", "171219.812500", "171220.600000", "171221.387500", "171222.175000", "171222.965000", "171223.752500", "171224.540000", "171225.327500", "171226.117500", "171226.905000", "171227.692500", "171228.480000", "171229.270000", "171230.057500", "171230.845000", "171231.632500", "171232.422500", "171233.210000", "171233.997500", "171234.787500", "171235.575000", "171236.362500", "171237.150000", "171237.940000", "171238.727500", "171239.515000", "171240.302500", "171241.092500", "171241.880000", "171242.667500", "171243.455000", "171244.245000", "171245.032500", "171245.820000", "171246.607500", "171247.397500", "171248.185000", "171248.972500", "171249.760000", "171250.550000", "171251.337500", "171252.125000", "171252.915000", "171253.702500", "171254.490000", "171255.277500", "171256.067500", "171256.855000", "171257.642500", "171258.430000", "171259.220000", "171300.007500", "171300.795000", "171301.582500", "171302.372500", "171303.160000", "171303.947500", "171304.735000", "171305.525000", "171306.312500", "171307.100000", "171307.887500", "171308.677500", "171309.465000", "171310.252500", "171311.042500", "171311.830000", "171312.617500", "171313.405000", "171314.195000", "171314.982500", "171315.770000", "171316.557500", "171317.347500", "171318.135000", "171318.922500", "171319.710000", "171320.500000", "171321.287500", "171322.075000", "171322.862500", "171323.652500", "171324.440000", "171325.227500", "171326.015000", "171326.805000", "171327.592500", "171328.380000", "171329.170000", "171329.957500", "171330.745000", "171331.532500", "171332.322500", "171333.110000", "171333.897500", "171334.685000", "171335.475000", "171336.262500", "171337.050000", "171337.837500", "171338.627500", "171339.415000", "171340.202500", "171340.990000", "171341.780000", "171342.567500", "171343.355000", "171344.142500", "171344.932500", "171345.720000", "171346.507500", "171347.297500", "171348.085000", "171348.872500", "171349.660000", "171350.450000", "171351.237500", "171352.025000", "171352.812500", "171353.602500", "171354.390000", "171355.177500", "171355.965000", "171356.755000", "171357.542500", "171358.330000", "171359.117500", "171359.907500", "171400.695000", "171401.482500", "171402.270000", "171403.060000", "171403.847500", "171404.635000", "171405.425000", "171406.212500", "171407.000000", "171407.787500", "171408.577500", "171409.365000", "171410.152500", "171410.940000", "171411.730000", "171412.517500", "171413.305000", "171414.092500", "171414.882500", "171415.670000", "171416.457500", "171417.245000", "171418.035000", "171418.822500", "171419.610000", "171420.397500", "171421.187500", "171421.975000", "171422.762500", "171423.552500", "171424.340000", "171425.127500", "171425.915000", "171426.705000", "171427.492500", "171428.280000", "171429.067500", "171429.857500", "171430.645000", "171431.432500", "171432.220000", "171433.010000", "171433.797500", "171434.585000", "171435.372500", "171436.162500", "171436.950000", "171437.737500", "171438.525000", "171439.315000", "171440.102500", "171440.890000", "171441.680000", "171442.467500", "171443.255000", "171444.042500", "171444.832500", "171445.620000", "171446.407500", "171447.195000", "171447.985000", "171448.772500", "171449.560000", "171450.347500", "171451.137500", "171451.925000", "171452.712500", "171453.500000", "171454.290000", "171455.077500", "171455.865000", "171456.652500", "171457.442500", "171458.230000", "171459.017500", "171459.807500", "171500.595000", "171501.382500", "171502.170000", "171502.960000", "171503.747500", "171504.535000", "171505.322500", "171506.112500", "171506.900000", "171507.687500", "171508.475000", "171509.265000", "171510.052500", "171510.840000", "171511.627500", "171512.417500", "171513.205000", "171513.992500", "171514.782500", "171515.570000", "171516.357500", "171517.145000", "171517.935000", "171518.722500", "171519.510000", "171520.297500", "171521.087500", "171521.875000", "171522.662500", "171523.450000", "171524.240000", "171525.027500", "171525.815000", "171526.602500", "171527.392500", "171528.180000", "171528.967500", "171529.755000", "171530.545000", "171531.332500", "171532.120000", "171532.910000", "171533.697500", "171534.485000", "171535.272500", "171536.062500", "171536.850000", "171537.637500", "171538.425000", "171539.215000", "171540.002500", "171540.790000", "171541.577500", "171542.367500", "171543.155000", "171543.942500", "171544.730000", "171545.520000", "171546.307500", "171547.095000", "171547.882500", "171548.672500", "171549.460000", "171550.247500", "171551.037500", "171551.825000", "171552.612500", "171553.400000", "171554.190000", "171554.977500", "171555.765000", "171556.552500", "171557.342500", "171558.130000", "171558.917500", "171559.705000", "171600.495000", "171601.282500", "171602.070000", "171602.857500", "171603.647500", "171604.435000", "171605.222500", "171606.010000", "171606.800000", "171607.587500", "171608.375000", "171609.165000", "171609.952500", "171610.740000", "171611.527500", "171612.317500", "171613.105000", "171613.892500", "171614.680000", "171615.470000", "171616.257500", "171617.045000", "171617.832500", "171618.622500", "171619.410000", "171620.197500", "171620.985000", "171621.775000", "171622.562500", "171623.350000", "171624.137500", "171624.927500", "171625.715000", "171626.502500", "171627.292500", "171628.080000", "171628.867500", "171629.655000", "171630.445000", "171631.232500", "171632.020000", "171632.807500", "171633.597500", "171634.385000", "171635.172500", "171635.960000", "171636.750000", "171637.537500", "171638.325000", "171639.112500", "171639.902500", "171640.690000", "171641.477500", "171642.265000", "171643.055000", "171643.842500", "171644.630000", "171645.420000", "171646.207500", "171646.995000", "171647.782500", "171648.572500", "171649.360000", "171650.147500", "171650.935000", "171651.725000", "171652.512500", "171653.300000", "171654.087500", "171654.877500", "171655.665000", "171656.452500", "171657.240000", "171658.030000", "171658.817500", "171659.605000", "171700.392500", "171701.182500", "171701.970000", "171702.757500", "171703.547500", "171704.335000", "171705.122500", "171705.910000", "171706.700000", "171707.487500", "171708.275000", "171709.062500", "171709.852500", "171710.640000", "171711.427500", "171712.215000", "171713.005000", "171713.792500", "171714.580000", "171715.367500", "171716.157500", "171716.945000", "171717.732500", "171718.520000", "171719.310000", "171720.097500", "171720.885000", "171721.675000", "171722.462500", "171723.250000", "171724.037500", "171724.827500", "171725.615000", "171726.402500", "171727.190000", "171727.980000", "171728.767500", "171729.555000", "171730.342500", "171731.132500", "171731.920000", "171732.707500", "171733.495000", "171734.285000", "171735.072500", "171735.860000", "171736.647500", "171737.437500", "171738.225000", "171739.012500", "171739.802500", "171740.590000", "171741.377500", "171742.165000", "171742.955000", "171743.742500", "171744.530000", "171745.317500", "171746.107500", "171746.895000", "171747.682500", "171748.470000", "171749.260000", "171750.047500", "171750.835000", "171751.622500", "171752.412500", "171753.200000", "171753.987500", "171754.775000", "171755.565000", "171756.352500", "171757.140000", "171757.930000", "171758.717500", "171759.505000", "171800.292500", "171801.082500", "171801.870000", "171802.657500", "171803.445000", "171804.235000", "171805.022500", "171805.810000", "171806.597500", "171807.387500", "171808.175000", "171808.962500", "171809.750000", "171810.540000", "171811.327500", "171812.115000", "171812.902500", "171813.692500", "171814.480000", "171815.267500", "171816.057500", "171816.845000", "171817.632500", "171818.420000", "171819.210000", "171819.997500", "171820.785000", "171821.572500", "171822.362500", "171823.150000", "171823.937500", "171824.725000", "171825.515000", "171826.302500", "171827.090000", "171827.877500", "171828.667500", "171829.455000", "171830.242500", "171831.032500", "171831.820000", "171832.607500", "171833.395000", "171834.185000", "171834.972500", "171835.760000", "171836.547500", "171837.337500", "171838.125000", "171838.912500", "171839.700000", "171840.490000", "171841.277500", "171842.065000", "171842.852500"],
      "ContentTime": ["171143.328000", "171143.343000", "171143.343000", "171143.343000", "171143.343000", "171143.343000", "171143.343000", "171143.343000", "171143.359000", "171143.359000", "171143.359000", "171143.359000", "171143.359000", "171143.359000", "171143.359000", "171143.375000", "171143.375000", "171143.375000", "171143.375000", "171143.375000", "171143.375000", "171143.375000", "171143.390000", "171143.390000", "171143.390000", "171143.390000", "171143.390000", "171143.390000", "171143.390000", "171143.406000", "171143.406000", "171143.406000", "171143.406000", "171143.406000", "171143.406000", "171143.406000", "171143.421000", "171143.421000", "171143.421000", "171143.421000", "171143.421000", "171143.421000", "171143.421000", "171143.437000", "171203.312000", "171203.312000", "171203.312000", "171203.312000", "171203.312000", "171203.312000", "171203.328000", "171203.328000", "171203.328000", "171203.328000", "171203.328000", "171203.328000", "171203.328000", "171203.343000", "171203.343000", "171203.343000", "171203.343000", "171203.343000", "171203.343000", "171203.343000", "171203.359000", "171203.359000", "171203.359000", "171203.359000", "171203.359000", "171203.359000", "171223.312000", "171223.312000", "171223.312000", "171223.312000", "171223.312000", "171223.312000", "171223.328000", "171223.328000", "171223.328000", "171223.328000", "171223.328000", "171223.328000", "171223.328000", "171223.343000", "171223.343000", "171223.343000", "171223.343000", "171223.343000", "171223.343000", "171223.343000", "171223.359000", "171223.359000", "171223.359000", "171223.359000", "171223.359000", "171243.312000", "171243.312000", "171243.312000", "171243.312000", "171243.328000", "171243.328000", "171243.328000", "171243.328000", "171243.328000", "171243.328000", "171243.343000", "171243.343000", "171243.343000", "171243.343000", "171243.343000", "171243.343000", "171243.343000", "171243.359000", "171243.359000", "171243.359000", "171243.359000", "171243.359000", "171243.359000", "171243.359000", "171243.375000", "171243.375000", "171303.312000", "171303.312000", "171303.312000", "171303.312000", "171303.312000", "171303.312000", "171303.328000", "171303.328000", "171303.328000", "171303.328000", "171303.328000", "171303.328000", "171303.328000", "171303.343000", "171303.343000", "171303.343000", "171303.343000", "171303.343000", "171303.343000", "171303.343000", "171303.359000", "171303.359000", "171303.359000", "171303.359000", "171303.359000", "171323.312000", "171323.312000", "171323.312000", "171323.312000", "171323.312000", "171323.312000", "171323.328000", "171323.328000", "171323.328000", "171323.328000", "171323.328000", "171323.328000", "171323.328000", "171323.343000", "171323.343000", "171323.343000", "171323.343000", "171323.343000", "171323.343000", "171323.343000", "171323.359000", "171323.359000", "171323.359000", "171323.359000", "171323.359000", "171323.359000", "171343.312000", "171343.312000", "171343.312000", "171343.312000", "171343.312000", "171343.312000", "171343.328000", "171343.328000", "171343.328000", "171343.328000", "171343.328000", "171343.328000", "171343.328000", "171343.343000", "171343.343000", "171343.343000", "171343.343000", "171343.343000", "171343.343000", "171343.343000", "171343.359000", "171343.359000", "171343.359000", "171343.359000", "171343.359000", "171403.312000", "171403.312000", "171403.312000", "171403.312000", "171403.312000", "171403.328000", "171403.328000", "171403.328000", "171403.328000", "171403.328000", "171403.328000", "171403.328000", "171403.343000", "171403.343000", "171403.343000", "171403.343000", "171403.343000", "171403.343000", "171403.343000", "171403.359000", "171403.359000", "171403.359000", "171403.359000", "171403.359000", "171403.359000", "171403.359000", "171423.312000", "171423.312000", "171423.312000", "171423.312000", "171423.312000", "171423.312000", "171423.328000", "171423.328000", "171423.328000", "171423.328000", "171423.328000", "171423.328000", "171423.328000", "171423.343000", "171423.343000", "171423.343000", "171423.343000", "171423.343000", "171423.343000", "171423.343000", "171423.359000", "171423.359000", "171423.359000", "171423.359000", "171423.359000", "171443.312000", "171443.312000", "171443.312000", "171443.312000", "171443.312000", "171443.312000", "171443.328000", "171443.328000", "171443.328000", "171443.328000", "171443.328000", "171443.328000", "171443.328000", "171443.343000", "171443.343000", "171443.343000", "171443.343000", "171443.343000", "171443.343000", "171443.343000", "171443.359000", "171443.359000", "171443.359000", "171443.359000", "171443.359000", "171503.312000", "171503.312000", "171503.312000", "171503.312000", "171503.312000", "171503.312000", "171503.328000", "171503.328000", "171503.328000", "171503.328000", "171503.328000", "171503.343000", "171503.343000", "171503.343000", "171503.343000", "171503.343000", "171503.343000", "171503.359000", "171503.359000", "171503.359000", "171503.359000", "171503.359000", "171503.359000", "171503.359000", "171503.375000", "171503.375000", "171523.312000", "171523.312000", "171523.312000", "171523.312000", "171523.328000", "171523.328000", "171523.328000", "171523.328000", "171523.328000", "171523.328000", "171523.328000", "171523.343000", "171523.343000", "171523.343000", "171523.343000", "171523.343000", "171523.343000", "171523.343000", "171523.359000", "171523.359000", "171523.359000", "171523.359000", "171523.359000", "171523.359000", "171523.359000", "171543.312000", "171543.312000", "171543.312000", "171543.312000", "171543.312000", "171543.312000", "171543.328000", "171543.328000", "171543.328000", "171543.328000", "171543.328000", "171543.328000", "171543.328000", "171543.343000", "171543.343000", "171543.343000", "171543.343000", "171543.343000", "171543.343000", "171543.359000", "171543.359000", "171543.359000", "171543.359000", "171543.359000", "171543.359000", "171543.375000", "171603.312000", "171603.312000", "171603.312000", "171603.312000", "171603.312000", "171603.312000", "171603.328000", "171603.328000", "171603.328000", "171603.328000", "171603.328000", "171603.328000", "171603.343000", "171603.343000", "171603.343000", "171603.343000", "171603.343000", "171603.343000", "171603.359000", "171603.359000", "171603.359000", "171603.359000", "171603.359000", "171603.359000", "171603.375000", "171623.312000", "171623.312000", "171623.312000", "171623.312000", "171623.312000", "171623.312000", "171623.328000", "171623.328000", "171623.328000", "171623.328000", "171623.328000", "171623.328000", "171623.328000", "171623.343000", "171623.343000", "171623.343000", "171623.343000", "171623.343000", "171623.343000", "171623.343000", "171623.359000", "171623.359000", "171623.359000", "171623.359000", "171623.359000", "171623.359000", "171643.312000", "171643.312000", "171643.312000", "171643.312000", "171643.312000", "171643.312000", "171643.328000", "171643.328000", "171643.328000", "171643.328000", "171643.328000", "171643.328000", "171643.328000", "171643.343000", "171643.343000", "171643.343000", "171643.343000", "171643.343000", "171643.343000", "171643.343000", "171643.359000", "171643.359000", "171643.359000", "171643.359000", "171643.359000", "171703.312000", "171703.312000", "171703.312000", "171703.312000", "171703.312000", "171703.312000", "171703.328000", "171703.328000", "171703.328000", "171703.328000", "171703.328000", "171703.328000", "171703.328000", "171703.343000", "171703.343000", "171703.343000", "171703.343000", "171703.343000", "171703.359000", "171703.359000", "171703.359000", "171703.359000", "171703.359000", "171703.375000", "171703.375000", "171703.375000", "171723.312000", "171723.312000", "171723.312000", "171723.312000", "171723.312000", "171723.312000", "171723.328000", "171723.328000", "171723.328000", "171723.328000", "171723.328000", "171723.328000", "171723.328000", "171723.343000", "171723.343000", "171723.343000", "171723.343000", "171723.343000", "171723.343000", "171723.343000", "171723.359000", "171723.359000", "171723.359000", "171723.359000", "171723.359000", "171743.312000", "171743.312000", "171743.312000", "171743.312000", "171743.312000", "171743.312000", "171743.328000", "171743.328000", "171743.328000", "171743.328000", "171743.328000", "171743.328000", "171743.328000", "171743.343000", "171743.343000", "171743.343000", "171743.343000", "171743.343000", "171743.343000", "171743.359000", "171743.359000", "171743.359000", "171743.359000", "171743.359000", "171743.359000", "171743.359000", "171803.312000", "171803.312000", "171803.312000", "171803.312000", "171803.312000", "171803.328000", "171803.328000", "171803.328000", "171803.328000", "171803.328000", "171803.328000", "171803.343000", "171803.343000", "171803.343000", "171803.343000", "171803.343000", "171803.343000", "171803.343000", "171803.359000", "171803.359000", "171803.359000", "171803.359000", "171803.359000", "171803.359000", "171803.359000", "171823.312000", "171823.312000", "171823.312000", "171823.312000", "171823.312000", "171823.312000", "171823.328000", "171823.328000", "171823.328000", "171823.328000", "171823.328000", "171823.328000", "171823.328000", "171823.343000", "171823.343000", "171823.343000", "171823.343000", "171823.343000", "171823.343000", "171823.343000", "171823.359000", "171823.359000", "171823.359000", "171823.359000", "171823.359000", "171823.359000", "171843.312000", "171843.312000", "171843.312000", "171843.312000", "171843.312000", "171843.312000", "171843.328000", "171843.328000", "171843.328000", "171843.328000", "171843.328000", "171843.328000", "171843.328000", "171843.343000", "171843.343000", "171843.343000", "171843.343000", "171843.343000", "171843.343000", "171843.343000", "171843.359000", "171843.359000", "171843.359000", "171843.359000", "171843.359000", "171844.359000", "171844.359000"],
      "DataSetTrailingPadding": [
        "\u0000\u0000\u0000\u0000\u0000\u0000\u0000\u0000\u0000\u0000\u0000\u0000\u0000\u0000\u0000\u0000\u0000\u0000\u0000\u0000\u0000\u0000\u0000\u0000\u0000\u0000\u0000\u0000\u0000\u0000\u0000\u0000\u0000\u0000\u0000\u0000\u0000\u0000\u0000\u0000\u0000\u0000\u0000\u0000\u0000\u0000\u0000\u0000\u0000\u0000\u0000\u0000\u0000\u0000\u0000\u0000\u0000\u0000\u0000\u0000\u0000\u0000\u0000\u0000\u0000\u0000\u0000\u0000\u0000\u0000\u0000\u0000\u0000\u0000\u0000\u0000\u0000\u0000\u0000\u0000\u0000\u0000\u0000\u0000\u0000\u0000\u0000\u0000\u0000\u0000\u0000\u0000\u0000\u0000\u0000\u0000\u0000\u0000\u0000\u0000\u0000\u0000\u0000\u0000\u0000\u0000\u0000\u0000\u0000\u0000\u0000\u0000\u0000\u0000\u0000\u0000\u0000\u0000\u0000\u0000\u0000\u0000\u0000\u0000\u0000\u0000\u0000\u0000\u0000\u0000\u0000\u0000\u0000\u0000\u0000\u0000\u0000\u0000\u0000\u0000\u0000\u0000\u0000\u0000\u0000\u0000\u0000\u0000\u0000\u0000\u0000\u0000\u0000\u0000\u0000\u0000\u0000\u0000\u0000\u0000\u0000\u0000\u0000\u0000\u0000\u0000\u0000\u0000\u0000\u0000\u0000\u0000\u0000\u0000\u0000\u0000\u0000\u0000\u0000\u0000\u0000\u0000\u0000\u0000\u0000\u0000\u0000\u0000\u0000\u0000\u0000\u0000\u0000\u0000\u0000\u0000\u0000\u0000\u0000\u0000\u0000\u0000\u0000\u0000\u0000\u0000\u0000\u0000\u0000\u0000",
