{
  "AcquisitionMatrixPE": 104,
  "AcquisitionNumber": 1,
  "AcquisitionTime": "16:44:59.760000",
  "BandwidthPerPixelPhaseEncode": 13.935,
  "BaseResolution": 104,
  "CoilString": "C:HEA;HEP",
  "ConversionSoftware": "dcm2niix",
  "ConversionSoftwareVersion": "v1.0.20210317",
  "DerivedVendorReportedEchoSpacing": 0.000690017,
  "DeviceSerialNumber": "35450",
  "DwellTime": 2.5e-06,
  "EchoTime": 0.0348,
  "EffectiveEchoSpacing": 0.000690017,
  "FlipAngle": 55,
  "ImageComments": "Unaliased MB8/PE3 (remote)",
  "ImageOrientationPatientDICOM": [1, 0, 0, 0, 0.997185, -0.0749787],
  "ImageType": [
    "ORIGINAL",
    "PRIMARY",
    "M",
    "MB",
    "ND",
    "MOSAIC"
],
  "ImagingFrequency": 123.235,
  "InPlanePhaseEncodingDirectionDICOM": "COL",
  "InstitutionAddress": "Univeristy Ave. 197,Newark,North East,US,07102-1814",
  "InstitutionName": "RUBIC",
  "InstitutionalDepartmentName": "Department",
  "MRAcquisitionType": "2D",
  "MagneticFieldStrength": 3,
  "Manufacturer": "Siemens",
  "ManufacturersModelName": "TrioTim",
  "Modality": "MR",
  "MultibandAccelerationFactor": 8,
  "PartialFourier": 0.875,
  "PatientPosition": "HFS",
  "PercentPhaseFOV": 100,
  "PercentSampling": 100,
  "PhaseEncodingDirection": "j-",
  "PhaseEncodingSteps": 91,
  "PhaseResolution": 1,
  "PixelBandwidth": 1923,
  "ProcedureStepDescription": "Cole^Michael",
  "ProtocolName": "cmrr_mbep2d_bold_2mm_MB8_Task_8x",
  "PulseSequenceDetails": "%CustomerSeq%\\cmrr_mbep2d_bold",
  "ReceiveCoilName": "32Ch_Head",
  "ReconMatrixPE": 104,
  "RepetitionTime": 0.785,
  "SAR": 0.13314,
  "ScanOptions": "PFP\\FS",
  "ScanningSequence": "EP",
  "SequenceName": "epfid2d1_104",
  "SequenceVariant": "SK\\SS",
  "SeriesDescription": "cmrr_mbep2d_bold_2mm_MB8_Task_8x",
  "SeriesNumber": 21,
  "ShimSetting": [2078, -355, -7378, 494, -16, 134, 85, 92],
  "SliceThickness": 2,
  "SliceTiming": [0, 0.4375, 0.0875, 0.525, 0.175, 0.6125, 0.2625, 0.7, 0.35, 0, 0.4375, 0.0875, 0.525, 0.175, 0.6125, 0.2625, 0.7, 0.35, 0, 0.4375, 0.0875, 0.525, 0.175, 0.6125, 0.2625, 0.7, 0.35, 0, 0.4375, 0.0875, 0.525, 0.175, 0.6125, 0.2625, 0.7, 0.35, 0, 0.4375, 0.0875, 0.525, 0.175, 0.6125, 0.2625, 0.7, 0.35, 0, 0.4375, 0.0875, 0.525, 0.175, 0.6125, 0.2625, 0.7, 0.35, 0, 0.4375, 0.0875, 0.525, 0.175, 0.6125, 0.2625, 0.7, 0.35, 0, 0.4375, 0.0875, 0.525, 0.175, 0.6125, 0.2625, 0.7, 0.35],
  "SoftwareVersions": "syngo MR B19",
  "SpacingBetweenSlices": 2,
  "StationName": "MRC35450",
  "TaskName": "cpro",
  "TotalReadoutTime": 0.0710717,
  "TxRefAmp": 324.938,
  "dcmmeta_affine": [
    [-2.0, 0.0, 0.0, 105.3559341430664],
    [0.0, 1.9943702220916748, -0.14995744824409485, -71.33765411376953],
    [0.0, 0.14995744824409485, 1.9943702220916748, -97.89212799072266],
    [0.0, 0.0, 0.0, 1.0]
],
  "dcmmeta_reorient_transform": [
    [0.0, -1.0, 0.0, 103.0],
    [1.0, 0.0, 0.0, 0.0],
    [0.0, 0.0, 1.0, 0.0],
    [0.0, 0.0, 0.0, 1.0]
],
  "dcmmeta_shape": [104, 104, 72, 581],
  "dcmmeta_slice_dim": 2,
  "dcmmeta_version": 0.6,
  "global": {
    "const": {
      "AcquisitionMatrix": [104, 0, 0, 104],
      "AngioFlag": "N",
      "BitsAllocated": 16,
      "BitsStored": 12,
      "Columns": 936,
      "EchoNumbers": 1,
      "EchoTime": 34.8,
      "EchoTrainLength": 1,
      "FlipAngle": 55.0,
      "HighBit": 11,
      "ImageOrientationPatient": [1.0, 0.0, 0.0, 0.0, 0.99718513348179, -0.0749787274025],
      "ImagePositionPatient": [-937.35593223572, -963.74051191344, -20.064211993505],
      "ImageType": [
        "ORIGINAL",
        "PRIMARY",
        "M",
        "MB",
        "ND",
        "MOSAIC"
],
      "ImagedNucleus": "1H",
      "ImagingFrequency": 123.234511,
      "InPlanePhaseEncodingDirection": "COL",
      "MRAcquisitionType": "2D",
      "MagneticFieldStrength": 3.0,
      "Manufacturer": "SIEMENS",
      "ManufacturerModelName": "TrioTim",
      "Modality": "MR",
      "NumberOfAverages": 1.0,
      "NumberOfPhaseEncodingSteps": 91,
      "PercentPhaseFieldOfView": 100.0,
      "PercentSampling": 100.0,
      "PerformedProcedureStepStartTime": "150854.796000",
      "PhotometricInterpretation": "MONOCHROME2",
      "PixelBandwidth": 1923.0,
      "PixelRepresentation": 0,
      "PixelSpacing": [2.0, 2.0],
      "ProtocolName": "cmrr_mbep2d_bold_2mm_MB8_Task_8x",
      "RepetitionTime": 785.0,
      "Rows": 936,
      "SAR": 0.13314031572677,
      "SamplesPerPixel": 1,
      "ScanOptions": [
        "PFP",
        "FS"
],
      "ScanningSequence": "EP",
      "SequenceName": "epfid2d1_104",
      "SequenceVariant": [
        "SK",
        "SS"
],
      "SeriesDescription": "cmrr_mbep2d_bold_2mm_MB8_Task_8x",
      "SeriesNumber": 21,
      "SeriesTime": "164523.328000",
      "SliceLocation": -92.267771044495,
      "SliceThickness": 2.0,
      "SmallestImagePixelValue": 0,
      "SoftwareVersions": "syngo MR B19",
      "SpacingBetweenSlices": 1.9999999931387,
      "SpecificCharacterSet": "ISO_IR 100",
      "StudyID": "1",
      "StudyTime": "150854.718000",
      "TransmitCoilName": "Body",
      "VariableFlipAngleFlag": "N",
      "WindowCenterWidthExplanation": "Algo1",
      "dBdt": 0.0},
    "slices": {}
  },
  "time": {
    "samples": {
      "AcquisitionNumber": [1, 2, 3, 4, 5, 6, 7, 8, 9, 10, 11, 12, 13, 14, 15, 16, 17, 18, 19, 20, 21, 22, 23, 24, 25, 26, 27, 28, 29, 30, 31, 32, 33, 34, 35, 36, 37, 38, 39, 40, 41, 42, 43, 44, 45, 46, 47, 48, 49, 50, 51, 52, 53, 54, 55, 56, 57, 58, 59, 60, 61, 62, 63, 64, 65, 66, 67, 68, 69, 70, 71, 72, 73, 74, 75, 76, 77, 78, 79, 80, 81, 82, 83, 84, 85, 86, 87, 88, 89, 90, 91, 92, 93, 94, 95, 96, 97, 98, 99, 100, 101, 102, 103, 104, 105, 106, 107, 108, 109, 110, 111, 112, 113, 114, 115, 116, 117, 118, 119, 120, 121, 122, 123, 124, 125, 126, 127, 128, 129, 130, 131, 132, 133, 134, 135, 136, 137, 138, 139, 140, 141, 142, 143, 144, 145, 146, 147, 148, 149, 150, 151, 152, 153, 154, 155, 156, 157, 158, 159, 160, 161, 162, 163, 164, 165, 166, 167, 168, 169, 170, 171, 172, 173, 174, 175, 176, 177, 178, 179, 180, 181, 182, 183, 184, 185, 186, 187, 188, 189, 190, 191, 192, 193, 194, 195, 196, 197, 198, 199, 200, 201, 202, 203, 204, 205, 206, 207, 208, 209, 210, 211, 212, 213, 214, 215, 216, 217, 218, 219, 220, 221, 222, 223, 224, 225, 226, 227, 228, 229, 230, 231, 232, 233, 234, 235, 236, 237, 238, 239, 240, 241, 242, 243, 244, 245, 246, 247, 248, 249, 250, 251, 252, 253, 254, 255, 256, 257, 258, 259, 260, 261, 262, 263, 264, 265, 266, 267, 268, 269, 270, 271, 272, 273, 274, 275, 276, 277, 278, 279, 280, 281, 282, 283, 284, 285, 286, 287, 288, 289, 290, 291, 292, 293, 294, 295, 296, 297, 298, 299, 300, 301, 302, 303, 304, 305, 306, 307, 308, 309, 310, 311, 312, 313, 314, 315, 316, 317, 318, 319, 320, 321, 322, 323, 324, 325, 326, 327, 328, 329, 330, 331, 332, 333, 334, 335, 336, 337, 338, 339, 340, 341, 342, 343, 344, 345, 346, 347, 348, 349, 350, 351, 352, 353, 354, 355, 356, 357, 358, 359, 360, 361, 362, 363, 364, 365, 366, 367, 368, 369, 370, 371, 372, 373, 374, 375, 376, 377, 378, 379, 380, 381, 382, 383, 384, 385, 386, 387, 388, 389, 390, 391, 392, 393, 394, 395, 396, 397, 398, 399, 400, 401, 402, 403, 404, 405, 406, 407, 408, 409, 410, 411, 412, 413, 414, 415, 416, 417, 418, 419, 420, 421, 422, 423, 424, 425, 426, 427, 428, 429, 430, 431, 432, 433, 434, 435, 436, 437, 438, 439, 440, 441, 442, 443, 444, 445, 446, 447, 448, 449, 450, 451, 452, 453, 454, 455, 456, 457, 458, 459, 460, 461, 462, 463, 464, 465, 466, 467, 468, 469, 470, 471, 472, 473, 474, 475, 476, 477, 478, 479, 480, 481, 482, 483, 484, 485, 486, 487, 488, 489, 490, 491, 492, 493, 494, 495, 496, 497, 498, 499, 500, 501, 502, 503, 504, 505, 506, 507, 508, 509, 510, 511, 512, 513, 514, 515, 516, 517, 518, 519, 520, 521, 522, 523, 524, 525, 526, 527, 528, 529, 530, 531, 532, 533, 534, 535, 536, 537, 538, 539, 540, 541, 542, 543, 544, 545, 546, 547, 548, 549, 550, 551, 552, 553, 554, 555, 556, 557, 558, 559, 560, 561, 562, 563, 564, 565, 566, 567, 568, 569, 570, 571, 572, 573, 574, 575, 576, 577, 578, 579, 580, 581],
      "AcquisitionTime": ["164459.760000", "164500.550000", "164501.337500", "164502.125000", "164502.912500", "164503.702500", "164504.490000", "164505.277500", "164506.065000", "164506.855000", "164507.642500", "164508.430000", "164509.217500", "164510.007500", "164510.795000", "164511.582500", "164512.370000", "164513.160000", "164513.947500", "164514.735000", "164515.522500", "164516.312500", "164517.100000", "164517.887500", "164518.677500", "164519.465000", "164520.252500", "164521.040000", "164521.830000", "164522.617500", "164523.405000", "164524.192500", "164524.982500", "164525.770000", "164526.557500", "164527.345000", "164528.135000", "164528.922500", "164529.710000", "164530.497500", "164531.287500", "164532.075000", "164532.862500", "164533.650000", "164534.440000", "164535.227500", "164536.015000", "164536.805000", "164537.592500", "164538.380000", "164539.167500", "164539.957500", "164540.745000", "164541.532500", "164542.320000", "164543.110000", "164543.897500", "164544.685000", "164545.472500", "164546.262500", "164547.050000", "164547.837500", "164548.625000", "164549.415000", "164550.202500", "164550.990000", "164551.777500", "164552.567500", "164553.355000", "164554.142500", "164554.932500", "164555.720000", "164556.507500", "164557.295000", "164558.085000", "164558.872500", "164559.660000", "164600.447500", "164601.237500", "164602.025000", "164602.812500", "164603.600000", "164604.390000", "164605.177500", "164605.965000", "164606.752500", "164607.542500", "164608.330000", "164609.117500", "164609.905000", "164610.695000", "164611.482500", "164612.270000", "164613.060000", "164613.847500", "164614.635000", "164615.422500", "164616.212500", "164617.000000", "164617.787500", "164618.575000", "164619.365000", "164620.152500", "164620.940000", "164621.727500", "164622.517500", "164623.305000", "164624.092500", "164624.880000", "164625.670000", "164626.457500", "164627.245000", "164628.032500", "164628.822500", "164629.610000", "164630.397500", "164631.187500", "164631.975000", "164632.762500", "164633.550000", "164634.340000", "164635.127500", "164635.915000", "164636.702500", "164637.492500", "164638.280000", "164639.067500", "164639.855000", "164640.645000", "164641.432500", "164642.220000", "164643.007500", "164643.797500", "164644.585000", "164645.372500", "164646.160000", "164646.950000", "164647.737500", "164648.525000", "164649.315000", "164650.102500", "164650.890000", "164651.677500", "164652.467500", "164653.255000", "164654.042500", "164654.830000", "164655.620000", "164656.407500", "164657.195000", "164657.982500", "164658.772500", "164659.560000", "164700.347500", "164701.135000", "164701.925000", "164702.712500", "164703.500000", "164704.287500", "164705.077500", "164705.865000", "164706.652500", "164707.442500", "164708.230000", "164709.017500", "164709.805000", "164710.595000", "164711.382500", "164712.170000", "164712.957500", "164713.747500", "164714.535000", "164715.322500", "164716.110000", "164716.900000", "164717.687500", "164718.475000", "164719.262500", "164720.052500", "164720.840000", "164721.627500", "164722.415000", "164723.205000", "164723.992500", "164724.780000", "164725.570000", "164726.357500", "164727.145000", "164727.932500", "164728.722500", "164729.510000", "164730.297500", "164731.085000", "164731.875000", "164732.662500", "164733.450000", "164734.237500", "164735.027500", "164735.815000", "164736.602500", "164737.390000", "164738.180000", "164738.967500", "164739.755000", "164740.542500", "164741.332500", "164742.120000", "164742.907500", "164743.697500", "164744.485000", "164745.272500", "164746.060000", "164746.850000", "164747.637500", "164748.425000", "164749.212500", "164750.002500", "164750.790000", "164751.577500", "164752.365000", "164753.155000", "164753.942500", "164754.730000", "164755.517500", "164756.307500", "164757.095000", "164757.882500", "164758.670000", "164759.460000", "164800.247500", "164801.035000", "164801.825000", "164802.612500", "164803.400000", "164804.187500", "164804.977500", "164805.765000", "164806.552500", "164807.340000", "164808.130000", "164808.917500", "164809.705000", "164810.492500", "164811.282500", "164812.070000", "164812.857500", "164813.645000", "164814.435000", "164815.222500", "164816.010000", "164816.800000", "164817.587500", "164818.375000", "164819.162500", "164819.952500", "164820.740000", "164821.527500", "164822.315000", "164823.105000", "164823.892500", "164824.680000", "164825.467500", "164826.257500", "164827.045000", "164827.832500", "164828.620000", "164829.410000", "164830.197500", "164830.985000", "164831.772500", "164832.562500", "164833.350000", "164834.137500", "164834.927500", "164835.715000", "164836.502500", "164837.290000", "164838.080000", "164838.867500", "164839.655000", "164840.442500", "164841.232500", "164842.020000", "164842.807500", "164843.595000", "164844.385000", "164845.172500", "164845.960000", "164846.747500", "164847.537500", "164848.325000", "164849.112500", "164849.900000", "164850.690000", "164851.477500", "164852.265000", "164853.055000", "164853.842500", "164854.630000", "164855.417500", "164856.207500", "164856.995000", "164857.782500", "164858.570000", "164859.360000", "164900.147500", "164900.935000", "164901.722500", "164902.512500", "164903.300000", "164904.087500", "164904.875000", "164905.665000", "164906.452500", "164907.240000", "164908.027500", "164908.817500", "164909.605000", "164910.392500", "164911.182500", "164911.970000", "164912.757500", "164913.545000", "164914.335000", "164915.122500", "164915.910000", "164916.697500", "164917.487500", "164918.275000", "164919.062500", "164919.850000", "164920.640000", "164921.427500", "164922.215000", "164923.002500", "164923.792500", "164924.580000", "164925.367500", "164926.155000", "164926.945000", "164927.732500", "164928.520000", "164929.310000", "164930.097500", "164930.885000", "164931.672500", "164932.462500", "164933.250000", "164934.037500", "164934.825000", "164935.615000", "164936.402500", "164937.190000", "164937.977500", "164938.767500", "164939.555000", "164940.342500", "164941.130000", "164941.920000", "164942.707500", "164943.495000", "164944.282500", "164945.072500", "164945.860000", "164946.647500", "164947.437500", "164948.225000", "164949.012500", "164949.800000", "164950.590000", "164951.377500", "164952.165000", "164952.952500", "164953.742500", "164954.530000", "164955.317500", "164956.105000", "164956.895000", "164957.682500", "164958.470000", "164959.257500", "165000.047500", "165000.835000", "165001.622500", "165002.410000", "165003.200000", "165003.987500", "165004.775000", "165005.565000", "165006.352500", "165007.140000", "165007.927500", "165008.717500", "165009.505000", "165010.292500", "165011.080000", "165011.870000", "165012.657500", "165013.445000", "165014.232500", "165015.022500", "165015.810000", "165016.597500", "165017.385000", "165018.175000", "165018.962500", "165019.750000", "165020.537500", "165021.327500", "165022.115000", "165022.902500", "165023.692500", "165024.480000", "165025.267500", "165026.055000", "165026.845000", "165027.632500", "165028.420000", "165029.207500", "165029.997500", "165030.785000", "165031.572500", "165032.360000", "165033.150000", "165033.937500", "165034.725000", "165035.512500", "165036.302500", "165037.090000", "165037.877500", "165038.665000", "165039.455000", "165040.242500", "165041.030000", "165041.820000", "165042.607500", "165043.395000", "165044.182500", "165044.972500", "165045.760000", "165046.547500", "165047.335000", "165048.125000", "165048.912500", "165049.700000", "165050.487500", "165051.277500", "165052.065000", "165052.852500", "165053.640000", "165054.430000", "165055.217500", "165056.005000", "165056.792500", "165057.582500", "165058.370000", "165059.157500", "165059.947500", "165100.735000", "165101.522500", "165102.310000", "165103.100000", "165103.887500", "165104.675000", "165105.462500", "165106.252500", "165107.040000", "165107.827500", "165108.615000", "165109.405000", "165110.192500", "165110.980000", "165111.767500", "165112.557500", "165113.345000", "165114.132500", "165114.920000", "165115.710000", "165116.497500", "165117.285000", "165118.075000", "165118.862500", "165119.650000", "165120.437500", "165121.227500", "165122.015000", "165122.802500", "165123.590000", "165124.380000", "165125.167500", "165125.955000", "165126.742500", "165127.532500", "165128.320000", "165129.107500", "165129.895000", "165130.685000", "165131.472500", "165132.260000", "165133.050000", "165133.837500", "165134.625000", "165135.412500", "165136.202500", "165136.990000", "165137.777500", "165138.565000", "165139.355000", "165140.142500", "165140.930000", "165141.717500", "165142.507500", "165143.295000", "165144.082500", "165144.870000", "165145.660000", "165146.447500", "165147.235000", "165148.022500", "165148.812500", "165149.600000", "165150.387500", "165151.177500", "165151.965000", "165152.752500", "165153.540000", "165154.330000", "165155.117500", "165155.905000", "165156.692500", "165157.482500", "165158.270000", "165159.057500", "165159.845000", "165200.635000", "165201.422500", "165202.210000", "165202.997500", "165203.787500", "165204.575000", "165205.362500", "165206.150000", "165206.940000", "165207.727500", "165208.515000", "165209.305000", "165210.092500", "165210.880000", "165211.667500", "165212.457500", "165213.245000", "165214.032500", "165214.820000", "165215.610000", "165216.397500", "165217.185000", "165217.972500", "165218.762500", "165219.550000", "165220.337500", "165221.125000", "165221.915000", "165222.702500", "165223.490000", "165224.277500", "165225.067500", "165225.855000", "165226.642500", "165227.432500", "165228.220000", "165229.007500", "165229.795000", "165230.585000", "165231.372500", "165232.160000", "165232.947500", "165233.737500", "165234.525000", "165235.312500", "165236.100000", "165236.890000"],
      "ContentTime": ["164523.328000", "164523.343000", "164523.343000", "164523.343000", "164523.343000", "164523.343000", "164523.343000", "164523.343000", "164523.359000", "164523.359000", "164523.359000", "164523.359000", "164523.359000", "164523.359000", "164523.359000", "164523.375000", "164523.375000", "164523.375000", "164523.375000", "164523.375000", "164523.375000", "164523.390000", "164523.390000", "164523.390000", "164523.390000", "164523.390000", "164543.312000", "164543.312000", "164543.312000", "164543.312000", "164543.312000", "164543.312000", "164543.328000", "164543.328000", "164543.328000", "164543.328000", "164543.328000", "164543.328000", "164543.328000", "164543.343000", "164543.343000", "164543.343000", "164543.343000", "164543.343000", "164543.343000", "164543.343000", "164543.359000", "164543.359000", "164543.359000", "164543.359000", "164543.359000", "164543.375000", "164603.312000", "164603.312000", "164603.312000", "164603.312000", "164603.312000", "164603.312000", "164603.328000", "164603.328000", "164603.328000", "164603.328000", "164603.328000", "164603.328000", "164603.328000", "164603.343000", "164603.343000", "164603.343000", "164603.343000", "164603.343000", "164603.343000", "164603.359000", "164603.359000", "164603.359000", "164603.359000", "164603.359000", "164603.359000", "164623.312000", "164623.312000", "164623.312000", "164623.312000", "164623.312000", "164623.312000", "164623.328000", "164623.328000", "164623.328000", "164623.328000", "164623.328000", "164623.328000", "164623.328000", "164623.343000", "164623.343000", "164623.343000", "164623.343000", "164623.343000", "164623.343000", "164623.343000", "164623.359000", "164623.359000", "164623.359000", "164623.359000", "164623.359000", "164623.359000", "164643.312000", "164643.312000", "164643.312000", "164643.312000", "164643.312000", "164643.312000", "164643.328000", "164643.328000", "164643.328000", "164643.328000", "164643.328000", "164643.328000", "164643.328000", "164643.343000", "164643.343000", "164643.343000", "164643.343000", "164643.343000", "164643.343000", "164643.359000", "164643.359000", "164643.359000", "164643.359000", "164643.359000", "164643.359000", "164703.312000", "164703.312000", "164703.312000", "164703.312000", "164703.312000", "164703.312000", "164703.328000", "164703.328000", "164703.328000", "164703.328000", "164703.328000", "164703.328000", "164703.328000", "164703.343000", "164703.343000", "164703.343000", "164703.343000", "164703.343000", "164703.343000", "164703.343000", "164703.359000", "164703.359000", "164703.359000", "164703.359000", "164703.359000", "164703.359000", "164723.312000", "164723.312000", "164723.312000", "164723.312000", "164723.312000", "164723.312000", "164723.328000", "164723.328000", "164723.328000", "164723.328000", "164723.328000", "164723.328000", "164723.328000", "164723.343000", "164723.343000", "164723.343000", "164723.343000", "164723.343000", "164723.343000", "164723.359000", "164723.359000", "164723.359000", "164723.359000", "164723.359000", "164723.359000", "164743.312000", "164743.312000", "164743.312000", "164743.312000", "164743.312000", "164743.312000", "164743.328000", "164743.328000", "164743.328000", "164743.328000", "164743.328000", "164743.328000", "164743.328000", "164743.343000", "164743.343000", "164743.343000", "164743.343000", "164743.343000", "164743.343000", "164743.343000", "164743.359000", "164743.359000", "164743.359000", "164743.359000", "164743.359000", "164743.359000", "164803.312000", "164803.312000", "164803.312000", "164803.312000", "164803.312000", "164803.312000", "164803.328000", "164803.328000", "164803.328000", "164803.328000", "164803.328000", "164803.328000", "164803.328000", "164803.343000", "164803.343000", "164803.343000", "164803.343000", "164803.343000", "164803.343000", "164803.359000", "164803.359000", "164803.359000", "164803.359000", "164803.359000", "164803.359000", "164823.312000", "164823.312000", "164823.312000", "164823.312000", "164823.312000", "164823.312000", "164823.328000", "164823.328000", "164823.328000", "164823.328000", "164823.328000", "164823.328000", "164823.328000", "164823.343000", "164823.343000", "164823.343000", "164823.343000", "164823.343000", "164823.343000", "164823.343000", "164823.359000", "164823.359000", "164823.359000", "164823.359000", "164823.359000", "164823.359000", "164843.312000", "164843.312000", "164843.312000", "164843.312000", "164843.312000", "164843.312000", "164843.328000", "164843.328000", "164843.328000", "164843.328000", "164843.328000", "164843.328000", "164843.343000", "164843.343000", "164843.343000", "164843.343000", "164843.343000", "164843.343000", "164843.343000", "164843.359000", "164843.359000", "164843.359000", "164843.359000", "164843.359000", "164843.359000", "164903.312000", "164903.312000", "164903.312000", "164903.312000", "164903.312000", "164903.312000", "164903.328000", "164903.328000", "164903.328000", "164903.328000", "164903.328000", "164903.328000", "164903.343000", "164903.343000", "164903.343000", "164903.343000", "164903.343000", "164903.343000", "164903.343000", "164903.359000", "164903.359000", "164903.359000", "164903.359000", "164903.359000", "164903.359000", "164903.359000", "164923.312000", "164923.312000", "164923.312000", "164923.312000", "164923.312000", "164923.312000", "164923.328000", "164923.328000", "164923.328000", "164923.328000", "164923.328000", "164923.328000", "164923.328000", "164923.343000", "164923.343000", "164923.343000", "164923.343000", "164923.343000", "164923.343000", "164923.343000", "164923.359000", "164923.359000", "164923.359000", "164923.359000", "164923.359000", "164943.312000", "164943.312000", "164943.312000", "164943.312000", "164943.312000", "164943.312000", "164943.328000", "164943.328000", "164943.328000", "164943.328000", "164943.328000", "164943.328000", "164943.328000", "164943.343000", "164943.343000", "164943.343000", "164943.343000", "164943.343000", "164943.343000", "164943.343000", "164943.359000", "164943.359000", "164943.359000", "164943.359000", "164943.359000", "165003.312000", "165003.312000", "165003.312000", "165003.312000", "165003.312000", "165003.312000", "165003.328000", "165003.328000", "165003.328000", "165003.328000", "165003.328000", "165003.328000", "165003.328000", "165003.343000", "165003.343000", "165003.343000", "165003.343000", "165003.343000", "165003.359000", "165003.359000", "165003.359000", "165003.359000", "165003.359000", "165003.359000", "165003.359000", "165003.375000", "165023.312000", "165023.312000", "165023.312000", "165023.312000", "165023.312000", "165023.328000", "165023.328000", "165023.328000", "165023.328000", "165023.328000", "165023.328000", "165023.328000", "165023.343000", "165023.343000", "165023.343000", "165023.343000", "165023.343000", "165023.343000", "165023.343000", "165023.359000", "165023.359000", "165023.359000", "165023.359000", "165023.359000", "165023.359000", "165043.312000", "165043.312000", "165043.312000", "165043.312000", "165043.312000", "165043.312000", "165043.328000", "165043.328000", "165043.328000", "165043.328000", "165043.328000", "165043.328000", "165043.328000", "165043.343000", "165043.343000", "165043.343000", "165043.343000", "165043.343000", "165043.343000", "165043.343000", "165043.359000", "165043.359000", "165043.359000", "165043.359000", "165043.359000", "165043.359000", "165103.312000", "165103.312000", "165103.312000", "165103.312000", "165103.312000", "165103.328000", "165103.328000", "165103.328000", "165103.328000", "165103.328000", "165103.343000", "165103.343000", "165103.343000", "165103.343000", "165103.343000", "165103.343000", "165103.359000", "165103.359000", "165103.359000", "165103.359000", "165103.359000", "165103.359000", "165103.375000", "165103.375000", "165103.375000", "165123.312000", "165123.312000", "165123.312000", "165123.312000", "165123.312000", "165123.312000", "165123.328000", "165123.328000", "165123.328000", "165123.328000", "165123.328000", "165123.328000", "165123.328000", "165123.343000", "165123.343000", "165123.343000", "165123.343000", "165123.343000", "165123.343000", "165123.343000", "165123.359000", "165123.359000", "165123.359000", "165123.359000", "165123.359000", "165123.359000", "165143.312000", "165143.312000", "165143.312000", "165143.312000", "165143.312000", "165143.312000", "165143.328000", "165143.328000", "165143.328000", "165143.328000", "165143.328000", "165143.328000", "165143.328000", "165143.343000", "165143.343000", "165143.343000", "165143.343000", "165143.343000", "165143.359000", "165143.359000", "165143.359000", "165143.359000", "165143.359000", "165143.359000", "165143.375000", "165203.312000", "165203.312000", "165203.312000", "165203.312000", "165203.312000", "165203.312000", "165203.328000", "165203.328000", "165203.328000", "165203.328000", "165203.328000", "165203.328000", "165203.328000", "165203.343000", "165203.343000", "165203.343000", "165203.343000", "165203.343000", "165203.343000", "165203.343000", "165203.359000", "165203.359000", "165203.359000", "165203.359000", "165203.359000", "165203.359000", "165223.312000", "165223.312000", "165223.312000", "165223.312000", "165223.312000", "165223.312000", "165223.328000", "165223.328000", "165223.328000", "165223.328000", "165223.343000", "165223.343000", "165223.343000", "165223.343000", "165223.343000", "165223.343000", "165223.343000", "165223.359000", "165223.359000", "165223.359000", "165223.359000", "165223.359000", "165223.359000", "165223.359000", "165223.375000", "165238.421000", "165238.437000", "165238.437000", "165238.437000", "165238.437000", "165238.437000", "165238.437000", "165238.453000", "165238.453000", "165238.453000", "165238.453000", "165238.453000", "165238.453000", "165238.453000", "165238.468000", "165238.468000", "165238.468000", "165238.468000", "165238.468000", "165238.468000"],
      "DataSetTrailingPadding": [
        "\u0000\u0000\u0000\u0000\u0000\u0000\u0000\u0000\u0000\u0000\u0000\u0000\u0000\u0000\u0000\u0000\u0000\u0000\u0000\u0000\u0000\u0000\u0000\u0000\u0000\u0000\u0000\u0000\u0000\u0000\u0000\u0000\u0000\u0000\u0000\u0000\u0000\u0000\u0000\u0000\u0000\u0000\u0000\u0000\u0000\u0000\u0000\u0000\u0000\u0000\u0000\u0000\u0000\u0000\u0000\u0000\u0000\u0000\u0000\u0000\u0000\u0000\u0000\u0000\u0000\u0000\u0000\u0000\u0000\u0000\u0000\u0000\u0000\u0000\u0000\u0000\u0000\u0000\u0000\u0000\u0000\u0000\u0000\u0000\u0000\u0000\u0000\u0000\u0000\u0000\u0000\u0000\u0000\u0000\u0000\u0000\u0000\u0000\u0000\u0000\u0000\u0000\u0000\u0000\u0000\u0000\u0000\u0000\u0000\u0000\u0000\u0000\u0000\u0000\u0000\u0000\u0000\u0000\u0000\u0000\u0000\u0000\u0000\u0000\u0000\u0000\u0000\u0000\u0000\u0000\u0000\u0000\u0000\u0000\u0000\u0000\u0000\u0000\u0000\u0000\u0000\u0000\u0000\u0000\u0000\u0000\u0000\u0000\u0000\u0000\u0000\u0000\u0000\u0000\u0000\u0000\u0000\u0000\u0000\u0000\u0000\u0000\u0000\u0000\u0000\u0000\u0000\u0000\u0000\u0000\u0000\u0000\u0000\u0000\u0000\u0000\u0000\u0000\u0000\u0000\u0000\u0000\u0000\u0000\u0000\u0000\u0000\u0000\u0000\u0000\u0000\u0000\u0000\u0000\u0000\u0000\u0000\u0000\u0000\u0000\u0000\u0000\u0000\u0000\u0000\u0000\u0000\u0000\u0000\u0000",
