{
  "AcquisitionMatrixPE": 104,
  "AcquisitionNumber": 1,
  "AcquisitionTime": "15:50:23.772500",
  "BandwidthPerPixelPhaseEncode": 13.935,
  "BaseResolution": 104,
  "CoilString": "C:HEA;HEP",
  "ConversionSoftware": "dcm2niix",
  "ConversionSoftwareVersion": "v1.0.20210317",
  "DerivedVendorReportedEchoSpacing": 0.000690017,
  "DeviceSerialNumber": "35450",
  "DwellTime": 2.5e-06,
  "EchoTime": 0.0348,
  "EffectiveEchoSpacing": 0.000690017,
  "FlipAngle": 55,
  "ImageComments": "Unaliased MB8/PE3",
  "ImageOrientationPatientDICOM": [0.999392, 0.000913672, -0.0348569, -2.24809e-08, 0.999657, 0.0262024],
  "ImageType": [
    "ORIGINAL",
    "PRIMARY",
    "M",
    "MB",
    "ND",
    "MOSAIC"
],
  "ImagingFrequency": 123.234,
  "InPlanePhaseEncodingDirectionDICOM": "COL",
  "InstitutionAddress": "Univeristy Ave. 197,Newark,North East,US,07102-1814",
  "InstitutionName": "RUBIC",
  "InstitutionalDepartmentName": "Department",
  "MRAcquisitionType": "2D",
  "MagneticFieldStrength": 3,
  "Manufacturer": "Siemens",
  "ManufacturersModelName": "TrioTim",
  "Modality": "MR",
  "MultibandAccelerationFactor": 8,
  "PartialFourier": 0.875,
  "PatientPosition": "HFS",
  "PercentPhaseFOV": 100,
  "PercentSampling": 100,
  "PhaseEncodingDirection": "j-",
  "PhaseEncodingSteps": 91,
  "PhaseResolution": 1,
  "PixelBandwidth": 1923,
  "ProcedureStepDescription": "Cole^Michael",
  "ProtocolName": "cmrr_mbep2d_bold_2mm_MB8_Task_8x",
  "PulseSequenceDetails": "%CustomerSeq%\\cmrr_mbep2d_bold",
  "ReceiveCoilName": "32Ch_Head",
  "ReconMatrixPE": 104,
  "RepetitionTime": 0.785,
  "SAR": 0.101925,
  "ScanOptions": "PFP\\FS",
  "ScanningSequence": "EP",
  "SequenceName": "epfid2d1_104",
  "SequenceVariant": "SK\\SS",
  "SeriesDescription": "cmrr_mbep2d_bold_2mm_MB8_Task_8x",
  "SeriesNumber": 15,
  "ShimSetting": [2118, -479, -7282, 508, 39, -90, -25, 7],
  "SliceThickness": 2,
  "SliceTiming": [0, 0.4375, 0.0875, 0.525, 0.175, 0.6125, 0.2625, 0.7, 0.35, 0, 0.4375, 0.0875, 0.525, 0.175, 0.6125, 0.2625, 0.7, 0.35, 0, 0.4375, 0.0875, 0.525, 0.175, 0.6125, 0.2625, 0.7, 0.35, 0, 0.4375, 0.0875, 0.525, 0.175, 0.6125, 0.2625, 0.7, 0.35, 0, 0.4375, 0.0875, 0.525, 0.175, 0.6125, 0.2625, 0.7, 0.35, 0, 0.4375, 0.0875, 0.525, 0.175, 0.6125, 0.2625, 0.7, 0.35, 0, 0.4375, 0.0875, 0.525, 0.175, 0.6125, 0.2625, 0.7, 0.35, 0, 0.4375, 0.0875, 0.525, 0.175, 0.6125, 0.2625, 0.7, 0.35],
  "SoftwareVersions": "syngo MR B19",
  "SpacingBetweenSlices": 2,
  "StationName": "MRC35450",
  "TaskName": "cpro",
  "TotalReadoutTime": 0.0710717,
  "TxRefAmp": 320.915,
  "dcmmeta_affine": [
    [-1.998783826828003, -4.496189021097052e-08, -0.06973776966333389, 103.71644592285156],
    [-0.0018273447640240192, 1.9993133544921875, 0.0523730143904686, -89.49043273925781],
    [-0.06971382349729538, -0.05240488424897194, 1.998097538948059, -82.93943786621094],
    [0.0, 0.0, 0.0, 1.0]
],
  "dcmmeta_reorient_transform": [
    [0.0, -1.0, 0.0, 103.0],
    [1.0, 0.0, 0.0, 0.0],
    [0.0, 0.0, 1.0, 0.0],
    [0.0, 0.0, 0.0, 1.0]
],
  "dcmmeta_shape": [104, 104, 72, 581],
  "dcmmeta_slice_dim": 2,
  "dcmmeta_version": 0.6,
  "global": {
    "const": {
      "AcquisitionMatrix": [104, 0, 0, 104],
      "AngioFlag": "N",
      "BitsAllocated": 16,
      "BitsStored": 12,
      "Columns": 936,
      "EchoNumbers": 1,
      "EchoTime": 34.8,
      "EchoTrainLength": 1,
      "FlipAngle": 55.0,
      "HighBit": 11,
      "ImageOrientationPatient": [0.99939189556644, 0.00091367238411, -0.0348569114939, -2.2480945e-08, 0.99965665706529, 0.02620244234897],
      "ImagePositionPatient": [-935.21048190906, -948.91335164193, -81.136622385695],
      "ImageType": [
        "ORIGINAL",
        "PRIMARY",
        "M",
        "MB",
        "ND",
        "MOSAIC"
],
      "ImagedNucleus": "1H",
      "ImagingFrequency": 123.23444,
      "InPlanePhaseEncodingDirection": "COL",
      "MRAcquisitionType": "2D",
      "MagneticFieldStrength": 3.0,
      "Manufacturer": "SIEMENS",
      "ManufacturerModelName": "TrioTim",
      "Modality": "MR",
      "NumberOfAverages": 1.0,
      "NumberOfPhaseEncodingSteps": 91,
      "PercentPhaseFieldOfView": 100.0,
      "PercentSampling": 100.0,
      "PerformedProcedureStepStartTime": "143528.906000",
      "PhotometricInterpretation": "MONOCHROME2",
      "PixelBandwidth": 1923.0,
      "PixelRepresentation": 0,
      "PixelSpacing": [2.0, 2.0],
      "ProtocolName": "cmrr_mbep2d_bold_2mm_MB8_Task_8x",
      "RepetitionTime": 785.0,
      "Rows": 936,
      "SAR": 0.10192484617951,
      "SamplesPerPixel": 1,
      "ScanOptions": [
        "PFP",
        "FS"
],
      "ScanningSequence": "EP",
      "SequenceName": "epfid2d1_104",
      "SequenceVariant": [
        "SK",
        "SS"
],
      "SeriesDescription": "cmrr_mbep2d_bold_2mm_MB8_Task_8x",
      "SeriesNumber": 15,
      "SeriesTime": "163355.203000",
      "SliceLocation": -88.820461143254,
      "SliceThickness": 2.0,
      "SmallestImagePixelValue": 0,
      "SoftwareVersions": "syngo MR B19",
      "SpacingBetweenSlices": 2.0000000176702,
      "SpecificCharacterSet": "ISO_IR 100",
      "StudyID": "1",
      "StudyTime": "143528.828000",
      "TransmitCoilName": "Body",
      "VariableFlipAngleFlag": "N",
      "WindowCenterWidthExplanation": "Algo1",
      "dBdt": 0.0},
    "slices": {}
  },
  "time": {
    "samples": {
      "AcquisitionNumber": [1, 2, 3, 4, 5, 6, 7, 8, 9, 10, 11, 12, 13, 14, 15, 16, 17, 18, 19, 20, 21, 22, 23, 24, 25, 26, 27, 28, 29, 30, 31, 32, 33, 34, 35, 36, 37, 38, 39, 40, 41, 42, 43, 44, 45, 46, 47, 48, 49, 50, 51, 52, 53, 54, 55, 56, 57, 58, 59, 60, 61, 62, 63, 64, 65, 66, 67, 68, 69, 70, 71, 72, 73, 74, 75, 76, 77, 78, 79, 80, 81, 82, 83, 84, 85, 86, 87, 88, 89, 90, 91, 92, 93, 94, 95, 96, 97, 98, 99, 100, 101, 102, 103, 104, 105, 106, 107, 108, 109, 110, 111, 112, 113, 114, 115, 116, 117, 118, 119, 120, 121, 122, 123, 124, 125, 126, 127, 128, 129, 130, 131, 132, 133, 134, 135, 136, 137, 138, 139, 140, 141, 142, 143, 144, 145, 146, 147, 148, 149, 150, 151, 152, 153, 154, 155, 156, 157, 158, 159, 160, 161, 162, 163, 164, 165, 166, 167, 168, 169, 170, 171, 172, 173, 174, 175, 176, 177, 178, 179, 180, 181, 182, 183, 184, 185, 186, 187, 188, 189, 190, 191, 192, 193, 194, 195, 196, 197, 198, 199, 200, 201, 202, 203, 204, 205, 206, 207, 208, 209, 210, 211, 212, 213, 214, 215, 216, 217, 218, 219, 220, 221, 222, 223, 224, 225, 226, 227, 228, 229, 230, 231, 232, 233, 234, 235, 236, 237, 238, 239, 240, 241, 242, 243, 244, 245, 246, 247, 248, 249, 250, 251, 252, 253, 254, 255, 256, 257, 258, 259, 260, 261, 262, 263, 264, 265, 266, 267, 268, 269, 270, 271, 272, 273, 274, 275, 276, 277, 278, 279, 280, 281, 282, 283, 284, 285, 286, 287, 288, 289, 290, 291, 292, 293, 294, 295, 296, 297, 298, 299, 300, 301, 302, 303, 304, 305, 306, 307, 308, 309, 310, 311, 312, 313, 314, 315, 316, 317, 318, 319, 320, 321, 322, 323, 324, 325, 326, 327, 328, 329, 330, 331, 332, 333, 334, 335, 336, 337, 338, 339, 340, 341, 342, 343, 344, 345, 346, 347, 348, 349, 350, 351, 352, 353, 354, 355, 356, 357, 358, 359, 360, 361, 362, 363, 364, 365, 366, 367, 368, 369, 370, 371, 372, 373, 374, 375, 376, 377, 378, 379, 380, 381, 382, 383, 384, 385, 386, 387, 388, 389, 390, 391, 392, 393, 394, 395, 396, 397, 398, 399, 400, 401, 402, 403, 404, 405, 406, 407, 408, 409, 410, 411, 412, 413, 414, 415, 416, 417, 418, 419, 420, 421, 422, 423, 424, 425, 426, 427, 428, 429, 430, 431, 432, 433, 434, 435, 436, 437, 438, 439, 440, 441, 442, 443, 444, 445, 446, 447, 448, 449, 450, 451, 452, 453, 454, 455, 456, 457, 458, 459, 460, 461, 462, 463, 464, 465, 466, 467, 468, 469, 470, 471, 472, 473, 474, 475, 476, 477, 478, 479, 480, 481, 482, 483, 484, 485, 486, 487, 488, 489, 490, 491, 492, 493, 494, 495, 496, 497, 498, 499, 500, 501, 502, 503, 504, 505, 506, 507, 508, 509, 510, 511, 512, 513, 514, 515, 516, 517, 518, 519, 520, 521, 522, 523, 524, 525, 526, 527, 528, 529, 530, 531, 532, 533, 534, 535, 536, 537, 538, 539, 540, 541, 542, 543, 544, 545, 546, 547, 548, 549, 550, 551, 552, 553, 554, 555, 556, 557, 558, 559, 560, 561, 562, 563, 564, 565, 566, 567, 568, 569, 570, 571, 572, 573, 574, 575, 576, 577, 578, 579, 580, 581],
      "AcquisitionTime": ["155023.772500", "155024.560000", "155025.347500", "155026.137500", "155026.925000", "155027.712500", "155028.500000", "155029.290000", "155030.077500", "155030.865000", "155031.655000", "155032.442500", "155033.230000", "155034.017500", "155034.807500", "155035.595000", "155036.382500", "155037.170000", "155037.960000", "155038.747500", "155039.535000", "155040.322500", "155041.112500", "155041.900000", "155042.687500", "155043.475000", "155044.265000", "155045.052500", "155045.840000", "155046.627500", "155047.417500", "155048.205000", "155048.992500", "155049.782500", "155050.570000", "155051.357500", "155052.145000", "155052.935000", "155053.722500", "155054.510000", "155055.297500", "155056.087500", "155056.875000", "155057.662500", "155058.450000", "155059.240000", "155100.027500", "155100.815000", "155101.602500", "155102.392500", "155103.180000", "155103.967500", "155104.755000", "155105.545000", "155106.332500", "155107.120000", "155107.910000", "155108.697500", "155109.485000", "155110.272500", "155111.062500", "155111.850000", "155112.637500", "155113.425000", "155114.215000", "155115.002500", "155115.790000", "155116.577500", "155117.367500", "155118.155000", "155118.942500", "155119.730000", "155120.520000", "155121.307500", "155122.095000", "155122.882500", "155123.672500", "155124.460000", "155125.247500", "155126.037500", "155126.825000", "155127.612500", "155128.400000", "155129.190000", "155129.977500", "155130.765000", "155131.552500", "155132.342500", "155133.130000", "155133.917500", "155134.705000", "155135.495000", "155136.282500", "155137.070000", "155137.857500", "155138.647500", "155139.435000", "155140.222500", "155141.012500", "155141.800000", "155142.587500", "155143.375000", "155144.165000", "155144.952500", "155145.740000", "155146.527500", "155147.317500", "155148.105000", "155148.892500", "155149.680000", "155150.470000", "155151.257500", "155152.045000", "155152.832500", "155153.622500", "155154.410000", "155155.197500", "155155.985000", "155156.775000", "155157.562500", "155158.350000", "155159.140000", "155159.927500", "155200.715000", "155201.502500", "155202.292500", "155203.080000", "155203.867500", "155204.655000", "155205.445000", "155206.232500", "155207.020000", "155207.807500", "155208.597500", "155209.385000", "155210.172500", "155210.960000", "155211.750000", "155212.537500", "155213.325000", "155214.112500", "155214.902500", "155215.690000", "155216.477500", "155217.267500", "155218.055000", "155218.842500", "155219.630000", "155220.420000", "155221.207500", "155221.995000", "155222.782500", "155223.572500", "155224.360000", "155225.147500", "155225.935000", "155226.725000", "155227.512500", "155228.300000", "155229.087500", "155229.877500", "155230.665000", "155231.452500", "155232.240000", "155233.030000", "155233.817500", "155234.605000", "155235.395000", "155236.182500", "155236.970000", "155237.757500", "155238.547500", "155239.335000", "155240.122500", "155240.910000", "155241.700000", "155242.487500", "155243.275000", "155244.062500", "155244.852500", "155245.640000", "155246.427500", "155247.215000", "155248.005000", "155248.792500", "155249.580000", "155250.367500", "155251.157500", "155251.945000", "155252.732500", "155253.522500", "155254.310000", "155255.097500", "155255.885000", "155256.675000", "155257.462500", "155258.250000", "155259.037500", "155259.827500", "155300.615000", "155301.402500", "155302.190000", "155302.980000", "155303.767500", "155304.555000", "155305.342500", "155306.132500", "155306.920000", "155307.707500", "155308.495000", "155309.285000", "155310.072500", "155310.860000", "155311.650000", "155312.437500", "155313.225000", "155314.012500", "155314.802500", "155315.590000", "155316.377500", "155317.165000", "155317.955000", "155318.742500", "155319.530000", "155320.317500", "155321.107500", "155321.895000", "155322.682500", "155323.470000", "155324.260000", "155325.047500", "155325.835000", "155326.622500", "155327.412500", "155328.200000", "155328.987500", "155329.777500", "155330.565000", "155331.352500", "155332.140000", "155332.930000", "155333.717500", "155334.505000", "155335.292500", "155336.082500", "155336.870000", "155337.657500", "155338.445000", "155339.235000", "155340.022500", "155340.810000", "155341.597500", "155342.387500", "155343.175000", "155343.962500", "155344.750000", "155345.540000", "155346.327500", "155347.115000", "155347.905000", "155348.692500", "155349.480000", "155350.267500", "155351.057500", "155351.845000", "155352.632500", "155353.420000", "155354.210000", "155354.997500", "155355.785000", "155356.572500", "155357.362500", "155358.150000", "155358.937500", "155359.725000", "155400.515000", "155401.302500", "155402.090000", "155402.877500", "155403.667500", "155404.455000", "155405.242500", "155406.032500", "155406.820000", "155407.607500", "155408.395000", "155409.185000", "155409.972500", "155410.760000", "155411.547500", "155412.337500", "155413.125000", "155413.912500", "155414.700000", "155415.490000", "155416.277500", "155417.065000", "155417.852500", "155418.642500", "155419.430000", "155420.217500", "155421.005000", "155421.795000", "155422.582500", "155423.370000", "155424.160000", "155424.947500", "155425.735000", "155426.522500", "155427.312500", "155428.100000", "155428.887500", "155429.675000", "155430.465000", "155431.252500", "155432.040000", "155432.827500", "155433.617500", "155434.405000", "155435.192500", "155435.980000", "155436.770000", "155437.557500", "155438.345000", "155439.132500", "155439.922500", "155440.710000", "155441.497500", "155442.287500", "155443.075000", "155443.862500", "155444.650000", "155445.440000", "155446.227500", "155447.015000", "155447.802500", "155448.592500", "155449.380000", "155450.167500", "155450.955000", "155451.745000", "155452.532500", "155453.320000", "155454.107500", "155454.897500", "155455.685000", "155456.472500", "155457.262500", "155458.050000", "155458.837500", "155459.625000", "155500.415000", "155501.202500", "155501.990000", "155502.777500", "155503.567500", "155504.355000", "155505.142500", "155505.930000", "155506.720000", "155507.507500", "155508.295000", "155509.082500", "155509.872500", "155510.660000", "155511.447500", "155512.235000", "155513.025000", "155513.812500", "155514.600000", "155515.390000", "155516.177500", "155516.965000", "155517.752500", "155518.542500", "155519.330000", "155520.117500", "155520.905000", "155521.695000", "155522.482500", "155523.270000", "155524.057500", "155524.847500", "155525.635000", "155526.422500", "155527.210000", "155528.000000", "155528.787500", "155529.575000", "155530.362500", "155531.152500", "155531.940000", "155532.727500", "155533.517500", "155534.305000", "155535.092500", "155535.880000", "155536.670000", "155537.457500", "155538.245000", "155539.032500", "155539.822500", "155540.610000", "155541.397500", "155542.185000", "155542.975000", "155543.762500", "155544.550000", "155545.337500", "155546.127500", "155546.915000", "155547.702500", "155548.490000", "155549.280000", "155550.067500", "155550.855000", "155551.645000", "155552.432500", "155553.220000", "155554.007500", "155554.797500", "155555.585000", "155556.372500", "155557.160000", "155557.950000", "155558.737500", "155559.525000", "155600.312500", "155601.102500", "155601.890000", "155602.677500", "155603.465000", "155604.255000", "155605.042500", "155605.830000", "155606.617500", "155607.407500", "155608.195000", "155608.982500", "155609.772500", "155610.560000", "155611.347500", "155612.135000", "155612.925000", "155613.712500", "155614.500000", "155615.287500", "155616.077500", "155616.865000", "155617.652500", "155618.440000", "155619.230000", "155620.017500", "155620.805000", "155621.592500", "155622.382500", "155623.170000", "155623.957500", "155624.745000", "155625.535000", "155626.322500", "155627.110000", "155627.900000", "155628.687500", "155629.475000", "155630.262500", "155631.052500", "155631.840000", "155632.627500", "155633.415000", "155634.205000", "155634.992500", "155635.780000", "155636.567500", "155637.357500", "155638.145000", "155638.932500", "155639.720000", "155640.510000", "155641.297500", "155642.085000", "155642.872500", "155643.662500", "155644.450000", "155645.237500", "155646.027500", "155646.815000", "155647.602500", "155648.390000", "155649.180000", "155649.967500", "155650.755000", "155651.542500", "155652.332500", "155653.120000", "155653.907500", "155654.695000", "155655.485000", "155656.272500", "155657.060000", "155657.847500", "155658.637500", "155659.425000", "155700.212500", "155701.000000", "155701.790000", "155702.577500", "155703.365000", "155704.155000", "155704.942500", "155705.730000", "155706.517500", "155707.307500", "155708.095000", "155708.882500", "155709.670000", "155710.460000", "155711.247500", "155712.035000", "155712.822500", "155713.612500", "155714.400000", "155715.187500", "155715.975000", "155716.765000", "155717.552500", "155718.340000", "155719.127500", "155719.917500", "155720.705000", "155721.492500", "155722.282500", "155723.070000", "155723.857500", "155724.645000", "155725.435000", "155726.222500", "155727.010000", "155727.797500", "155728.587500", "155729.375000", "155730.162500", "155730.950000", "155731.740000", "155732.527500", "155733.315000", "155734.102500", "155734.892500", "155735.680000", "155736.467500", "155737.255000", "155738.045000", "155738.832500", "155739.620000", "155740.410000", "155741.197500", "155741.985000", "155742.772500", "155743.562500", "155744.350000", "155745.137500", "155745.925000", "155746.715000", "155747.502500", "155748.290000", "155749.077500", "155749.867500", "155750.655000", "155751.442500", "155752.230000", "155753.020000", "155753.807500", "155754.595000", "155755.382500", "155756.172500", "155756.960000", "155757.747500", "155758.537500", "155759.325000", "155800.112500", "155800.900000"],
      "ContentTime": ["163355.203000", "163355.203000", "163355.203000", "163355.203000", "163355.203000", "163355.203000", "163355.218000", "163455.171000", "163455.171000", "163455.171000", "163455.171000", "163455.187000", "163455.187000", "163455.187000", "163455.187000", "163455.187000", "163455.187000", "163455.187000", "163455.187000", "163455.203000", "163455.203000", "163455.203000", "163455.203000", "163455.203000", "163455.203000", "163455.203000", "163455.218000", "163455.218000", "163455.218000", "163455.218000", "163455.218000", "163455.218000", "163455.218000", "163455.234000", "163555.171000", "163555.171000", "163555.171000", "163555.171000", "163555.171000", "163555.187000", "163555.187000", "163555.187000", "163555.187000", "163555.187000", "163555.187000", "163555.187000", "163555.203000", "163555.203000", "163555.203000", "163555.203000", "163555.203000", "163555.203000", "163555.203000", "163555.218000", "163555.218000", "163555.218000", "163555.218000", "163555.218000", "163555.218000", "163555.218000", "163555.234000", "163555.234000", "163655.171000", "163655.171000", "163655.171000", "163655.171000", "163655.187000", "163655.187000", "163655.187000", "163655.187000", "163655.187000", "163655.187000", "163655.187000", "163655.203000", "163655.203000", "163655.203000", "163655.203000", "163655.203000", "163655.203000", "163655.203000", "163655.203000", "163655.218000", "163655.218000", "163655.218000", "163655.218000", "163655.218000", "163655.218000", "163655.218000", "163655.234000", "163755.171000", "163755.171000", "163755.171000", "163755.171000", "163755.187000", "163755.187000", "163755.187000", "163755.187000", "163755.187000", "163755.187000", "163755.187000", "163755.203000", "163755.203000", "163755.203000", "163755.203000", "163755.203000", "163755.203000", "163755.203000", "163755.218000", "163755.218000", "163755.218000", "163755.218000", "163755.218000", "163755.218000", "163755.218000", "163755.234000", "163755.234000", "163855.171000", "163855.171000", "163855.171000", "163855.171000", "163855.187000", "163855.187000", "163855.187000", "163855.187000", "163855.187000", "163855.187000", "163855.187000", "163855.203000", "163855.203000", "163855.203000", "163855.203000", "163855.203000", "163855.203000", "163855.203000", "163855.218000", "163855.218000", "163855.218000", "163855.218000", "163855.218000", "163855.218000", "163855.218000", "163855.234000", "163855.234000", "163855.234000", "163955.171000", "163955.171000", "163955.171000", "163955.171000", "163955.187000", "163955.187000", "163955.187000", "163955.187000", "163955.187000", "163955.187000", "163955.187000", "163955.203000", "163955.203000", "163955.203000", "163955.203000", "163955.203000", "163955.203000", "163955.203000", "163955.203000", "163955.218000", "163955.218000", "163955.218000", "163955.218000", "163955.218000", "163955.218000", "163955.218000", "163955.234000", "163955.234000", "164035.171000", "164035.171000", "164035.171000", "164035.171000", "164035.187000", "164035.187000", "164035.187000", "164035.187000", "164035.187000", "164035.187000", "164035.187000", "164035.203000", "164035.203000", "164035.203000", "164035.203000", "164035.203000", "164035.203000", "164035.203000", "164135.171000", "164135.171000", "164135.171000", "164135.171000", "164135.187000", "164135.187000", "164135.187000", "164135.187000", "164135.187000", "164135.187000", "164135.187000", "164135.203000", "164135.203000", "164135.203000", "164135.203000", "164135.203000", "164135.203000", "164135.203000", "164135.218000", "164135.218000", "164135.218000", "164135.218000", "164135.218000", "164135.218000", "164135.218000", "164135.234000", "164135.234000", "164235.171000", "164235.171000", "164235.171000", "164235.171000", "164235.187000", "164235.187000", "164235.187000", "164235.187000", "164235.187000", "164235.187000", "164235.187000", "164235.203000", "164235.203000", "164235.203000", "164235.203000", "164235.203000", "164235.203000", "164235.203000", "164235.218000", "164235.218000", "164235.218000", "164235.218000", "164235.218000", "164235.218000", "164235.218000", "164235.218000", "164235.234000", "164235.234000", "164335.171000", "164335.171000", "164335.171000", "164335.171000", "164335.187000", "164335.187000", "164335.187000", "164335.187000", "164335.187000", "164335.187000", "164335.187000", "164335.203000", "164335.203000", "164335.203000", "164335.203000", "164335.203000", "164335.203000", "164335.203000", "164335.218000", "164335.218000", "164335.218000", "164335.218000", "164335.218000", "164335.218000", "164335.218000", "164335.218000", "164335.234000", "164435.171000", "164435.171000", "164435.171000", "164435.171000", "164435.187000", "164435.187000", "164435.187000", "164435.187000", "164435.187000", "164435.187000", "164435.187000", "164435.203000", "164435.203000", "164435.203000", "164435.203000", "164435.203000", "164435.203000", "164435.203000", "164435.218000", "164435.218000", "164435.218000", "164435.218000", "164435.218000", "164435.218000", "164435.218000", "164435.234000", "164435.234000", "164535.171000", "164535.171000", "164535.171000", "164535.171000", "164535.187000", "164535.187000", "164535.187000", "164535.187000", "164535.187000", "164535.187000", "164535.187000", "164535.203000", "164535.203000", "164535.203000", "164535.203000", "164535.203000", "164535.203000", "164535.203000", "164535.218000", "164535.218000", "164535.218000", "164535.218000", "164535.218000", "164535.218000", "164535.218000", "164535.234000", "164535.234000", "164535.234000", "164635.171000", "164635.171000", "164635.171000", "164635.171000", "164635.187000", "164635.187000", "164635.187000", "164635.187000", "164635.187000", "164635.187000", "164635.187000", "164635.203000", "164635.203000", "164635.203000", "164635.203000", "164635.203000", "164635.203000", "164635.203000", "164635.218000", "164635.218000", "164635.218000", "164635.218000", "164635.218000", "164635.218000", "164635.218000", "164635.218000", "164635.234000", "164735.171000", "164735.171000", "164735.171000", "164735.171000", "164735.187000", "164735.187000", "164735.187000", "164735.187000", "164735.187000", "164735.187000", "164735.187000", "164735.203000", "164735.203000", "164735.203000", "164735.203000", "164735.203000", "164735.203000", "164735.203000", "164735.218000", "164735.218000", "164735.218000", "164735.218000", "164735.218000", "164735.218000", "164735.218000", "164735.234000", "164735.234000", "164735.234000", "164835.171000", "164835.171000", "164835.171000", "164835.171000", "164835.187000", "164835.187000", "164835.187000", "164835.187000", "164835.187000", "164835.187000", "164835.187000", "164835.203000", "164835.203000", "164835.203000", "164835.203000", "164835.203000", "164835.203000", "164835.203000", "164835.218000", "164835.218000", "164835.218000", "164835.218000", "164835.218000", "164835.218000", "164835.218000", "164835.234000", "164835.234000", "164935.171000", "164935.171000", "164935.171000", "164935.171000", "164935.187000", "164935.187000", "164935.187000", "164935.187000", "164935.187000", "164935.187000", "164935.187000", "164935.203000", "164935.203000", "164935.203000", "164935.203000", "164935.203000", "164935.203000", "164935.203000", "164935.218000", "164935.218000", "164935.218000", "164935.218000", "164935.218000", "164935.218000", "164935.218000", "164935.234000", "164935.234000", "164935.234000", "165035.171000", "165035.171000", "165035.171000", "165035.171000", "165035.187000", "165035.187000", "165035.187000", "165035.187000", "165035.187000", "165035.187000", "165035.187000", "165035.203000", "165035.203000", "165035.203000", "165035.203000", "165035.203000", "165035.203000", "165035.203000", "165035.218000", "165035.218000", "165035.218000", "165035.218000", "165035.218000", "165035.218000", "165035.218000", "165035.234000", "165035.234000", "165035.234000", "165135.171000", "165135.171000", "165135.171000", "165135.171000", "165135.187000", "165135.187000", "165135.187000", "165135.187000", "165135.187000", "165135.187000", "165135.187000", "165135.203000", "165135.203000", "165135.203000", "165135.203000", "165135.203000", "165135.203000", "165135.203000", "165135.218000", "165135.218000", "165135.218000", "165135.218000", "165135.218000", "165135.218000", "165135.218000", "165135.234000", "165135.234000", "165135.234000", "165235.171000", "165235.171000", "165235.171000", "165235.171000", "165235.187000", "165235.187000", "165235.187000", "165235.187000", "165235.187000", "165235.187000", "165235.187000", "165235.203000", "165235.203000", "165235.203000", "165235.203000", "165235.203000", "165235.203000", "165235.203000", "165235.218000", "165235.218000", "165235.218000", "165235.218000", "165235.218000", "165235.218000", "165235.218000", "165235.234000", "165235.234000", "165235.234000", "165335.187000", "165335.187000", "165335.187000", "165335.187000", "165335.187000", "165335.187000", "165335.203000", "165335.203000", "165335.203000", "165335.203000", "165335.203000", "165335.203000", "165335.203000", "165335.218000", "165335.218000", "165335.218000", "165335.218000", "165335.218000", "165335.218000", "165335.218000", "165335.234000", "165335.234000", "165335.234000", "165335.234000", "165335.234000", "165335.234000", "165335.234000", "165435.187000", "165435.187000", "165435.187000", "165435.187000", "165435.187000", "165435.187000", "165435.187000", "165435.203000", "165435.203000", "165435.203000", "165435.203000", "165435.203000", "165435.203000", "165435.203000", "165435.218000", "165435.218000", "165435.218000", "165435.218000", "165435.218000", "165435.218000", "165435.218000", "165435.234000", "165435.234000", "165435.234000", "165435.234000", "165435.234000", "165435.234000", "165435.234000", "165444.140000", "165444.140000", "165444.140000", "165444.140000", "165444.140000"],
      "DataSetTrailingPadding": [
        "\u0000\u0000\u0000\u0000\u0000\u0000\u0000\u0000\u0000\u0000\u0000\u0000\u0000\u0000\u0000\u0000\u0000\u0000\u0000\u0000\u0000\u0000\u0000\u0000\u0000\u0000\u0000\u0000\u0000\u0000\u0000\u0000\u0000\u0000\u0000\u0000\u0000\u0000\u0000\u0000\u0000\u0000\u0000\u0000\u0000\u0000\u0000\u0000\u0000\u0000\u0000\u0000\u0000\u0000\u0000\u0000\u0000\u0000\u0000\u0000\u0000\u0000",
        "\u0000\u0000\u0000\u0000\u0000\u0000\u0000\u0000\u0000\u0000\u0000\u0000\u0000\u0000\u0000\u0000\u0000\u0000\u0000\u0000\u0000\u0000\u0000\u0000\u0000\u0000\u0000\u0000\u0000\u0000\u0000\u0000\u0000\u0000\u0000\u0000\u0000\u0000\u0000\u0000\u0000\u0000\u0000\u0000\u0000\u0000\u0000\u0000\u0000\u0000\u0000\u0000\u0000\u0000\u0000\u0000\u0000\u0000\u0000\u0000\u0000\u0000",
        "\u0000\u0000\u0000\u0000\u0000\u0000\u0000\u0000\u0000\u0000\u0000\u0000\u0000\u0000\u0000\u0000\u0000\u0000\u0000\u0000\u0000\u0000\u0000\u0000\u0000\u0000\u0000\u0000\u0000\u0000\u0000\u0000\u0000\u0000\u0000\u0000\u0000\u0000\u0000\u0000\u0000\u0000\u0000\u0000\u0000\u0000\u0000\u0000\u0000\u0000\u0000\u0000\u0000\u0000\u0000\u0000\u0000\u0000\u0000\u0000",
        "\u0000\u0000\u0000\u0000\u0000\u0000\u0000\u0000\u0000\u0000\u0000\u0000\u0000\u0000\u0000\u0000\u0000\u0000\u0000\u0000\u0000\u0000\u0000\u0000\u0000\u0000\u0000\u0000\u0000\u0000\u0000\u0000\u0000\u0000\u0000\u0000\u0000\u0000\u0000\u0000\u0000\u0000\u0000\u0000\u0000\u0000\u0000\u0000\u0000\u0000\u0000\u0000\u0000\u0000\u0000\u0000\u0000\u0000\u0000\u0000",
        "\u0000\u0000\u0000\u0000\u0000\u0000\u0000\u0000\u0000\u0000\u0000\u0000\u0000\u0000\u0000\u0000\u0000\u0000\u0000\u0000\u0000\u0000\u0000\u0000\u0000\u0000\u0000\u0000\u0000\u0000\u0000\u0000\u0000\u0000\u0000\u0000\u0000\u0000\u0000\u0000\u0000\u0000\u0000\u0000\u0000\u0000\u0000\u0000\u0000\u0000\u0000\u0000\u0000\u0000\u0000\u0000\u0000\u0000\u0000\u0000\u0000\u0000",
