{
  "AcquisitionMatrixPE": 104,
  "AcquisitionNumber": 1,
  "AcquisitionTime": "16:07:6.785000",
  "BandwidthPerPixelPhaseEncode": 13.935,
  "BaseResolution": 104,
  "CoilString": "C:HEA;HEP",
  "ConversionSoftware": "dcm2niix",
  "ConversionSoftwareVersion": "v1.0.20210317",
  "DerivedVendorReportedEchoSpacing": 0.000690017,
  "DeviceSerialNumber": "35450",
  "DwellTime": 2.5e-06,
  "EchoTime": 0.0348,
  "EffectiveEchoSpacing": 0.000690017,
  "FlipAngle": 55,
  "ImageComments": "Unaliased MB8/PE3",
  "ImageOrientationPatientDICOM": [0.999392, 0.000913672, -0.0348569, -2.24809e-08, 0.999657, 0.0262024],
  "ImageType": [
    "ORIGINAL",
    "PRIMARY",
    "M",
    "MB",
    "ND",
    "MOSAIC"
],
  "ImagingFrequency": 123.234,
  "InPlanePhaseEncodingDirectionDICOM": "COL",
  "InstitutionAddress": "Univeristy Ave. 197,Newark,North East,US,07102-1814",
  "InstitutionName": "RUBIC",
  "InstitutionalDepartmentName": "Department",
  "MRAcquisitionType": "2D",
  "MagneticFieldStrength": 3,
  "Manufacturer": "Siemens",
  "ManufacturersModelName": "TrioTim",
  "Modality": "MR",
  "MultibandAccelerationFactor": 8,
  "PartialFourier": 0.875,
  "PatientPosition": "HFS",
  "PercentPhaseFOV": 100,
  "PercentSampling": 100,
  "PhaseEncodingDirection": "j-",
  "PhaseEncodingSteps": 91,
  "PhaseResolution": 1,
  "PixelBandwidth": 1923,
  "ProcedureStepDescription": "Cole^Michael",
  "ProtocolName": "cmrr_mbep2d_bold_2mm_MB8_Task_8x",
  "PulseSequenceDetails": "%CustomerSeq%\\cmrr_mbep2d_bold",
  "ReceiveCoilName": "32Ch_Head",
  "ReconMatrixPE": 104,
  "RepetitionTime": 0.785,
  "SAR": 0.101925,
  "ScanOptions": "PFP\\FS",
  "ScanningSequence": "EP",
  "SequenceName": "epfid2d1_104",
  "SequenceVariant": "SK\\SS",
  "SeriesDescription": "cmrr_mbep2d_bold_2mm_MB8_Task_8x",
  "SeriesNumber": 19,
  "ShimSetting": [2118, -479, -7282, 508, 39, -90, -25, 7],
  "SliceThickness": 2,
  "SliceTiming": [0, 0.4375, 0.0875, 0.525, 0.175, 0.6125, 0.2625, 0.7, 0.35, 0, 0.4375, 0.0875, 0.525, 0.175, 0.6125, 0.2625, 0.7, 0.35, 0, 0.4375, 0.0875, 0.525, 0.175, 0.6125, 0.2625, 0.7, 0.35, 0, 0.4375, 0.0875, 0.525, 0.175, 0.6125, 0.2625, 0.7, 0.35, 0, 0.4375, 0.0875, 0.525, 0.175, 0.6125, 0.2625, 0.7, 0.35, 0, 0.4375, 0.0875, 0.525, 0.175, 0.6125, 0.2625, 0.7, 0.35, 0, 0.4375, 0.0875, 0.525, 0.175, 0.6125, 0.2625, 0.7, 0.35, 0, 0.4375, 0.0875, 0.525, 0.175, 0.6125, 0.2625, 0.7, 0.35],
  "SoftwareVersions": "syngo MR B19",
  "SpacingBetweenSlices": 2,
  "StationName": "MRC35450",
  "TaskName": "cpro",
  "TotalReadoutTime": 0.0710717,
  "TxRefAmp": 320.915,
  "dcmmeta_affine": [
    [-1.998783826828003, -4.496189021097052e-08, -0.06973776966333389, 103.71644592285156],
    [-0.0018273447640240192, 1.9993133544921875, 0.0523730143904686, -89.49043273925781],
    [-0.06971382349729538, -0.05240488424897194, 1.998097538948059, -82.93943786621094],
    [0.0, 0.0, 0.0, 1.0]
],
  "dcmmeta_reorient_transform": [
    [0.0, -1.0, 0.0, 103.0],
    [1.0, 0.0, 0.0, 0.0],
    [0.0, 0.0, 1.0, 0.0],
    [0.0, 0.0, 0.0, 1.0]
],
  "dcmmeta_shape": [104, 104, 72, 581],
  "dcmmeta_slice_dim": 2,
  "dcmmeta_version": 0.6,
  "global": {
    "const": {
      "AcquisitionMatrix": [104, 0, 0, 104],
      "AngioFlag": "N",
      "BitsAllocated": 16,
      "BitsStored": 12,
      "Columns": 936,
      "EchoNumbers": 1,
      "EchoTime": 34.8,
      "EchoTrainLength": 1,
      "FlipAngle": 55.0,
      "HighBit": 11,
      "ImageOrientationPatient": [0.99939189556644, 0.00091367238411, -0.0348569114939, -2.2480945e-08, 0.99965665706529, 0.02620244234897],
      "ImagePositionPatient": [-935.21048190906, -948.91335164193, -81.136622385695],
      "ImageType": [
        "ORIGINAL",
        "PRIMARY",
        "M",
        "MB",
        "ND",
        "MOSAIC"
],
      "ImagedNucleus": "1H",
      "ImagingFrequency": 123.23444,
      "InPlanePhaseEncodingDirection": "COL",
      "MRAcquisitionType": "2D",
      "MagneticFieldStrength": 3.0,
      "Manufacturer": "SIEMENS",
      "ManufacturerModelName": "TrioTim",
      "Modality": "MR",
      "NumberOfAverages": 1.0,
      "NumberOfPhaseEncodingSteps": 91,
      "PercentPhaseFieldOfView": 100.0,
      "PercentSampling": 100.0,
      "PerformedProcedureStepStartTime": "143528.906000",
      "PhotometricInterpretation": "MONOCHROME2",
      "PixelBandwidth": 1923.0,
      "PixelRepresentation": 0,
      "PixelSpacing": [2.0, 2.0],
      "ProtocolName": "cmrr_mbep2d_bold_2mm_MB8_Task_8x",
      "RepetitionTime": 785.0,
      "Rows": 936,
      "SAR": 0.10192484617951,
      "SamplesPerPixel": 1,
      "ScanOptions": [
        "PFP",
        "FS"
],
      "ScanningSequence": "EP",
      "SequenceName": "epfid2d1_104",
      "SequenceVariant": [
        "SK",
        "SS"
],
      "SeriesDescription": "cmrr_mbep2d_bold_2mm_MB8_Task_8x",
      "SeriesNumber": 19,
      "SeriesTime": "171637.906000",
      "SliceLocation": -88.820461143254,
      "SliceThickness": 2.0,
      "SmallestImagePixelValue": 0,
      "SoftwareVersions": "syngo MR B19",
      "SpacingBetweenSlices": 2.0000000176702,
      "SpecificCharacterSet": "ISO_IR 100",
      "StudyID": "1",
      "StudyTime": "143528.828000",
      "TransmitCoilName": "Body",
      "VariableFlipAngleFlag": "N",
      "WindowCenterWidthExplanation": "Algo1",
      "dBdt": 0.0},
    "slices": {}
  },
  "time": {
    "samples": {
      "AcquisitionNumber": [1, 2, 3, 4, 5, 6, 7, 8, 9, 10, 11, 12, 13, 14, 15, 16, 17, 18, 19, 20, 21, 22, 23, 24, 25, 26, 27, 28, 29, 30, 31, 32, 33, 34, 35, 36, 37, 38, 39, 40, 41, 42, 43, 44, 45, 46, 47, 48, 49, 50, 51, 52, 53, 54, 55, 56, 57, 58, 59, 60, 61, 62, 63, 64, 65, 66, 67, 68, 69, 70, 71, 72, 73, 74, 75, 76, 77, 78, 79, 80, 81, 82, 83, 84, 85, 86, 87, 88, 89, 90, 91, 92, 93, 94, 95, 96, 97, 98, 99, 100, 101, 102, 103, 104, 105, 106, 107, 108, 109, 110, 111, 112, 113, 114, 115, 116, 117, 118, 119, 120, 121, 122, 123, 124, 125, 126, 127, 128, 129, 130, 131, 132, 133, 134, 135, 136, 137, 138, 139, 140, 141, 142, 143, 144, 145, 146, 147, 148, 149, 150, 151, 152, 153, 154, 155, 156, 157, 158, 159, 160, 161, 162, 163, 164, 165, 166, 167, 168, 169, 170, 171, 172, 173, 174, 175, 176, 177, 178, 179, 180, 181, 182, 183, 184, 185, 186, 187, 188, 189, 190, 191, 192, 193, 194, 195, 196, 197, 198, 199, 200, 201, 202, 203, 204, 205, 206, 207, 208, 209, 210, 211, 212, 213, 214, 215, 216, 217, 218, 219, 220, 221, 222, 223, 224, 225, 226, 227, 228, 229, 230, 231, 232, 233, 234, 235, 236, 237, 238, 239, 240, 241, 242, 243, 244, 245, 246, 247, 248, 249, 250, 251, 252, 253, 254, 255, 256, 257, 258, 259, 260, 261, 262, 263, 264, 265, 266, 267, 268, 269, 270, 271, 272, 273, 274, 275, 276, 277, 278, 279, 280, 281, 282, 283, 284, 285, 286, 287, 288, 289, 290, 291, 292, 293, 294, 295, 296, 297, 298, 299, 300, 301, 302, 303, 304, 305, 306, 307, 308, 309, 310, 311, 312, 313, 314, 315, 316, 317, 318, 319, 320, 321, 322, 323, 324, 325, 326, 327, 328, 329, 330, 331, 332, 333, 334, 335, 336, 337, 338, 339, 340, 341, 342, 343, 344, 345, 346, 347, 348, 349, 350, 351, 352, 353, 354, 355, 356, 357, 358, 359, 360, 361, 362, 363, 364, 365, 366, 367, 368, 369, 370, 371, 372, 373, 374, 375, 376, 377, 378, 379, 380, 381, 382, 383, 384, 385, 386, 387, 388, 389, 390, 391, 392, 393, 394, 395, 396, 397, 398, 399, 400, 401, 402, 403, 404, 405, 406, 407, 408, 409, 410, 411, 412, 413, 414, 415, 416, 417, 418, 419, 420, 421, 422, 423, 424, 425, 426, 427, 428, 429, 430, 431, 432, 433, 434, 435, 436, 437, 438, 439, 440, 441, 442, 443, 444, 445, 446, 447, 448, 449, 450, 451, 452, 453, 454, 455, 456, 457, 458, 459, 460, 461, 462, 463, 464, 465, 466, 467, 468, 469, 470, 471, 472, 473, 474, 475, 476, 477, 478, 479, 480, 481, 482, 483, 484, 485, 486, 487, 488, 489, 490, 491, 492, 493, 494, 495, 496, 497, 498, 499, 500, 501, 502, 503, 504, 505, 506, 507, 508, 509, 510, 511, 512, 513, 514, 515, 516, 517, 518, 519, 520, 521, 522, 523, 524, 525, 526, 527, 528, 529, 530, 531, 532, 533, 534, 535, 536, 537, 538, 539, 540, 541, 542, 543, 544, 545, 546, 547, 548, 549, 550, 551, 552, 553, 554, 555, 556, 557, 558, 559, 560, 561, 562, 563, 564, 565, 566, 567, 568, 569, 570, 571, 572, 573, 574, 575, 576, 577, 578, 579, 580, 581],
      "AcquisitionTime": ["160706.785000", "160707.572500", "160708.360000", "160709.150000", "160709.937500", "160710.725000", "160711.512500", "160712.302500", "160713.090000", "160713.877500", "160714.665000", "160715.455000", "160716.242500", "160717.030000", "160717.817500", "160718.607500", "160719.395000", "160720.182500", "160720.970000", "160721.760000", "160722.547500", "160723.335000", "160724.122500", "160724.912500", "160725.700000", "160726.487500", "160727.277500", "160728.065000", "160728.852500", "160729.640000", "160730.430000", "160731.217500", "160732.005000", "160732.792500", "160733.582500", "160734.370000", "160735.157500", "160735.945000", "160736.735000", "160737.522500", "160738.310000", "160739.097500", "160739.887500", "160740.675000", "160741.462500", "160742.250000", "160743.040000", "160743.827500", "160744.615000", "160745.405000", "160746.192500", "160746.980000", "160747.767500", "160748.557500", "160749.345000", "160750.132500", "160750.920000", "160751.710000", "160752.497500", "160753.285000", "160754.072500", "160754.862500", "160755.650000", "160756.437500", "160757.225000", "160758.015000", "160758.802500", "160759.590000", "160800.377500", "160801.167500", "160801.955000", "160802.742500", "160803.532500", "160804.320000", "160805.107500", "160805.895000", "160806.685000", "160807.472500", "160808.260000", "160809.047500", "160809.837500", "160810.625000", "160811.412500", "160812.200000", "160812.990000", "160813.777500", "160814.565000", "160815.352500", "160816.142500", "160816.930000", "160817.717500", "160818.505000", "160819.295000", "160820.082500", "160820.870000", "160821.660000", "160822.447500", "160823.235000", "160824.022500", "160824.812500", "160825.600000", "160826.387500", "160827.175000", "160827.965000", "160828.752500", "160829.540000", "160830.327500", "160831.117500", "160831.905000", "160832.692500", "160833.480000", "160834.270000", "160835.057500", "160835.845000", "160836.635000", "160837.422500", "160838.210000", "160838.997500", "160839.787500", "160840.575000", "160841.362500", "160842.150000", "160842.940000", "160843.727500", "160844.515000", "160845.302500", "160846.092500", "160846.880000", "160847.667500", "160848.455000", "160849.245000", "160850.032500", "160850.820000", "160851.607500", "160852.397500", "160853.185000", "160853.972500", "160854.762500", "160855.550000", "160856.337500", "160857.125000", "160857.915000", "160858.702500", "160859.490000", "160900.277500", "160901.067500", "160901.855000", "160902.642500", "160903.430000", "160904.220000", "160905.007500", "160905.795000", "160906.582500", "160907.372500", "160908.160000", "160908.947500", "160909.735000", "160910.525000", "160911.312500", "160912.100000", "160912.890000", "160913.677500", "160914.465000", "160915.252500", "160916.042500", "160916.830000", "160917.617500", "160918.405000", "160919.195000", "160919.982500", "160920.770000", "160921.557500", "160922.347500", "160923.135000", "160923.922500", "160924.710000", "160925.500000", "160926.287500", "160927.075000", "160927.862500", "160928.652500", "160929.440000", "160930.227500", "160931.017500", "160931.805000", "160932.592500", "160933.380000", "160934.170000", "160934.957500", "160935.745000", "160936.532500", "160937.322500", "160938.110000", "160938.897500", "160939.685000", "160940.475000", "160941.262500", "160942.050000", "160942.837500", "160943.627500", "160944.415000", "160945.202500", "160945.990000", "160946.780000", "160947.567500", "160948.355000", "160949.145000", "160949.932500", "160950.720000", "160951.507500", "160952.297500", "160953.085000", "160953.872500", "160954.660000", "160955.450000", "160956.237500", "160957.025000", "160957.812500", "160958.602500", "160959.390000", "161000.177500", "161000.965000", "161001.755000", "161002.542500", "161003.330000", "161004.117500", "161004.907500", "161005.695000", "161006.482500", "161007.272500", "161008.060000", "161008.847500", "161009.635000", "161010.425000", "161011.212500", "161012.000000", "161012.787500", "161013.577500", "161014.365000", "161015.152500", "161015.940000", "161016.730000", "161017.517500", "161018.305000", "161019.092500", "161019.882500", "161020.670000", "161021.457500", "161022.245000", "161023.035000", "161023.822500", "161024.610000", "161025.400000", "161026.187500", "161026.975000", "161027.762500", "161028.552500", "161029.340000", "161030.127500", "161030.915000", "161031.705000", "161032.492500", "161033.280000", "161034.067500", "161034.857500", "161035.645000", "161036.432500", "161037.220000", "161038.010000", "161038.797500", "161039.585000", "161040.372500", "161041.162500", "161041.950000", "161042.737500", "161043.527500", "161044.315000", "161045.102500", "161045.890000", "161046.680000", "161047.467500", "161048.255000", "161049.042500", "161049.832500", "161050.620000", "161051.407500", "161052.195000", "161052.985000", "161053.772500", "161054.560000", "161055.347500", "161056.137500", "161056.925000", "161057.712500", "161058.500000", "161059.290000", "161100.077500", "161100.865000", "161101.655000", "161102.442500", "161103.230000", "161104.017500", "161104.807500", "161105.595000", "161106.382500", "161107.170000", "161107.960000", "161108.747500", "161109.535000", "161110.322500", "161111.112500", "161111.900000", "161112.687500", "161113.475000", "161114.265000", "161115.052500", "161115.840000", "161116.627500", "161117.417500", "161118.205000", "161118.992500", "161119.782500", "161120.570000", "161121.357500", "161122.145000", "161122.935000", "161123.722500", "161124.510000", "161125.297500", "161126.087500", "161126.875000", "161127.662500", "161128.450000", "161129.240000", "161130.027500", "161130.815000", "161131.602500", "161132.392500", "161133.180000", "161133.967500", "161134.755000", "161135.545000", "161136.332500", "161137.120000", "161137.910000", "161138.697500", "161139.485000", "161140.272500", "161141.062500", "161141.850000", "161142.637500", "161143.425000", "161144.215000", "161145.002500", "161145.790000", "161146.577500", "161147.367500", "161148.155000", "161148.942500", "161149.730000", "161150.520000", "161151.307500", "161152.095000", "161152.885000", "161153.672500", "161154.460000", "161155.247500", "161156.037500", "161156.825000", "161157.612500", "161158.400000", "161159.190000", "161159.977500", "161200.765000", "161201.552500", "161202.342500", "161203.130000", "161203.917500", "161204.705000", "161205.495000", "161206.282500", "161207.070000", "161207.857500", "161208.647500", "161209.435000", "161210.222500", "161211.012500", "161211.800000", "161212.587500", "161213.375000", "161214.165000", "161214.952500", "161215.740000", "161216.527500", "161217.317500", "161218.105000", "161218.892500", "161219.680000", "161220.470000", "161221.257500", "161222.045000", "161222.832500", "161223.622500", "161224.410000", "161225.197500", "161225.985000", "161226.775000", "161227.562500", "161228.350000", "161229.140000", "161229.927500", "161230.715000", "161231.502500", "161232.292500", "161233.080000", "161233.867500", "161234.655000", "161235.445000", "161236.232500", "161237.020000", "161237.807500", "161238.597500", "161239.385000", "161240.172500", "161240.960000", "161241.750000", "161242.537500", "161243.325000", "161244.112500", "161244.902500", "161245.690000", "161246.477500", "161247.267500", "161248.055000", "161248.842500", "161249.630000", "161250.420000", "161251.207500", "161251.995000", "161252.782500", "161253.572500", "161254.360000", "161255.147500", "161255.935000", "161256.725000", "161257.512500", "161258.300000", "161259.087500", "161259.877500", "161300.665000", "161301.452500", "161302.240000", "161303.030000", "161303.817500", "161304.605000", "161305.395000", "161306.182500", "161306.970000", "161307.757500", "161308.547500", "161309.335000", "161310.122500", "161310.910000", "161311.700000", "161312.487500", "161313.275000", "161314.062500", "161314.852500", "161315.640000", "161316.427500", "161317.215000", "161318.005000", "161318.792500", "161319.580000", "161320.367500", "161321.157500", "161321.945000", "161322.732500", "161323.522500", "161324.310000", "161325.097500", "161325.885000", "161326.675000", "161327.462500", "161328.250000", "161329.037500", "161329.827500", "161330.615000", "161331.402500", "161332.190000", "161332.980000", "161333.767500", "161334.555000", "161335.342500", "161336.132500", "161336.920000", "161337.707500", "161338.495000", "161339.285000", "161340.072500", "161340.860000", "161341.650000", "161342.437500", "161343.225000", "161344.012500", "161344.802500", "161345.590000", "161346.377500", "161347.165000", "161347.955000", "161348.742500", "161349.530000", "161350.317500", "161351.107500", "161351.895000", "161352.682500", "161353.470000", "161354.260000", "161355.047500", "161355.835000", "161356.622500", "161357.412500", "161358.200000", "161358.987500", "161359.777500", "161400.565000", "161401.352500", "161402.140000", "161402.930000", "161403.717500", "161404.505000", "161405.292500", "161406.082500", "161406.870000", "161407.657500", "161408.445000", "161409.235000", "161410.022500", "161410.810000", "161411.597500", "161412.387500", "161413.175000", "161413.962500", "161414.750000", "161415.540000", "161416.327500", "161417.115000", "161417.905000", "161418.692500", "161419.480000", "161420.267500", "161421.057500", "161421.845000", "161422.632500", "161423.420000", "161424.210000", "161424.997500", "161425.785000", "161426.572500", "161427.362500", "161428.150000", "161428.937500", "161429.725000", "161430.515000", "161431.302500", "161432.090000", "161432.877500", "161433.667500", "161434.455000", "161435.242500", "161436.032500", "161436.820000", "161437.607500", "161438.395000", "161439.185000", "161439.972500", "161440.760000", "161441.547500", "161442.337500", "161443.125000", "161443.912500"],
      "ContentTime": ["171637.906000", "171637.906000", "171637.906000", "171637.906000", "171637.906000", "171637.906000", "171637.921000", "171637.921000", "171637.921000", "171637.921000", "171637.921000", "171637.921000", "171637.921000", "171637.937000", "171637.937000", "171637.937000", "171637.937000", "171637.937000", "171637.937000", "171637.937000", "171717.906000", "171717.906000", "171717.906000", "171717.906000", "171717.906000", "171717.906000", "171717.906000", "171717.921000", "171717.921000", "171717.921000", "171717.921000", "171717.921000", "171717.921000", "171717.921000", "171717.937000", "171717.937000", "171717.937000", "171717.937000", "171717.937000", "171817.906000", "171817.906000", "171817.906000", "171817.906000", "171817.906000", "171817.906000", "171817.906000", "171817.921000", "171817.921000", "171817.921000", "171817.921000", "171817.921000", "171817.921000", "171817.921000", "171817.937000", "171817.937000", "171817.937000", "171817.937000", "171817.937000", "171817.937000", "171817.937000", "171817.953000", "171817.953000", "171817.953000", "171817.953000", "171817.953000", "171817.953000", "171817.953000", "171917.906000", "171917.906000", "171917.906000", "171917.906000", "171917.906000", "171917.906000", "171917.921000", "171917.921000", "171917.921000", "171917.921000", "171917.921000", "171917.921000", "171917.921000", "171917.937000", "171917.937000", "171917.937000", "171917.937000", "171917.937000", "171917.937000", "171917.937000", "171917.937000", "171917.953000", "171917.953000", "171917.953000", "171917.953000", "171917.953000", "171917.953000", "171917.968000", "172017.906000", "172017.906000", "172017.906000", "172017.906000", "172017.906000", "172017.906000", "172017.906000", "172017.921000", "172017.921000", "172017.921000", "172017.921000", "172017.921000", "172017.921000", "172017.921000", "172017.937000", "172017.937000", "172017.937000", "172017.937000", "172017.937000", "172017.937000", "172017.937000", "172017.953000", "172017.953000", "172017.953000", "172017.953000", "172017.968000", "172017.968000", "172017.968000", "172117.906000", "172117.906000", "172117.906000", "172117.906000", "172117.906000", "172117.906000", "172117.906000", "172117.921000", "172117.921000", "172117.921000", "172117.921000", "172117.921000", "172117.921000", "172117.937000", "172117.937000", "172117.937000", "172117.937000", "172117.937000", "172117.937000", "172117.937000", "172117.953000", "172117.953000", "172117.953000", "172117.953000", "172117.953000", "172117.968000", "172117.968000", "172117.968000", "172217.906000", "172217.906000", "172217.906000", "172217.906000", "172217.906000", "172217.906000", "172217.921000", "172217.921000", "172217.921000", "172217.921000", "172217.921000", "172217.921000", "172217.937000", "172217.937000", "172217.937000", "172217.937000", "172217.937000", "172217.937000", "172217.953000", "172217.953000", "172217.953000", "172217.953000", "172217.953000", "172217.953000", "172217.953000", "172217.968000", "172217.968000", "172217.968000", "172317.906000", "172317.906000", "172317.906000", "172317.906000", "172317.906000", "172317.906000", "172317.906000", "172317.921000", "172317.921000", "172317.921000", "172317.921000", "172317.921000", "172317.921000", "172317.921000", "172317.937000", "172317.937000", "172317.937000", "172317.937000", "172317.937000", "172317.937000", "172317.937000", "172317.953000", "172317.953000", "172317.953000", "172317.953000", "172317.953000", "172317.953000", "172317.953000", "172317.968000", "172417.906000", "172417.906000", "172417.906000", "172417.906000", "172417.906000", "172417.906000", "172417.906000", "172417.921000", "172417.921000", "172417.921000", "172417.921000", "172417.921000", "172417.921000", "172417.937000", "172417.937000", "172417.937000", "172417.937000", "172417.937000", "172417.937000", "172417.937000", "172417.953000", "172417.953000", "172417.953000", "172417.953000", "172417.953000", "172417.953000", "172417.953000", "172417.968000", "172517.906000", "172517.906000", "172517.906000", "172517.906000", "172517.906000", "172517.906000", "172517.921000", "172517.921000", "172517.921000", "172517.921000", "172517.921000", "172517.921000", "172517.921000", "172517.937000", "172517.937000", "172517.937000", "172517.937000", "172517.937000", "172517.937000", "172517.937000", "172517.953000", "172517.953000", "172517.953000", "172517.953000", "172517.953000", "172517.953000", "172517.953000", "172517.968000", "172617.906000", "172617.906000", "172617.906000", "172617.906000", "172617.906000", "172617.906000", "172617.906000", "172617.921000", "172617.921000", "172617.921000", "172617.921000", "172617.921000", "172617.921000", "172617.937000", "172617.937000", "172617.937000", "172617.937000", "172617.953000", "172617.953000", "172617.953000", "172617.953000", "172617.953000", "172617.953000", "172617.968000", "172617.968000", "172617.968000", "172617.968000", "172617.968000", "172657.906000", "172657.906000", "172657.906000", "172657.906000", "172657.906000", "172657.906000", "172657.921000", "172657.921000", "172657.921000", "172657.921000", "172657.921000", "172657.921000", "172657.921000", "172657.937000", "172657.937000", "172657.937000", "172657.937000", "172657.937000", "172657.937000", "172757.906000", "172757.906000", "172757.906000", "172757.906000", "172757.906000", "172757.906000", "172757.921000", "172757.921000", "172757.921000", "172757.921000", "172757.921000", "172757.921000", "172757.921000", "172757.937000", "172757.937000", "172757.937000", "172757.937000", "172757.937000", "172757.937000", "172757.937000", "172757.953000", "172757.953000", "172757.953000", "172757.953000", "172757.953000", "172757.953000", "172757.953000", "172757.968000", "172857.906000", "172857.906000", "172857.906000", "172857.906000", "172857.906000", "172857.906000", "172857.921000", "172857.921000", "172857.921000", "172857.921000", "172857.921000", "172857.921000", "172857.921000", "172857.921000", "172857.937000", "172857.937000", "172857.937000", "172857.937000", "172857.937000", "172857.937000", "172857.937000", "172857.953000", "172857.953000", "172857.953000", "172857.953000", "172857.953000", "172857.953000", "172857.968000", "172957.906000", "172957.906000", "172957.906000", "172957.906000", "172957.906000", "172957.906000", "172957.921000", "172957.921000", "172957.921000", "172957.921000", "172957.921000", "172957.921000", "172957.921000", "172957.937000", "172957.937000", "172957.937000", "172957.937000", "172957.937000", "172957.937000", "172957.937000", "172957.953000", "172957.953000", "172957.953000", "172957.953000", "172957.953000", "172957.953000", "172957.953000", "172957.968000", "172957.968000", "173057.906000", "173057.906000", "173057.906000", "173057.906000", "173057.906000", "173057.906000", "173057.906000", "173057.921000", "173057.921000", "173057.921000", "173057.921000", "173057.921000", "173057.921000", "173057.921000", "173057.937000", "173057.937000", "173057.937000", "173057.937000", "173057.937000", "173057.937000", "173057.953000", "173057.953000", "173057.953000", "173057.953000", "173057.953000", "173057.953000", "173057.953000", "173057.968000", "173157.906000", "173157.906000", "173157.906000", "173157.906000", "173157.906000", "173157.906000", "173157.921000", "173157.921000", "173157.921000", "173157.921000", "173157.921000", "173157.921000", "173157.921000", "173157.937000", "173157.937000", "173157.937000", "173157.937000", "173157.937000", "173157.937000", "173157.937000", "173157.953000", "173157.953000", "173157.953000", "173157.953000", "173157.953000", "173157.953000", "173157.953000", "173157.968000", "173257.906000", "173257.906000", "173257.906000", "173257.906000", "173257.906000", "173257.906000", "173257.921000", "173257.921000", "173257.921000", "173257.921000", "173257.921000", "173257.921000", "173257.921000", "173257.937000", "173257.937000", "173257.937000", "173257.937000", "173257.937000", "173257.937000", "173257.937000", "173257.953000", "173257.953000", "173257.953000", "173257.953000", "173257.953000", "173257.953000", "173257.953000", "173257.968000", "173357.906000", "173357.906000", "173357.906000", "173357.906000", "173357.906000", "173357.906000", "173357.921000", "173357.921000", "173357.921000", "173357.921000", "173357.921000", "173357.921000", "173357.921000", "173357.937000", "173357.937000", "173357.937000", "173357.937000", "173357.937000", "173357.937000", "173357.937000", "173357.953000", "173357.953000", "173357.953000", "173357.953000", "173357.953000", "173357.953000", "173357.953000", "173357.968000", "173457.906000", "173457.906000", "173457.906000", "173457.906000", "173457.906000", "173457.906000", "173457.906000", "173457.921000", "173457.921000", "173457.921000", "173457.921000", "173457.921000", "173457.921000", "173457.937000", "173457.937000", "173457.937000", "173457.937000", "173457.937000", "173457.937000", "173457.937000", "173457.953000", "173457.953000", "173457.953000", "173457.953000", "173457.953000", "173457.953000", "173457.953000", "173457.968000", "173457.968000", "173557.906000", "173557.906000", "173557.906000", "173557.906000", "173557.906000", "173557.906000", "173557.906000", "173557.921000", "173557.921000", "173557.921000", "173557.921000", "173557.921000", "173557.921000", "173557.937000", "173557.937000", "173557.937000", "173557.937000", "173557.937000", "173557.937000", "173557.937000", "173557.953000", "173557.953000", "173557.953000", "173557.953000", "173557.953000", "173557.953000", "173557.953000", "173557.968000", "173631.375000", "173631.375000", "173631.375000", "173631.375000", "173631.375000", "173631.375000", "173631.390000", "173631.390000", "173631.390000", "173631.390000", "173631.390000", "173631.390000", "173631.390000", "173631.406000", "173631.406000", "173631.406000"],
      "DataSetTrailingPadding": [
        "\u0000\u0000\u0000\u0000\u0000\u0000\u0000\u0000\u0000\u0000\u0000\u0000\u0000\u0000\u0000\u0000\u0000\u0000\u0000\u0000\u0000\u0000\u0000\u0000\u0000\u0000\u0000\u0000\u0000\u0000\u0000\u0000\u0000\u0000\u0000\u0000\u0000\u0000\u0000\u0000\u0000\u0000\u0000\u0000\u0000\u0000\u0000\u0000\u0000\u0000\u0000\u0000\u0000\u0000\u0000\u0000\u0000\u0000\u0000\u0000\u0000\u0000",
        "\u0000\u0000\u0000\u0000\u0000\u0000\u0000\u0000\u0000\u0000\u0000\u0000\u0000\u0000\u0000\u0000\u0000\u0000\u0000\u0000\u0000\u0000\u0000\u0000\u0000\u0000\u0000\u0000\u0000\u0000\u0000\u0000\u0000\u0000\u0000\u0000\u0000\u0000\u0000\u0000\u0000\u0000\u0000\u0000\u0000\u0000\u0000\u0000\u0000\u0000\u0000\u0000\u0000\u0000\u0000\u0000\u0000\u0000\u0000\u0000\u0000\u0000",
        "\u0000\u0000\u0000\u0000\u0000\u0000\u0000\u0000\u0000\u0000\u0000\u0000\u0000\u0000\u0000\u0000\u0000\u0000\u0000\u0000\u0000\u0000\u0000\u0000\u0000\u0000\u0000\u0000\u0000\u0000\u0000\u0000\u0000\u0000\u0000\u0000\u0000\u0000\u0000\u0000\u0000\u0000\u0000\u0000\u0000\u0000\u0000\u0000\u0000\u0000\u0000\u0000\u0000\u0000\u0000\u0000\u0000\u0000\u0000\u0000",
        "\u0000\u0000\u0000\u0000\u0000\u0000\u0000\u0000\u0000\u0000\u0000\u0000\u0000\u0000\u0000\u0000\u0000\u0000\u0000\u0000\u0000\u0000\u0000\u0000\u0000\u0000\u0000\u0000\u0000\u0000\u0000\u0000\u0000\u0000\u0000\u0000\u0000\u0000\u0000\u0000\u0000\u0000\u0000\u0000\u0000\u0000\u0000\u0000\u0000\u0000\u0000\u0000\u0000\u0000\u0000\u0000\u0000\u0000\u0000\u0000\u0000\u0000\u0000\u0000",
        "\u0000\u0000\u0000\u0000\u0000\u0000\u0000\u0000\u0000\u0000\u0000\u0000\u0000\u0000\u0000\u0000\u0000\u0000\u0000\u0000\u0000\u0000\u0000\u0000\u0000\u0000\u0000\u0000\u0000\u0000\u0000\u0000\u0000\u0000\u0000\u0000\u0000\u0000\u0000\u0000\u0000\u0000\u0000\u0000\u0000\u0000\u0000\u0000\u0000\u0000\u0000\u0000\u0000\u0000\u0000\u0000\u0000\u0000\u0000\u0000\u0000\u0000",
