{
  "AcquisitionMatrixPE": 104,
  "AcquisitionNumber": 1,
  "AcquisitionTime": "15:18:30.567500",
  "BandwidthPerPixelPhaseEncode": 13.935,
  "BaseResolution": 104,
  "CoilString": "C:HEA;HEP",
  "ConversionSoftware": "dcm2niix",
  "ConversionSoftwareVersion": "v1.0.20210317",
  "DerivedVendorReportedEchoSpacing": 0.000690017,
  "DeviceSerialNumber": "35450",
  "DwellTime": 2.5e-06,
  "EchoTime": 0.0348,
  "EffectiveEchoSpacing": 0.000690017,
  "FlipAngle": 55,
  "ImageComments": "Unaliased MB8/PE3",
  "ImageOrientationPatientDICOM": [0.999392, 0.000913672, -0.0348569, -2.24809e-08, 0.999657, 0.0262024],
  "ImageType": [
    "ORIGINAL",
    "PRIMARY",
    "M",
    "MB",
    "ND",
    "MOSAIC"
],
  "ImagingFrequency": 123.234,
  "InPlanePhaseEncodingDirectionDICOM": "COL",
  "InstitutionAddress": "Univeristy Ave. 197,Newark,North East,US,07102-1814",
  "InstitutionName": "RUBIC",
  "InstitutionalDepartmentName": "Department",
  "MRAcquisitionType": "2D",
  "MagneticFieldStrength": 3,
  "Manufacturer": "Siemens",
  "ManufacturersModelName": "TrioTim",
  "Modality": "MR",
  "MultibandAccelerationFactor": 8,
  "PartialFourier": 0.875,
  "PatientPosition": "HFS",
  "PercentPhaseFOV": 100,
  "PercentSampling": 100,
  "PhaseEncodingDirection": "j-",
  "PhaseEncodingSteps": 91,
  "PhaseResolution": 1,
  "PixelBandwidth": 1923,
  "ProcedureStepDescription": "Cole^Michael",
  "ProtocolName": "cmrr_mbep2d_bold_2mm_MB8_Rest",
  "PulseSequenceDetails": "%CustomerSeq%\\cmrr_mbep2d_bold",
  "ReceiveCoilName": "32Ch_Head",
  "ReconMatrixPE": 104,
  "RepetitionTime": 0.785,
  "SAR": 0.112832,
  "ScanOptions": "PFP\\FS",
  "ScanningSequence": "EP",
  "SequenceName": "epfid2d1_104",
  "SequenceVariant": "SK\\SS",
  "SeriesDescription": "cmrr_mbep2d_bold_2mm_MB8_Rest",
  "SeriesNumber": 9,
  "ShimSetting": [2118, -479, -7282, 508, 39, -90, -25, 7],
  "SliceThickness": 2,
  "SliceTiming": [0, 0.44, 0.0875, 0.5275, 0.175, 0.615, 0.2625, 0.7025, 0.3525, 0, 0.44, 0.0875, 0.5275, 0.175, 0.615, 0.2625, 0.7025, 0.3525, 0, 0.44, 0.0875, 0.5275, 0.175, 0.615, 0.2625, 0.7025, 0.3525, 0, 0.44, 0.0875, 0.5275, 0.175, 0.615, 0.2625, 0.7025, 0.3525, 0, 0.44, 0.0875, 0.5275, 0.175, 0.615, 0.2625, 0.7025, 0.3525, 0, 0.44, 0.0875, 0.5275, 0.175, 0.615, 0.2625, 0.7025, 0.3525, 0, 0.44, 0.0875, 0.5275, 0.175, 0.615, 0.2625, 0.7025, 0.3525, 0, 0.44, 0.0875, 0.5275, 0.175, 0.615, 0.2625, 0.7025, 0.3525],
  "SoftwareVersions": "syngo MR B19",
  "SpacingBetweenSlices": 2,
  "StationName": "MRC35450",
  "TaskName": "rest",
  "TotalReadoutTime": 0.0710717,
  "TxRefAmp": 320.915,
  "dcmmeta_affine": [
    [-1.998783826828003, -4.496189021097052e-08, -0.06973776966333389, 103.71644592285156],
    [-0.0018273447640240192, 1.9993133544921875, 0.0523730143904686, -89.49043273925781],
    [-0.06971382349729538, -0.05240488424897194, 1.998097538948059, -82.93943786621094],
    [0.0, 0.0, 0.0, 1.0]
],
  "dcmmeta_reorient_transform": [
    [0.0, -1.0, 0.0, 103.0],
    [1.0, 0.0, 0.0, 0.0],
    [0.0, 0.0, 1.0, 0.0],
    [0.0, 0.0, 0.0, 1.0]
],
  "dcmmeta_shape": [104, 104, 72, 1070],
  "dcmmeta_slice_dim": 2,
  "dcmmeta_version": 0.6,
  "global": {
    "const": {
      "AcquisitionMatrix": [104, 0, 0, 104],
      "AngioFlag": "N",
      "BitsAllocated": 16,
      "BitsStored": 12,
      "Columns": 936,
      "EchoNumbers": 1,
      "EchoTime": 34.8,
      "EchoTrainLength": 1,
      "FlipAngle": 55.0,
      "HighBit": 11,
      "ImageOrientationPatient": [0.99939189556644, 0.00091367238411, -0.0348569114939, -2.2480945e-08, 0.99965665706529, 0.02620244234897],
      "ImagePositionPatient": [-935.21048190906, -948.91335164193, -81.136622385695],
      "ImageType": [
        "ORIGINAL",
        "PRIMARY",
        "M",
        "MB",
        "ND",
        "MOSAIC"
],
      "ImagedNucleus": "1H",
      "ImagingFrequency": 123.234376,
      "InPlanePhaseEncodingDirection": "COL",
      "MRAcquisitionType": "2D",
      "MagneticFieldStrength": 3.0,
      "Manufacturer": "SIEMENS",
      "ManufacturerModelName": "TrioTim",
      "Modality": "MR",
      "NumberOfAverages": 1.0,
      "NumberOfPhaseEncodingSteps": 91,
      "PercentPhaseFieldOfView": 100.0,
      "PercentSampling": 100.0,
      "PerformedProcedureStepStartTime": "143528.906000",
      "PhotometricInterpretation": "MONOCHROME2",
      "PixelBandwidth": 1923.0,
      "PixelRepresentation": 0,
      "PixelSpacing": [2.0, 2.0],
      "ProtocolName": "cmrr_mbep2d_bold_2mm_MB8_Rest",
      "RepetitionTime": 785.0,
      "Rows": 936,
      "SAR": 0.11283184407262,
      "SamplesPerPixel": 1,
      "ScanOptions": [
        "PFP",
        "FS"
],
      "ScanningSequence": "EP",
      "SequenceName": "epfid2d1_104",
      "SequenceVariant": [
        "SK",
        "SS"
],
      "SeriesDescription": "cmrr_mbep2d_bold_2mm_MB8_Rest",
      "SeriesNumber": 9,
      "SeriesTime": "151946.828000",
      "SliceLocation": -88.820461143254,
      "SliceThickness": 2.0,
      "SmallestImagePixelValue": 0,
      "SoftwareVersions": "syngo MR B19",
      "SpacingBetweenSlices": 2.0000000176702,
      "SpecificCharacterSet": "ISO_IR 100",
      "StudyID": "1",
      "StudyTime": "143528.828000",
      "TransmitCoilName": "Body",
      "VariableFlipAngleFlag": "N",
      "WindowCenterWidthExplanation": "Algo1",
      "dBdt": 0.0},
    "slices": {}
  },
  "time": {
    "samples": {
      "AcquisitionNumber": [1, 2, 3, 4, 5, 6, 7, 8, 9, 10, 11, 12, 13, 14, 15, 16, 17, 18, 19, 20, 21, 22, 23, 24, 25, 26, 27, 28, 29, 30, 31, 32, 33, 34, 35, 36, 37, 38, 39, 40, 41, 42, 43, 44, 45, 46, 47, 48, 49, 50, 51, 52, 53, 54, 55, 56, 57, 58, 59, 60, 61, 62, 63, 64, 65, 66, 67, 68, 69, 70, 71, 72, 73, 74, 75, 76, 77, 78, 79, 80, 81, 82, 83, 84, 85, 86, 87, 88, 89, 90, 91, 92, 93, 94, 95, 96, 97, 98, 99, 100, 101, 102, 103, 104, 105, 106, 107, 108, 109, 110, 111, 112, 113, 114, 115, 116, 117, 118, 119, 120, 121, 122, 123, 124, 125, 126, 127, 128, 129, 130, 131, 132, 133, 134, 135, 136, 137, 138, 139, 140, 141, 142, 143, 144, 145, 146, 147, 148, 149, 150, 151, 152, 153, 154, 155, 156, 157, 158, 159, 160, 161, 162, 163, 164, 165, 166, 167, 168, 169, 170, 171, 172, 173, 174, 175, 176, 177, 178, 179, 180, 181, 182, 183, 184, 185, 186, 187, 188, 189, 190, 191, 192, 193, 194, 195, 196, 197, 198, 199, 200, 201, 202, 203, 204, 205, 206, 207, 208, 209, 210, 211, 212, 213, 214, 215, 216, 217, 218, 219, 220, 221, 222, 223, 224, 225, 226, 227, 228, 229, 230, 231, 232, 233, 234, 235, 236, 237, 238, 239, 240, 241, 242, 243, 244, 245, 246, 247, 248, 249, 250, 251, 252, 253, 254, 255, 256, 257, 258, 259, 260, 261, 262, 263, 264, 265, 266, 267, 268, 269, 270, 271, 272, 273, 274, 275, 276, 277, 278, 279, 280, 281, 282, 283, 284, 285, 286, 287, 288, 289, 290, 291, 292, 293, 294, 295, 296, 297, 298, 299, 300, 301, 302, 303, 304, 305, 306, 307, 308, 309, 310, 311, 312, 313, 314, 315, 316, 317, 318, 319, 320, 321, 322, 323, 324, 325, 326, 327, 328, 329, 330, 331, 332, 333, 334, 335, 336, 337, 338, 339, 340, 341, 342, 343, 344, 345, 346, 347, 348, 349, 350, 351, 352, 353, 354, 355, 356, 357, 358, 359, 360, 361, 362, 363, 364, 365, 366, 367, 368, 369, 370, 371, 372, 373, 374, 375, 376, 377, 378, 379, 380, 381, 382, 383, 384, 385, 386, 387, 388, 389, 390, 391, 392, 393, 394, 395, 396, 397, 398, 399, 400, 401, 402, 403, 404, 405, 406, 407, 408, 409, 410, 411, 412, 413, 414, 415, 416, 417, 418, 419, 420, 421, 422, 423, 424, 425, 426, 427, 428, 429, 430, 431, 432, 433, 434, 435, 436, 437, 438, 439, 440, 441, 442, 443, 444, 445, 446, 447, 448, 449, 450, 451, 452, 453, 454, 455, 456, 457, 458, 459, 460, 461, 462, 463, 464, 465, 466, 467, 468, 469, 470, 471, 472, 473, 474, 475, 476, 477, 478, 479, 480, 481, 482, 483, 484, 485, 486, 487, 488, 489, 490, 491, 492, 493, 494, 495, 496, 497, 498, 499, 500, 501, 502, 503, 504, 505, 506, 507, 508, 509, 510, 511, 512, 513, 514, 515, 516, 517, 518, 519, 520, 521, 522, 523, 524, 525, 526, 527, 528, 529, 530, 531, 532, 533, 534, 535, 536, 537, 538, 539, 540, 541, 542, 543, 544, 545, 546, 547, 548, 549, 550, 551, 552, 553, 554, 555, 556, 557, 558, 559, 560, 561, 562, 563, 564, 565, 566, 567, 568, 569, 570, 571, 572, 573, 574, 575, 576, 577, 578, 579, 580, 581, 582, 583, 584, 585, 586, 587, 588, 589, 590, 591, 592, 593, 594, 595, 596, 597, 598, 599, 600, 601, 602, 603, 604, 605, 606, 607, 608, 609, 610, 611, 612, 613, 614, 615, 616, 617, 618, 619, 620, 621, 622, 623, 624, 625, 626, 627, 628, 629, 630, 631, 632, 633, 634, 635, 636, 637, 638, 639, 640, 641, 642, 643, 644, 645, 646, 647, 648, 649, 650, 651, 652, 653, 654, 655, 656, 657, 658, 659, 660, 661, 662, 663, 664, 665, 666, 667, 668, 669, 670, 671, 672, 673, 674, 675, 676, 677, 678, 679, 680, 681, 682, 683, 684, 685, 686, 687, 688, 689, 690, 691, 692, 693, 694, 695, 696, 697, 698, 699, 700, 701, 702, 703, 704, 705, 706, 707, 708, 709, 710, 711, 712, 713, 714, 715, 716, 717, 718, 719, 720, 721, 722, 723, 724, 725, 726, 727, 728, 729, 730, 731, 732, 733, 734, 735, 736, 737, 738, 739, 740, 741, 742, 743, 744, 745, 746, 747, 748, 749, 750, 751, 752, 753, 754, 755, 756, 757, 758, 759, 760, 761, 762, 763, 764, 765, 766, 767, 768, 769, 770, 771, 772, 773, 774, 775, 776, 777, 778, 779, 780, 781, 782, 783, 784, 785, 786, 787, 788, 789, 790, 791, 792, 793, 794, 795, 796, 797, 798, 799, 800, 801, 802, 803, 804, 805, 806, 807, 808, 809, 810, 811, 812, 813, 814, 815, 816, 817, 818, 819, 820, 821, 822, 823, 824, 825, 826, 827, 828, 829, 830, 831, 832, 833, 834, 835, 836, 837, 838, 839, 840, 841, 842, 843, 844, 845, 846, 847, 848, 849, 850, 851, 852, 853, 854, 855, 856, 857, 858, 859, 860, 861, 862, 863, 864, 865, 866, 867, 868, 869, 870, 871, 872, 873, 874, 875, 876, 877, 878, 879, 880, 881, 882, 883, 884, 885, 886, 887, 888, 889, 890, 891, 892, 893, 894, 895, 896, 897, 898, 899, 900, 901, 902, 903, 904, 905, 906, 907, 908, 909, 910, 911, 912, 913, 914, 915, 916, 917, 918, 919, 920, 921, 922, 923, 924, 925, 926, 927, 928, 929, 930, 931, 932, 933, 934, 935, 936, 937, 938, 939, 940, 941, 942, 943, 944, 945, 946, 947, 948, 949, 950, 951, 952, 953, 954, 955, 956, 957, 958, 959, 960, 961, 962, 963, 964, 965, 966, 967, 968, 969, 970, 971, 972, 973, 974, 975, 976, 977, 978, 979, 980, 981, 982, 983, 984, 985, 986, 987, 988, 989, 990, 991, 992, 993, 994, 995, 996, 997, 998, 999, 1000, 1001, 1002, 1003, 1004, 1005, 1006, 1007, 1008, 1009, 1010, 1011, 1012, 1013, 1014, 1015, 1016, 1017, 1018, 1019, 1020, 1021, 1022, 1023, 1024, 1025, 1026, 1027, 1028, 1029, 1030, 1031, 1032, 1033, 1034, 1035, 1036, 1037, 1038, 1039, 1040, 1041, 1042, 1043, 1044, 1045, 1046, 1047, 1048, 1049, 1050, 1051, 1052, 1053, 1054, 1055, 1056, 1057, 1058, 1059, 1060, 1061, 1062, 1063, 1064, 1065, 1066, 1067, 1068, 1069, 1070],
      "AcquisitionTime": ["151830.567500", "151831.357500", "151832.145000", "151832.932500", "151833.722500", "151834.510000", "151835.297500", "151836.085000", "151836.875000", "151837.662500", "151838.450000", "151839.237500", "151840.027500", "151840.815000", "151841.602500", "151842.390000", "151843.180000", "151843.967500", "151844.755000", "151845.542500", "151846.332500", "151847.120000", "151847.907500", "151848.695000", "151849.485000", "151850.272500", "151851.060000", "151851.850000", "151852.637500", "151853.425000", "151854.212500", "151855.002500", "151855.790000", "151856.577500", "151857.365000", "151858.155000", "151858.942500", "151859.730000", "151900.517500", "151901.307500", "151902.095000", "151902.882500", "151903.670000", "151904.460000", "151905.247500", "151906.035000", "151906.822500", "151907.612500", "151908.400000", "151909.187500", "151909.977500", "151910.765000", "151911.552500", "151912.340000", "151913.130000", "151913.917500", "151914.705000", "151915.492500", "151916.282500", "151917.070000", "151917.857500", "151918.645000", "151919.435000", "151920.222500", "151921.010000", "151921.797500", "151922.587500", "151923.375000", "151924.162500", "151924.950000", "151925.740000", "151926.527500", "151927.315000", "151928.105000", "151928.892500", "151929.680000", "151930.467500", "151931.257500", "151932.045000", "151932.832500", "151933.620000", "151934.410000", "151935.197500", "151935.985000", "151936.772500", "151937.562500", "151938.350000", "151939.137500", "151939.925000", "151940.715000", "151941.502500", "151942.290000", "151943.077500", "151943.867500", "151944.655000", "151945.442500", "151946.232500", "151947.020000", "151947.807500", "151948.595000", "151949.385000", "151950.172500", "151950.960000", "151951.747500", "151952.537500", "151953.325000", "151954.112500", "151954.900000", "151955.690000", "151956.477500", "151957.265000", "151958.052500", "151958.842500", "151959.630000", "152000.417500", "152001.205000", "152001.995000", "152002.782500", "152003.570000", "152004.360000", "152005.147500", "152005.935000", "152006.722500", "152007.512500", "152008.300000", "152009.087500", "152009.875000", "152010.665000", "152011.452500", "152012.240000", "152013.027500", "152013.817500", "152014.605000", "152015.392500", "152016.180000", "152016.970000", "152017.757500", "152018.545000", "152019.332500", "152020.122500", "152020.910000", "152021.697500", "152022.487500", "152023.275000", "152024.062500", "152024.850000", "152025.640000", "152026.427500", "152027.215000", "152028.002500", "152028.792500", "152029.580000", "152030.367500", "152031.155000", "152031.945000", "152032.732500", "152033.520000", "152034.307500", "152035.097500", "152035.885000", "152036.672500", "152037.460000", "152038.250000", "152039.037500", "152039.825000", "152040.615000", "152041.402500", "152042.190000", "152042.977500", "152043.767500", "152044.555000", "152045.342500", "152046.130000", "152046.920000", "152047.707500", "152048.495000", "152049.282500", "152050.072500", "152050.860000", "152051.647500", "152052.435000", "152053.225000", "152054.012500", "152054.800000", "152055.587500", "152056.377500", "152057.165000", "152057.952500", "152058.742500", "152059.530000", "152100.317500", "152101.105000", "152101.895000", "152102.682500", "152103.470000", "152104.257500", "152105.047500", "152105.835000", "152106.622500", "152107.410000", "152108.200000", "152108.987500", "152109.775000", "152110.562500", "152111.352500", "152112.140000", "152112.927500", "152113.715000", "152114.505000", "152115.292500", "152116.080000", "152116.870000", "152117.657500", "152118.445000", "152119.232500", "152120.022500", "152120.810000", "152121.597500", "152122.385000", "152123.175000", "152123.962500", "152124.750000", "152125.537500", "152126.327500", "152127.115000", "152127.902500", "152128.690000", "152129.480000", "152130.267500", "152131.055000", "152131.842500", "152132.632500", "152133.420000", "152134.207500", "152134.997500", "152135.785000", "152136.572500", "152137.360000", "152138.150000", "152138.937500", "152139.725000", "152140.512500", "152141.302500", "152142.090000", "152142.877500", "152143.665000", "152144.455000", "152145.242500", "152146.030000", "152146.817500", "152147.607500", "152148.395000", "152149.182500", "152149.972500", "152150.760000", "152151.547500", "152152.335000", "152153.125000", "152153.912500", "152154.700000", "152155.487500", "152156.277500", "152157.065000", "152157.852500", "152158.640000", "152159.430000", "152200.217500", "152201.005000", "152201.792500", "152202.582500", "152203.370000", "152204.157500", "152204.945000", "152205.735000", "152206.522500", "152207.310000", "152208.100000", "152208.887500", "152209.675000", "152210.462500", "152211.252500", "152212.040000", "152212.827500", "152213.615000", "152214.405000", "152215.192500", "152215.980000", "152216.767500", "152217.557500", "152218.345000", "152219.132500", "152219.920000", "152220.710000", "152221.497500", "152222.285000", "152223.072500", "152223.862500", "152224.650000", "152225.437500", "152226.227500", "152227.015000", "152227.802500", "152228.590000", "152229.380000", "152230.167500", "152230.955000", "152231.742500", "152232.532500", "152233.320000", "152234.107500", "152234.895000", "152235.685000", "152236.472500", "152237.260000", "152238.047500", "152238.837500", "152239.625000", "152240.412500", "152241.200000", "152241.990000", "152242.777500", "152243.565000", "152244.355000", "152245.142500", "152245.930000", "152246.717500", "152247.507500", "152248.295000", "152249.082500", "152249.870000", "152250.660000", "152251.447500", "152252.235000", "152253.022500", "152253.812500", "152254.600000", "152255.387500", "152256.175000", "152256.965000", "152257.752500", "152258.540000", "152259.327500", "152300.117500", "152300.905000", "152301.692500", "152302.482500", "152303.270000", "152304.057500", "152304.845000", "152305.635000", "152306.422500", "152307.210000", "152307.997500", "152308.787500", "152309.575000", "152310.362500", "152311.150000", "152311.940000", "152312.727500", "152313.515000", "152314.302500", "152315.092500", "152315.880000", "152316.667500", "152317.455000", "152318.245000", "152319.032500", "152319.820000", "152320.610000", "152321.397500", "152322.185000", "152322.972500", "152323.762500", "152324.550000", "152325.337500", "152326.125000", "152326.915000", "152327.702500", "152328.490000", "152329.277500", "152330.067500", "152330.855000", "152331.642500", "152332.430000", "152333.220000", "152334.007500", "152334.795000", "152335.582500", "152336.372500", "152337.160000", "152337.947500", "152338.737500", "152339.525000", "152340.312500", "152341.100000", "152341.890000", "152342.677500", "152343.465000", "152344.252500", "152345.042500", "152345.830000", "152346.617500", "152347.405000", "152348.195000", "152348.982500", "152349.770000", "152350.557500", "152351.347500", "152352.135000", "152352.922500", "152353.710000", "152354.500000", "152355.287500", "152356.075000", "152356.865000", "152357.652500", "152358.440000", "152359.227500", "152400.017500", "152400.805000", "152401.592500", "152402.380000", "152403.170000", "152403.957500", "152404.745000", "152405.532500", "152406.322500", "152407.110000", "152407.897500", "152408.685000", "152409.475000", "152410.262500", "152411.050000", "152411.837500", "152412.627500", "152413.415000", "152414.202500", "152414.992500", "152415.780000", "152416.567500", "152417.355000", "152418.145000", "152418.932500", "152419.720000", "152420.507500", "152421.297500", "152422.085000", "152422.872500", "152423.660000", "152424.450000", "152425.237500", "152426.025000", "152426.812500", "152427.602500", "152428.390000", "152429.177500", "152429.965000", "152430.755000", "152431.542500", "152432.330000", "152433.120000", "152433.907500", "152434.695000", "152435.482500", "152436.272500", "152437.060000", "152437.847500", "152438.635000", "152439.425000", "152440.212500", "152441.000000", "152441.787500", "152442.577500", "152443.365000", "152444.152500", "152444.940000", "152445.730000", "152446.517500", "152447.305000", "152448.092500", "152448.882500", "152449.670000", "152450.457500", "152451.247500", "152452.035000", "152452.822500", "152453.610000", "152454.400000", "152455.187500", "152455.975000", "152456.762500", "152457.552500", "152458.340000", "152459.127500", "152459.915000", "152500.705000", "152501.492500", "152502.280000", "152503.067500", "152503.857500", "152504.645000", "152505.432500", "152506.222500", "152507.010000", "152507.797500", "152508.585000", "152509.375000", "152510.162500", "152510.950000", "152511.737500", "152512.527500", "152513.315000", "152514.102500", "152514.890000", "152515.680000", "152516.467500", "152517.255000", "152518.042500", "152518.832500", "152519.620000", "152520.407500", "152521.195000", "152521.985000", "152522.772500", "152523.560000", "152524.350000", "152525.137500", "152525.925000", "152526.712500", "152527.502500", "152528.290000", "152529.077500", "152529.865000", "152530.655000", "152531.442500", "152532.230000", "152533.017500", "152533.807500", "152534.595000", "152535.382500", "152536.170000", "152536.960000", "152537.747500", "152538.535000", "152539.322500", "152540.112500", "152540.900000", "152541.687500", "152542.477500", "152543.265000", "152544.052500", "152544.840000", "152545.630000", "152546.417500", "152547.205000", "152547.992500", "152548.782500", "152549.570000", "152550.357500", "152551.145000", "152551.935000", "152552.722500", "152553.510000", "152554.297500", "152555.087500", "152555.875000", "152556.662500", "152557.450000", "152558.240000", "152559.027500", "152559.815000", "152600.605000", "152601.392500", "152602.180000", "152602.967500", "152603.757500", "152604.545000", "152605.332500", "152606.120000", "152606.910000", "152607.697500", "152608.485000", "152609.272500", "152610.062500", "152610.850000", "152611.637500", "152612.425000", "152613.215000", "152614.002500", "152614.790000", "152615.577500", "152616.367500", "152617.155000", "152617.942500", "152618.732500", "152619.520000", "152620.307500", "152621.095000", "152621.885000", "152622.672500", "152623.460000", "152624.247500", "152625.037500", "152625.825000", "152626.612500", "152627.400000", "152628.190000", "152628.977500", "152629.765000", "152630.552500", "152631.342500", "152632.130000", "152632.917500", "152633.705000", "152634.495000", "152635.282500", "152636.070000", "152636.860000", "152637.647500", "152638.435000", "152639.222500", "152640.012500", "152640.800000", "152641.587500", "152642.375000", "152643.165000", "152643.952500", "152644.740000", "152645.527500", "152646.317500", "152647.105000", "152647.892500", "152648.680000", "152649.470000", "152650.257500", "152651.045000", "152651.832500", "152652.622500", "152653.410000", "152654.197500", "152654.987500", "152655.775000", "152656.562500", "152657.350000", "152658.140000", "152658.927500", "152659.715000", "152700.502500", "152701.292500", "152702.080000", "152702.867500", "152703.655000", "152704.445000", "152705.232500", "152706.020000", "152706.807500", "152707.597500", "152708.385000", "152709.172500", "152709.960000", "152710.750000", "152711.537500", "152712.325000", "152713.115000", "152713.902500", "152714.690000", "152715.477500", "152716.267500", "152717.055000", "152717.842500", "152718.630000", "152719.420000", "152720.207500", "152720.995000", "152721.782500", "152722.572500", "152723.360000", "152724.147500", "152724.935000", "152725.725000", "152726.512500", "152727.300000", "152728.087500", "152728.877500", "152729.665000", "152730.452500", "152731.242500", "152732.030000", "152732.817500", "152733.605000", "152734.395000", "152735.182500", "152735.970000", "152736.757500", "152737.547500", "152738.335000", "152739.122500", "152739.910000", "152740.700000", "152741.487500", "152742.275000", "152743.062500", "152743.852500", "152744.640000", "152745.427500", "152746.215000", "152747.005000", "152747.792500", "152748.580000", "152749.370000", "152750.157500", "152750.945000", "152751.732500", "152752.522500", "152753.310000", "152754.097500", "152754.885000", "152755.675000", "152756.462500", "152757.250000", "152758.037500", "152758.827500", "152759.615000", "152800.402500", "152801.190000", "152801.980000", "152802.767500", "152803.555000", "152804.342500", "152805.132500", "152805.920000", "152806.707500", "152807.497500", "152808.285000", "152809.072500", "152809.860000", "152810.650000", "152811.437500", "152812.225000", "152813.012500", "152813.802500", "152814.590000", "152815.377500", "152816.165000", "152816.955000", "152817.742500", "152818.530000", "152819.317500", "152820.107500", "152820.895000", "152821.682500", "152822.472500", "152823.260000", "152824.047500", "152824.835000", "152825.625000", "152826.412500", "152827.200000", "152827.987500", "152828.777500", "152829.565000", "152830.352500", "152831.140000", "152831.930000", "152832.717500", "152833.505000", "152834.292500", "152835.082500", "152835.870000", "152836.657500", "152837.445000", "152838.235000", "152839.022500", "152839.810000", "152840.600000", "152841.387500", "152842.175000", "152842.962500", "152843.752500", "152844.540000", "152845.327500", "152846.115000", "152846.905000", "152847.692500", "152848.480000", "152849.267500", "152850.057500", "152850.845000", "152851.632500", "152852.420000", "152853.210000", "152853.997500", "152854.785000", "152855.572500", "152856.362500", "152857.150000", "152857.937500", "152858.727500", "152859.515000", "152900.302500", "152901.090000", "152901.880000", "152902.667500", "152903.455000", "152904.242500", "152905.032500", "152905.820000", "152906.607500", "152907.395000", "152908.185000", "152908.972500", "152909.760000", "152910.547500", "152911.337500", "152912.125000", "152912.912500", "152913.700000", "152914.490000", "152915.277500", "152916.065000", "152916.855000", "152917.642500", "152918.430000", "152919.217500", "152920.007500", "152920.795000", "152921.582500", "152922.370000", "152923.160000", "152923.947500", "152924.735000", "152925.522500", "152926.312500", "152927.100000", "152927.887500", "152928.675000", "152929.465000", "152930.252500", "152931.040000", "152931.827500", "152932.617500", "152933.405000", "152934.192500", "152934.982500", "152935.770000", "152936.557500", "152937.345000", "152938.135000", "152938.922500", "152939.710000", "152940.497500", "152941.287500", "152942.075000", "152942.862500", "152943.650000", "152944.440000", "152945.227500", "152946.015000", "152946.802500", "152947.592500", "152948.380000", "152949.167500", "152949.955000", "152950.745000", "152951.532500", "152952.320000", "152953.110000", "152953.897500", "152954.685000", "152955.472500", "152956.262500", "152957.050000", "152957.837500", "152958.625000", "152959.415000", "153000.202500", "153000.990000", "153001.777500", "153002.567500", "153003.355000", "153004.142500", "153004.930000", "153005.720000", "153006.507500", "153007.295000", "153008.082500", "153008.872500", "153009.660000", "153010.447500", "153011.237500", "153012.025000", "153012.812500", "153013.600000", "153014.390000", "153015.177500", "153015.965000", "153016.752500", "153017.542500", "153018.330000", "153019.117500", "153019.905000", "153020.695000", "153021.482500", "153022.270000", "153023.057500", "153023.847500", "153024.635000", "153025.422500", "153026.210000", "153027.000000", "153027.787500", "153028.575000", "153029.365000", "153030.152500", "153030.940000", "153031.727500", "153032.517500", "153033.305000", "153034.092500", "153034.880000", "153035.670000", "153036.457500", "153037.245000", "153038.032500", "153038.822500", "153039.610000", "153040.397500", "153041.185000", "153041.975000", "153042.762500", "153043.550000", "153044.337500", "153045.127500", "153045.915000", "153046.702500", "153047.492500", "153048.280000", "153049.067500", "153049.855000", "153050.645000", "153051.432500", "153052.220000", "153053.007500", "153053.797500", "153054.585000", "153055.372500", "153056.160000", "153056.950000", "153057.737500", "153058.525000", "153059.312500", "153100.102500", "153100.890000", "153101.677500", "153102.465000", "153103.255000", "153104.042500", "153104.830000", "153105.620000", "153106.407500", "153107.195000", "153107.982500", "153108.772500", "153109.560000", "153110.347500", "153111.135000", "153111.925000", "153112.712500", "153113.500000", "153114.287500", "153115.077500", "153115.865000", "153116.652500", "153117.440000", "153118.230000", "153119.017500", "153119.805000", "153120.592500", "153121.382500", "153122.170000", "153122.957500", "153123.747500", "153124.535000", "153125.322500", "153126.110000", "153126.900000", "153127.687500", "153128.475000", "153129.262500", "153130.052500", "153130.840000", "153131.627500", "153132.415000", "153133.205000", "153133.992500", "153134.780000", "153135.567500", "153136.357500", "153137.145000", "153137.932500", "153138.722500", "153139.510000", "153140.297500", "153141.085000", "153141.875000", "153142.662500", "153143.450000", "153144.237500", "153145.027500", "153145.815000", "153146.602500", "153147.390000", "153148.180000", "153148.967500", "153149.755000", "153150.542500", "153151.332500", "153152.120000", "153152.907500", "153153.695000", "153154.485000", "153155.272500", "153156.060000", "153156.850000", "153157.637500", "153158.425000", "153159.212500", "153200.002500", "153200.790000", "153201.577500", "153202.365000", "153203.155000", "153203.942500", "153204.730000", "153205.517500", "153206.307500", "153207.095000", "153207.882500", "153208.670000", "153209.460000", "153210.247500", "153211.035000", "153211.822500", "153212.612500", "153213.400000", "153214.187500", "153214.977500", "153215.765000", "153216.552500", "153217.340000", "153218.130000", "153218.917500", "153219.705000", "153220.492500", "153221.282500", "153222.070000", "153222.857500", "153223.645000", "153224.435000", "153225.222500", "153226.010000", "153226.797500", "153227.587500", "153228.375000", "153229.162500", "153229.950000", "153230.740000", "153231.527500", "153232.315000", "153233.105000"],
