{
  "AcquisitionMatrixPE": 104,
  "AcquisitionNumber": 1,
  "AcquisitionTime": "15:58:48.695000",
  "BandwidthPerPixelPhaseEncode": 13.935,
  "BaseResolution": 104,
  "CoilString": "C:HEA;HEP",
  "ConversionSoftware": "dcm2niix",
  "ConversionSoftwareVersion": "v1.0.20210317",
  "DerivedVendorReportedEchoSpacing": 0.000690017,
  "DeviceSerialNumber": "35450",
  "DwellTime": 2.5e-06,
  "EchoTime": 0.0348,
  "EffectiveEchoSpacing": 0.000690017,
  "FlipAngle": 55,
  "ImageComments": "Unaliased MB8/PE3",
  "ImageOrientationPatientDICOM": [0.999392, 0.000913672, -0.0348569, -2.24809e-08, 0.999657, 0.0262024],
  "ImageType": [
    "ORIGINAL",
    "PRIMARY",
    "M",
    "MB",
    "ND",
    "MOSAIC"
],
  "ImagingFrequency": 123.234,
  "InPlanePhaseEncodingDirectionDICOM": "COL",
  "InstitutionAddress": "Univeristy Ave. 197,Newark,North East,US,07102-1814",
  "InstitutionName": "RUBIC",
  "InstitutionalDepartmentName": "Department",
  "MRAcquisitionType": "2D",
  "MagneticFieldStrength": 3,
  "Manufacturer": "Siemens",
  "ManufacturersModelName": "TrioTim",
  "Modality": "MR",
  "MultibandAccelerationFactor": 8,
  "PartialFourier": 0.875,
  "PatientPosition": "HFS",
  "PercentPhaseFOV": 100,
  "PercentSampling": 100,
  "PhaseEncodingDirection": "j-",
  "PhaseEncodingSteps": 91,
  "PhaseResolution": 1,
  "PixelBandwidth": 1923,
  "ProcedureStepDescription": "Cole^Michael",
  "ProtocolName": "cmrr_mbep2d_bold_2mm_MB8_Task_8x",
  "PulseSequenceDetails": "%CustomerSeq%\\cmrr_mbep2d_bold",
  "ReceiveCoilName": "32Ch_Head",
  "ReconMatrixPE": 104,
  "RepetitionTime": 0.785,
  "SAR": 0.101925,
  "ScanOptions": "PFP\\FS",
  "ScanningSequence": "EP",
  "SequenceName": "epfid2d1_104",
  "SequenceVariant": "SK\\SS",
  "SeriesDescription": "cmrr_mbep2d_bold_2mm_MB8_Task_8x",
  "SeriesNumber": 17,
  "ShimSetting": [2118, -479, -7282, 508, 39, -90, -25, 7],
  "SliceThickness": 2,
  "SliceTiming": [0, 0.4375, 0.0875, 0.525, 0.175, 0.6125, 0.2625, 0.7, 0.35, 0, 0.4375, 0.0875, 0.525, 0.175, 0.6125, 0.2625, 0.7, 0.35, 0, 0.4375, 0.0875, 0.525, 0.175, 0.6125, 0.2625, 0.7, 0.35, 0, 0.4375, 0.0875, 0.525, 0.175, 0.6125, 0.2625, 0.7, 0.35, 0, 0.4375, 0.0875, 0.525, 0.175, 0.6125, 0.2625, 0.7, 0.35, 0, 0.4375, 0.0875, 0.525, 0.175, 0.6125, 0.2625, 0.7, 0.35, 0, 0.4375, 0.0875, 0.525, 0.175, 0.6125, 0.2625, 0.7, 0.35, 0, 0.4375, 0.0875, 0.525, 0.175, 0.6125, 0.2625, 0.7, 0.35],
  "SoftwareVersions": "syngo MR B19",
  "SpacingBetweenSlices": 2,
  "StationName": "MRC35450",
  "TaskName": "cpro",
  "TotalReadoutTime": 0.0710717,
  "TxRefAmp": 320.915,
  "dcmmeta_affine": [
    [-1.998783826828003, -4.496189021097052e-08, -0.06973776966333389, 103.71644592285156],
    [-0.0018273447640240192, 1.9993133544921875, 0.0523730143904686, -89.49043273925781],
    [-0.06971382349729538, -0.05240488424897194, 1.998097538948059, -82.93943786621094],
    [0.0, 0.0, 0.0, 1.0]
],
  "dcmmeta_reorient_transform": [
    [0.0, -1.0, 0.0, 103.0],
    [1.0, 0.0, 0.0, 0.0],
    [0.0, 0.0, 1.0, 0.0],
    [0.0, 0.0, 0.0, 1.0]
],
  "dcmmeta_shape": [104, 104, 72, 581],
  "dcmmeta_slice_dim": 2,
  "dcmmeta_version": 0.6,
  "global": {
    "const": {
      "AcquisitionMatrix": [104, 0, 0, 104],
      "AngioFlag": "N",
      "BitsAllocated": 16,
      "BitsStored": 12,
      "Columns": 936,
      "EchoNumbers": 1,
      "EchoTime": 34.8,
      "EchoTrainLength": 1,
      "FlipAngle": 55.0,
      "HighBit": 11,
      "ImageOrientationPatient": [0.99939189556644, 0.00091367238411, -0.0348569114939, -2.2480945e-08, 0.99965665706529, 0.02620244234897],
      "ImagePositionPatient": [-935.21048190906, -948.91335164193, -81.136622385695],
      "ImageType": [
        "ORIGINAL",
        "PRIMARY",
        "M",
        "MB",
        "ND",
        "MOSAIC"
],
      "ImagedNucleus": "1H",
      "ImagingFrequency": 123.23444,
      "InPlanePhaseEncodingDirection": "COL",
      "MRAcquisitionType": "2D",
      "MagneticFieldStrength": 3.0,
      "Manufacturer": "SIEMENS",
      "ManufacturerModelName": "TrioTim",
      "Modality": "MR",
      "NumberOfAverages": 1.0,
      "NumberOfPhaseEncodingSteps": 91,
      "PercentPhaseFieldOfView": 100.0,
      "PercentSampling": 100.0,
      "PerformedProcedureStepStartTime": "143528.906000",
      "PhotometricInterpretation": "MONOCHROME2",
      "PixelBandwidth": 1923.0,
      "PixelRepresentation": 0,
      "PixelSpacing": [2.0, 2.0],
      "ProtocolName": "cmrr_mbep2d_bold_2mm_MB8_Task_8x",
      "RepetitionTime": 785.0,
      "Rows": 936,
      "SAR": 0.10192484617951,
      "SamplesPerPixel": 1,
      "ScanOptions": [
        "PFP",
        "FS"
],
      "ScanningSequence": "EP",
      "SequenceName": "epfid2d1_104",
      "SequenceVariant": [
        "SK",
        "SS"
],
      "SeriesDescription": "cmrr_mbep2d_bold_2mm_MB8_Task_8x",
      "SeriesNumber": 17,
      "SeriesTime": "165506.828000",
      "SliceLocation": -88.820461143254,
      "SliceThickness": 2.0,
      "SmallestImagePixelValue": 0,
      "SoftwareVersions": "syngo MR B19",
      "SpacingBetweenSlices": 2.0000000176702,
      "SpecificCharacterSet": "ISO_IR 100",
      "StudyID": "1",
      "StudyTime": "143528.828000",
      "TransmitCoilName": "Body",
      "VariableFlipAngleFlag": "N",
      "WindowCenterWidthExplanation": "Algo1",
      "dBdt": 0.0},
    "slices": {}
  },
  "time": {
    "samples": {
      "AcquisitionNumber": [1, 2, 3, 4, 5, 6, 7, 8, 9, 10, 11, 12, 13, 14, 15, 16, 17, 18, 19, 20, 21, 22, 23, 24, 25, 26, 27, 28, 29, 30, 31, 32, 33, 34, 35, 36, 37, 38, 39, 40, 41, 42, 43, 44, 45, 46, 47, 48, 49, 50, 51, 52, 53, 54, 55, 56, 57, 58, 59, 60, 61, 62, 63, 64, 65, 66, 67, 68, 69, 70, 71, 72, 73, 74, 75, 76, 77, 78, 79, 80, 81, 82, 83, 84, 85, 86, 87, 88, 89, 90, 91, 92, 93, 94, 95, 96, 97, 98, 99, 100, 101, 102, 103, 104, 105, 106, 107, 108, 109, 110, 111, 112, 113, 114, 115, 116, 117, 118, 119, 120, 121, 122, 123, 124, 125, 126, 127, 128, 129, 130, 131, 132, 133, 134, 135, 136, 137, 138, 139, 140, 141, 142, 143, 144, 145, 146, 147, 148, 149, 150, 151, 152, 153, 154, 155, 156, 157, 158, 159, 160, 161, 162, 163, 164, 165, 166, 167, 168, 169, 170, 171, 172, 173, 174, 175, 176, 177, 178, 179, 180, 181, 182, 183, 184, 185, 186, 187, 188, 189, 190, 191, 192, 193, 194, 195, 196, 197, 198, 199, 200, 201, 202, 203, 204, 205, 206, 207, 208, 209, 210, 211, 212, 213, 214, 215, 216, 217, 218, 219, 220, 221, 222, 223, 224, 225, 226, 227, 228, 229, 230, 231, 232, 233, 234, 235, 236, 237, 238, 239, 240, 241, 242, 243, 244, 245, 246, 247, 248, 249, 250, 251, 252, 253, 254, 255, 256, 257, 258, 259, 260, 261, 262, 263, 264, 265, 266, 267, 268, 269, 270, 271, 272, 273, 274, 275, 276, 277, 278, 279, 280, 281, 282, 283, 284, 285, 286, 287, 288, 289, 290, 291, 292, 293, 294, 295, 296, 297, 298, 299, 300, 301, 302, 303, 304, 305, 306, 307, 308, 309, 310, 311, 312, 313, 314, 315, 316, 317, 318, 319, 320, 321, 322, 323, 324, 325, 326, 327, 328, 329, 330, 331, 332, 333, 334, 335, 336, 337, 338, 339, 340, 341, 342, 343, 344, 345, 346, 347, 348, 349, 350, 351, 352, 353, 354, 355, 356, 357, 358, 359, 360, 361, 362, 363, 364, 365, 366, 367, 368, 369, 370, 371, 372, 373, 374, 375, 376, 377, 378, 379, 380, 381, 382, 383, 384, 385, 386, 387, 388, 389, 390, 391, 392, 393, 394, 395, 396, 397, 398, 399, 400, 401, 402, 403, 404, 405, 406, 407, 408, 409, 410, 411, 412, 413, 414, 415, 416, 417, 418, 419, 420, 421, 422, 423, 424, 425, 426, 427, 428, 429, 430, 431, 432, 433, 434, 435, 436, 437, 438, 439, 440, 441, 442, 443, 444, 445, 446, 447, 448, 449, 450, 451, 452, 453, 454, 455, 456, 457, 458, 459, 460, 461, 462, 463, 464, 465, 466, 467, 468, 469, 470, 471, 472, 473, 474, 475, 476, 477, 478, 479, 480, 481, 482, 483, 484, 485, 486, 487, 488, 489, 490, 491, 492, 493, 494, 495, 496, 497, 498, 499, 500, 501, 502, 503, 504, 505, 506, 507, 508, 509, 510, 511, 512, 513, 514, 515, 516, 517, 518, 519, 520, 521, 522, 523, 524, 525, 526, 527, 528, 529, 530, 531, 532, 533, 534, 535, 536, 537, 538, 539, 540, 541, 542, 543, 544, 545, 546, 547, 548, 549, 550, 551, 552, 553, 554, 555, 556, 557, 558, 559, 560, 561, 562, 563, 564, 565, 566, 567, 568, 569, 570, 571, 572, 573, 574, 575, 576, 577, 578, 579, 580, 581],
      "AcquisitionTime": ["155848.695000", "155849.482500", "155850.270000", "155851.057500", "155851.847500", "155852.635000", "155853.422500", "155854.210000", "155855.000000", "155855.787500", "155856.575000", "155857.362500", "155858.152500", "155858.940000", "155859.727500", "155900.517500", "155901.305000", "155902.092500", "155902.880000", "155903.670000", "155904.457500", "155905.245000", "155906.032500", "155906.822500", "155907.610000", "155908.397500", "155909.185000", "155909.975000", "155910.762500", "155911.550000", "155912.337500", "155913.127500", "155913.915000", "155914.702500", "155915.490000", "155916.280000", "155917.067500", "155917.855000", "155918.645000", "155919.432500", "155920.220000", "155921.007500", "155921.797500", "155922.585000", "155923.372500", "155924.160000", "155924.950000", "155925.737500", "155926.525000", "155927.312500", "155928.102500", "155928.890000", "155929.677500", "155930.465000", "155931.255000", "155932.042500", "155932.830000", "155933.620000", "155934.407500", "155935.195000", "155935.982500", "155936.772500", "155937.560000", "155938.347500", "155939.135000", "155939.925000", "155940.712500", "155941.500000", "155942.287500", "155943.077500", "155943.865000", "155944.652500", "155945.440000", "155946.230000", "155947.017500", "155947.805000", "155948.592500", "155949.382500", "155950.170000", "155950.957500", "155951.747500", "155952.535000", "155953.322500", "155954.110000", "155954.900000", "155955.687500", "155956.475000", "155957.262500", "155958.052500", "155958.840000", "155959.627500", "160000.415000", "160001.205000", "160001.992500", "160002.780000", "160003.567500", "160004.357500", "160005.145000", "160005.932500", "160006.720000", "160007.510000", "160008.297500", "160009.085000", "160009.875000", "160010.662500", "160011.450000", "160012.237500", "160013.027500", "160013.815000", "160014.602500", "160015.390000", "160016.180000", "160016.967500", "160017.755000", "160018.542500", "160019.332500", "160020.120000", "160020.907500", "160021.695000", "160022.485000", "160023.272500", "160024.060000", "160024.847500", "160025.637500", "160026.425000", "160027.212500", "160028.002500", "160028.790000", "160029.577500", "160030.365000", "160031.155000", "160031.942500", "160032.730000", "160033.517500", "160034.307500", "160035.095000", "160035.882500", "160036.670000", "160037.460000", "160038.247500", "160039.035000", "160039.822500", "160040.612500", "160041.400000", "160042.187500", "160042.975000", "160043.765000", "160044.552500", "160045.340000", "160046.130000", "160046.917500", "160047.705000", "160048.492500", "160049.282500", "160050.070000", "160050.857500", "160051.645000", "160052.435000", "160053.222500", "160054.010000", "160054.797500", "160055.587500", "160056.375000", "160057.162500", "160057.950000", "160058.740000", "160059.527500", "160100.315000", "160101.102500", "160101.892500", "160102.680000", "160103.467500", "160104.257500", "160105.045000", "160105.832500", "160106.620000", "160107.410000", "160108.197500", "160108.985000", "160109.772500", "160110.562500", "160111.350000", "160112.137500", "160112.925000", "160113.715000", "160114.502500", "160115.290000", "160116.077500", "160116.867500", "160117.655000", "160118.442500", "160119.230000", "160120.020000", "160120.807500", "160121.595000", "160122.385000", "160123.172500", "160123.960000", "160124.747500", "160125.537500", "160126.325000", "160127.112500", "160127.900000", "160128.690000", "160129.477500", "160130.265000", "160131.052500", "160131.842500", "160132.630000", "160133.417500", "160134.205000", "160134.995000", "160135.782500", "160136.570000", "160137.357500", "160138.147500", "160138.935000", "160139.722500", "160140.512500", "160141.300000", "160142.087500", "160142.875000", "160143.665000", "160144.452500", "160145.240000", "160146.027500", "160146.817500", "160147.605000", "160148.392500", "160149.180000", "160149.970000", "160150.757500", "160151.545000", "160152.332500", "160153.122500", "160153.910000", "160154.697500", "160155.485000", "160156.275000", "160157.062500", "160157.850000", "160158.640000", "160159.427500", "160200.215000", "160201.002500", "160201.792500", "160202.580000", "160203.367500", "160204.155000", "160204.945000", "160205.732500", "160206.520000", "160207.307500", "160208.097500", "160208.885000", "160209.672500", "160210.460000", "160211.250000", "160212.037500", "160212.825000", "160213.612500", "160214.402500", "160215.190000", "160215.977500", "160216.767500", "160217.555000", "160218.342500", "160219.130000", "160219.920000", "160220.707500", "160221.495000", "160222.282500", "160223.072500", "160223.860000", "160224.647500", "160225.435000", "160226.225000", "160227.012500", "160227.800000", "160228.587500", "160229.377500", "160230.165000", "160230.952500", "160231.740000", "160232.530000", "160233.317500", "160234.105000", "160234.895000", "160235.682500", "160236.470000", "160237.257500", "160238.047500", "160238.835000", "160239.622500", "160240.410000", "160241.200000", "160241.987500", "160242.775000", "160243.562500", "160244.352500", "160245.140000", "160245.927500", "160246.715000", "160247.505000", "160248.292500", "160249.080000", "160249.870000", "160250.657500", "160251.445000", "160252.232500", "160253.022500", "160253.810000", "160254.597500", "160255.385000", "160256.175000", "160256.962500", "160257.750000", "160258.537500", "160259.327500", "160300.115000", "160300.902500", "160301.690000", "160302.480000", "160303.267500", "160304.055000", "160304.842500", "160305.632500", "160306.420000", "160307.207500", "160307.997500", "160308.785000", "160309.572500", "160310.360000", "160311.150000", "160311.937500", "160312.725000", "160313.512500", "160314.302500", "160315.090000", "160315.877500", "160316.665000", "160317.455000", "160318.242500", "160319.030000", "160319.817500", "160320.607500", "160321.395000", "160322.182500", "160322.970000", "160323.760000", "160324.547500", "160325.335000", "160326.125000", "160326.912500", "160327.700000", "160328.487500", "160329.277500", "160330.065000", "160330.852500", "160331.640000", "160332.430000", "160333.217500", "160334.005000", "160334.792500", "160335.582500", "160336.370000", "160337.157500", "160337.945000", "160338.735000", "160339.522500", "160340.310000", "160341.097500", "160341.887500", "160342.675000", "160343.462500", "160344.252500", "160345.040000", "160345.827500", "160346.615000", "160347.405000", "160348.192500", "160348.980000", "160349.767500", "160350.557500", "160351.345000", "160352.132500", "160352.920000", "160353.710000", "160354.497500", "160355.285000", "160356.072500", "160356.862500", "160357.650000", "160358.437500", "160359.225000", "160400.015000", "160400.802500", "160401.590000", "160402.380000", "160403.167500", "160403.955000", "160404.742500", "160405.532500", "160406.320000", "160407.107500", "160407.895000", "160408.685000", "160409.472500", "160410.260000", "160411.047500", "160411.837500", "160412.625000", "160413.412500", "160414.200000", "160414.990000", "160415.777500", "160416.565000", "160417.352500", "160418.142500", "160418.930000", "160419.717500", "160420.507500", "160421.295000", "160422.082500", "160422.870000", "160423.660000", "160424.447500", "160425.235000", "160426.022500", "160426.812500", "160427.600000", "160428.387500", "160429.175000", "160429.965000", "160430.752500", "160431.540000", "160432.327500", "160433.117500", "160433.905000", "160434.692500", "160435.480000", "160436.270000", "160437.057500", "160437.845000", "160438.635000", "160439.422500", "160440.210000", "160440.997500", "160441.787500", "160442.575000", "160443.362500", "160444.150000", "160444.940000", "160445.727500", "160446.515000", "160447.302500", "160448.092500", "160448.880000", "160449.667500", "160450.455000", "160451.245000", "160452.032500", "160452.820000", "160453.607500", "160454.397500", "160455.185000", "160455.972500", "160456.762500", "160457.550000", "160458.337500", "160459.125000", "160459.915000", "160500.702500", "160501.490000", "160502.277500", "160503.067500", "160503.855000", "160504.642500", "160505.430000", "160506.220000", "160507.007500", "160507.795000", "160508.582500", "160509.372500", "160510.160000", "160510.947500", "160511.735000", "160512.525000", "160513.312500", "160514.100000", "160514.890000", "160515.677500", "160516.465000", "160517.252500", "160518.042500", "160518.830000", "160519.617500", "160520.405000", "160521.195000", "160521.982500", "160522.770000", "160523.557500", "160524.347500", "160525.135000", "160525.922500", "160526.710000", "160527.500000", "160528.287500", "160529.075000", "160529.862500", "160530.652500", "160531.440000", "160532.227500", "160533.017500", "160533.805000", "160534.592500", "160535.380000", "160536.170000", "160536.957500", "160537.745000", "160538.532500", "160539.322500", "160540.110000", "160540.897500", "160541.685000", "160542.475000", "160543.262500", "160544.050000", "160544.837500", "160545.627500", "160546.415000", "160547.202500", "160547.990000", "160548.780000", "160549.567500", "160550.355000", "160551.145000", "160551.932500", "160552.720000", "160553.507500", "160554.297500", "160555.085000", "160555.872500", "160556.660000", "160557.450000", "160558.237500", "160559.025000", "160559.812500", "160600.602500", "160601.390000", "160602.177500", "160602.965000", "160603.755000", "160604.542500", "160605.330000", "160606.120000", "160606.907500", "160607.695000", "160608.482500", "160609.272500", "160610.060000", "160610.847500", "160611.635000", "160612.425000", "160613.212500", "160614.000000", "160614.787500", "160615.577500", "160616.365000", "160617.152500", "160617.940000", "160618.730000", "160619.517500", "160620.305000", "160621.092500", "160621.882500", "160622.670000", "160623.457500", "160624.247500", "160625.035000", "160625.822500"],
      "ContentTime": ["165506.828000", "165506.828000", "165606.812000", "165606.812000", "165606.812000", "165606.812000", "165606.812000", "165606.812000", "165606.812000", "165606.828000", "165606.828000", "165606.828000", "165606.828000", "165606.828000", "165606.828000", "165606.828000", "165606.843000", "165606.843000", "165606.843000", "165606.843000", "165606.843000", "165606.843000", "165606.843000", "165606.859000", "165606.859000", "165606.859000", "165606.859000", "165606.859000", "165606.859000", "165606.859000", "165706.812000", "165706.812000", "165706.812000", "165706.812000", "165706.812000", "165706.812000", "165706.812000", "165706.828000", "165706.828000", "165706.828000", "165706.828000", "165706.828000", "165706.828000", "165706.828000", "165706.843000", "165706.843000", "165706.843000", "165706.843000", "165706.843000", "165706.843000", "165706.843000", "165706.859000", "165706.859000", "165706.859000", "165706.859000", "165706.859000", "165706.859000", "165706.859000", "165806.812000", "165806.812000", "165806.812000", "165806.812000", "165806.812000", "165806.812000", "165806.812000", "165806.828000", "165806.828000", "165806.828000", "165806.828000", "165806.828000", "165806.828000", "165806.828000", "165806.843000", "165806.843000", "165806.843000", "165806.843000", "165806.843000", "165806.843000", "165806.843000", "165806.859000", "165806.859000", "165806.859000", "165806.859000", "165806.859000", "165806.859000", "165806.859000", "165906.812000", "165906.812000", "165906.812000", "165906.812000", "165906.812000", "165906.812000", "165906.812000", "165906.828000", "165906.828000", "165906.828000", "165906.828000", "165906.828000", "165906.828000", "165906.843000", "165906.843000", "165906.843000", "165906.843000", "165906.843000", "165906.843000", "165906.843000", "165906.859000", "165906.859000", "165906.859000", "165906.859000", "165906.859000", "165906.859000", "165906.859000", "165906.875000", "170006.812000", "170006.812000", "170006.812000", "170006.812000", "170006.812000", "170006.812000", "170006.812000", "170006.828000", "170006.828000", "170006.828000", "170006.828000", "170006.828000", "170006.828000", "170006.843000", "170006.843000", "170006.843000", "170006.843000", "170006.843000", "170006.843000", "170006.843000", "170006.859000", "170006.859000", "170006.859000", "170006.859000", "170006.859000", "170006.859000", "170006.859000", "170006.859000", "170046.812000", "170046.812000", "170046.812000", "170046.812000", "170046.812000", "170046.812000", "170046.812000", "170046.828000", "170046.828000", "170046.828000", "170046.828000", "170046.828000", "170046.828000", "170046.828000", "170046.843000", "170046.843000", "170046.843000", "170046.843000", "170046.843000", "170146.812000", "170146.812000", "170146.812000", "170146.812000", "170146.812000", "170146.812000", "170146.828000", "170146.828000", "170146.828000", "170146.828000", "170146.828000", "170146.828000", "170146.828000", "170146.828000", "170146.843000", "170146.843000", "170146.843000", "170146.843000", "170146.843000", "170146.843000", "170146.843000", "170146.859000", "170146.859000", "170146.859000", "170146.859000", "170146.859000", "170146.859000", "170146.859000", "170246.812000", "170246.812000", "170246.812000", "170246.812000", "170246.812000", "170246.812000", "170246.812000", "170246.828000", "170246.828000", "170246.828000", "170246.828000", "170246.828000", "170246.843000", "170246.843000", "170246.843000", "170246.859000", "170246.859000", "170246.859000", "170246.859000", "170246.859000", "170246.859000", "170246.859000", "170246.875000", "170246.875000", "170246.875000", "170246.875000", "170246.875000", "170246.875000", "170346.812000", "170346.812000", "170346.812000", "170346.812000", "170346.812000", "170346.812000", "170346.812000", "170346.828000", "170346.828000", "170346.828000", "170346.828000", "170346.828000", "170346.828000", "170346.843000", "170346.843000", "170346.843000", "170346.843000", "170346.843000", "170346.843000", "170346.843000", "170346.843000", "170346.859000", "170346.859000", "170346.859000", "170346.859000", "170346.859000", "170346.859000", "170346.859000", "170346.875000", "170446.812000", "170446.812000", "170446.812000", "170446.812000", "170446.812000", "170446.812000", "170446.812000", "170446.828000", "170446.828000", "170446.828000", "170446.828000", "170446.828000", "170446.828000", "170446.828000", "170446.843000", "170446.843000", "170446.843000", "170446.843000", "170446.843000", "170446.843000", "170446.843000", "170446.859000", "170446.859000", "170446.859000", "170446.859000", "170446.859000", "170446.859000", "170446.859000", "170546.812000", "170546.812000", "170546.812000", "170546.812000", "170546.812000", "170546.812000", "170546.828000", "170546.828000", "170546.828000", "170546.828000", "170546.828000", "170546.828000", "170546.828000", "170546.843000", "170546.843000", "170546.843000", "170546.843000", "170546.843000", "170546.843000", "170546.843000", "170546.859000", "170546.859000", "170546.859000", "170546.859000", "170546.859000", "170546.859000", "170546.859000", "170546.875000", "170646.812000", "170646.812000", "170646.812000", "170646.812000", "170646.812000", "170646.812000", "170646.828000", "170646.828000", "170646.828000", "170646.828000", "170646.828000", "170646.828000", "170646.828000", "170646.828000", "170646.843000", "170646.843000", "170646.843000", "170646.843000", "170646.843000", "170646.843000", "170646.843000", "170646.859000", "170646.859000", "170646.859000", "170646.859000", "170646.859000", "170646.859000", "170646.859000", "170746.812000", "170746.812000", "170746.812000", "170746.812000", "170746.812000", "170746.812000", "170746.828000", "170746.828000", "170746.828000", "170746.828000", "170746.828000", "170746.828000", "170746.828000", "170746.843000", "170746.843000", "170746.843000", "170746.843000", "170746.843000", "170746.843000", "170746.843000", "170746.859000", "170746.859000", "170746.859000", "170746.859000", "170746.859000", "170746.859000", "170746.859000", "170746.875000", "170846.812000", "170846.812000", "170846.812000", "170846.812000", "170846.812000", "170846.812000", "170846.812000", "170846.828000", "170846.828000", "170846.828000", "170846.828000", "170846.828000", "170846.828000", "170846.828000", "170846.843000", "170846.843000", "170846.843000", "170846.843000", "170846.843000", "170846.843000", "170846.843000", "170846.859000", "170846.859000", "170846.859000", "170846.859000", "170846.859000", "170846.859000", "170846.859000", "170946.812000", "170946.812000", "170946.812000", "170946.812000", "170946.812000", "170946.812000", "170946.812000", "170946.828000", "170946.828000", "170946.828000", "170946.828000", "170946.828000", "170946.828000", "170946.828000", "170946.843000", "170946.843000", "170946.843000", "170946.843000", "170946.843000", "170946.843000", "170946.843000", "170946.859000", "170946.859000", "170946.859000", "170946.859000", "170946.859000", "170946.859000", "170946.859000", "170946.875000", "171046.812000", "171046.812000", "171046.812000", "171046.812000", "171046.812000", "171046.812000", "171046.812000", "171046.828000", "171046.828000", "171046.828000", "171046.828000", "171046.828000", "171046.828000", "171046.828000", "171046.843000", "171046.843000", "171046.843000", "171046.843000", "171046.843000", "171046.843000", "171046.843000", "171046.859000", "171046.859000", "171046.859000", "171046.859000", "171046.859000", "171046.859000", "171046.859000", "171146.812000", "171146.812000", "171146.812000", "171146.812000", "171146.812000", "171146.812000", "171146.812000", "171146.828000", "171146.828000", "171146.828000", "171146.828000", "171146.828000", "171146.828000", "171146.828000", "171146.843000", "171146.843000", "171146.843000", "171146.843000", "171146.843000", "171146.843000", "171146.843000", "171146.859000", "171146.859000", "171146.859000", "171146.859000", "171146.859000", "171146.859000", "171146.859000", "171246.812000", "171246.812000", "171246.812000", "171246.812000", "171246.812000", "171246.812000", "171246.812000", "171246.828000", "171246.828000", "171246.828000", "171246.828000", "171246.828000", "171246.828000", "171246.828000", "171246.843000", "171246.843000", "171246.859000", "171246.859000", "171246.859000", "171246.859000", "171246.859000", "171246.859000", "171246.875000", "171246.875000", "171246.875000", "171246.875000", "171246.875000", "171246.875000", "171346.812000", "171346.812000", "171346.812000", "171346.812000", "171346.812000", "171346.812000", "171346.812000", "171346.828000", "171346.828000", "171346.828000", "171346.828000", "171346.828000", "171346.828000", "171346.828000", "171346.843000", "171346.843000", "171346.843000", "171346.843000", "171346.843000", "171346.843000", "171346.843000", "171346.859000", "171346.859000", "171346.859000", "171346.859000", "171346.859000", "171346.859000", "171346.875000", "171346.875000", "171446.812000", "171446.812000", "171446.812000", "171446.812000", "171446.812000", "171446.812000", "171446.812000", "171446.828000", "171446.828000", "171446.828000", "171446.828000", "171446.828000", "171446.828000", "171446.828000", "171446.843000", "171446.843000", "171446.843000", "171446.843000", "171446.843000", "171446.843000", "171446.843000", "171446.859000", "171446.859000", "171446.859000", "171446.859000", "171446.859000", "171446.859000", "171446.859000", "171539.140000", "171539.140000", "171539.140000", "171539.140000", "171539.156000", "171539.156000", "171539.156000", "171539.156000", "171539.156000", "171539.156000", "171539.171000", "171539.171000", "171539.171000", "171539.171000", "171539.171000", "171539.171000", "171539.171000", "171539.171000", "171539.187000", "171539.187000", "171539.187000", "171539.187000", "171539.187000", "171539.187000", "171539.187000"],
      "DataSetTrailingPadding": [
        "\u0000\u0000\u0000\u0000\u0000\u0000\u0000\u0000\u0000\u0000\u0000\u0000\u0000\u0000\u0000\u0000\u0000\u0000\u0000\u0000\u0000\u0000\u0000\u0000\u0000\u0000\u0000\u0000\u0000\u0000\u0000\u0000\u0000\u0000\u0000\u0000\u0000\u0000\u0000\u0000\u0000\u0000\u0000\u0000\u0000\u0000\u0000\u0000\u0000\u0000\u0000\u0000\u0000\u0000\u0000\u0000\u0000\u0000\u0000\u0000\u0000\u0000\u0000\u0000",
        "\u0000\u0000\u0000\u0000\u0000\u0000\u0000\u0000\u0000\u0000\u0000\u0000\u0000\u0000\u0000\u0000\u0000\u0000\u0000\u0000\u0000\u0000\u0000\u0000\u0000\u0000\u0000\u0000\u0000\u0000\u0000\u0000\u0000\u0000\u0000\u0000\u0000\u0000\u0000\u0000\u0000\u0000\u0000\u0000\u0000\u0000\u0000\u0000\u0000\u0000\u0000\u0000\u0000\u0000\u0000\u0000\u0000\u0000\u0000\u0000",
        "\u0000\u0000\u0000\u0000\u0000\u0000\u0000\u0000\u0000\u0000\u0000\u0000\u0000\u0000\u0000\u0000\u0000\u0000\u0000\u0000\u0000\u0000\u0000\u0000\u0000\u0000\u0000\u0000\u0000\u0000\u0000\u0000\u0000\u0000\u0000\u0000\u0000\u0000\u0000\u0000\u0000\u0000\u0000\u0000\u0000\u0000\u0000\u0000\u0000\u0000\u0000\u0000\u0000\u0000\u0000\u0000\u0000\u0000\u0000\u0000\u0000\u0000",
        "\u0000\u0000\u0000\u0000\u0000\u0000\u0000\u0000\u0000\u0000\u0000\u0000\u0000\u0000\u0000\u0000\u0000\u0000\u0000\u0000\u0000\u0000\u0000\u0000\u0000\u0000\u0000\u0000\u0000\u0000\u0000\u0000\u0000\u0000\u0000\u0000\u0000\u0000\u0000\u0000\u0000\u0000\u0000\u0000\u0000\u0000\u0000\u0000\u0000\u0000\u0000\u0000\u0000\u0000\u0000\u0000\u0000\u0000\u0000\u0000",
        "\u0000\u0000\u0000\u0000\u0000\u0000\u0000\u0000\u0000\u0000\u0000\u0000\u0000\u0000\u0000\u0000\u0000\u0000\u0000\u0000\u0000\u0000\u0000\u0000\u0000\u0000\u0000\u0000\u0000\u0000\u0000\u0000\u0000\u0000\u0000\u0000\u0000\u0000\u0000\u0000\u0000\u0000\u0000\u0000\u0000\u0000\u0000\u0000\u0000\u0000\u0000\u0000\u0000\u0000\u0000\u0000\u0000\u0000\u0000\u0000",
