{
  "AcquisitionMatrixPE": 104,
  "AcquisitionNumber": 1,
  "AcquisitionTime": "16:31:22.722500",
  "BandwidthPerPixelPhaseEncode": 13.935,
  "BaseResolution": 104,
  "CoilString": "C:HEA;HEP",
  "ConversionSoftware": "dcm2niix",
  "ConversionSoftwareVersion": "v1.0.20210317",
  "DerivedVendorReportedEchoSpacing": 0.000690017,
  "DeviceSerialNumber": "35450",
  "DwellTime": 2.5e-06,
  "EchoTime": 0.0348,
  "EffectiveEchoSpacing": 0.000690017,
  "FlipAngle": 55,
  "ImageComments": "Unaliased MB8/PE3 (remote)",
  "ImageOrientationPatientDICOM": [0.999879, 0.00265218, 0.0153534, -6.90248e-09, 0.985406, -0.17022],
  "ImageType": [
    "ORIGINAL",
    "PRIMARY",
    "M",
    "MB",
    "ND",
    "MOSAIC"
],
  "ImagingFrequency": 123.234,
  "InPlanePhaseEncodingDirectionDICOM": "COL",
  "InstitutionAddress": "Univeristy Ave. 197,Newark,North East,US,07102-1814",
  "InstitutionName": "RUBIC",
  "InstitutionalDepartmentName": "Department",
  "MRAcquisitionType": "2D",
  "MagneticFieldStrength": 3,
  "Manufacturer": "Siemens",
  "ManufacturersModelName": "TrioTim",
  "Modality": "MR",
  "MultibandAccelerationFactor": 8,
  "PartialFourier": 0.875,
  "PatientPosition": "HFS",
  "PercentPhaseFOV": 100,
  "PercentSampling": 100,
  "PhaseEncodingDirection": "j-",
  "PhaseEncodingSteps": 91,
  "PhaseResolution": 1,
  "PixelBandwidth": 1923,
  "ProcedureStepDescription": "Cole^Michael",
  "ProtocolName": "cmrr_mbep2d_bold_2mm_MB8_Task_8x",
  "PulseSequenceDetails": "%CustomerSeq%\\cmrr_mbep2d_bold",
  "ReceiveCoilName": "32Ch_Head",
  "ReconMatrixPE": 104,
  "RepetitionTime": 0.785,
  "SAR": 0.11964,
  "ScanOptions": "PFP\\FS",
  "ScanningSequence": "EP",
  "SequenceName": "epfid2d1_104",
  "SequenceVariant": "SK\\SS",
  "SeriesDescription": "cmrr_mbep2d_bold_2mm_MB8_Task_8x",
  "SeriesNumber": 19,
  "ShimSetting": [2151, -408, -7173, 469, -37, 201, 321, 109],
  "SliceThickness": 2,
  "SliceTiming": [0, 0.4375, 0.0875, 0.525, 0.175, 0.6125, 0.2625, 0.7, 0.35, 0, 0.4375, 0.0875, 0.525, 0.175, 0.6125, 0.2625, 0.7, 0.35, 0, 0.4375, 0.0875, 0.525, 0.175, 0.6125, 0.2625, 0.7, 0.35, 0, 0.4375, 0.0875, 0.525, 0.175, 0.6125, 0.2625, 0.7, 0.35, 0, 0.4375, 0.0875, 0.525, 0.175, 0.6125, 0.2625, 0.7, 0.35, 0, 0.4375, 0.0875, 0.525, 0.175, 0.6125, 0.2625, 0.7, 0.35, 0, 0.4375, 0.0875, 0.525, 0.175, 0.6125, 0.2625, 0.7, 0.35, 0, 0.4375, 0.0875, 0.525, 0.175, 0.6125, 0.2625, 0.7, 0.35],
  "SoftwareVersions": "syngo MR B19",
  "SpacingBetweenSlices": 2,
  "StationName": "MRC35450",
  "TaskName": "cpro",
  "TotalReadoutTime": 0.0710717,
  "TxRefAmp": 317.941,
  "dcmmeta_affine": [
    [-1.999757170677185, -1.3804969611896922e-08, 0.031161658465862274, 101.60340881347656],
    [-0.005304355174303055, 1.9708120822906494, -0.3403989374637604, -70.68885803222656],
    [0.03070688433945179, 0.3404402434825897, 1.970572829246521, -109.22383880615234],
    [0.0, 0.0, 0.0, 1.0]
],
  "dcmmeta_reorient_transform": [
    [0.0, -1.0, 0.0, 103.0],
    [1.0, 0.0, 0.0, 0.0],
    [0.0, 0.0, 1.0, 0.0],
    [0.0, 0.0, 0.0, 1.0]
],
  "dcmmeta_shape": [104, 104, 72, 581],
  "dcmmeta_slice_dim": 2,
  "dcmmeta_version": 0.6,
  "global": {
    "const": {
      "AcquisitionMatrix": [104, 0, 0, 104],
      "AngioFlag": "N",
      "BitsAllocated": 16,
      "BitsStored": 12,
      "Columns": 936,
      "EchoNumbers": 1,
      "EchoTime": 34.8,
      "EchoTrainLength": 1,
      "FlipAngle": 55.0,
      "HighBit": 11,
      "ImageOrientationPatient": [0.99987861151022, 0.00265217758516, 0.01535344255999, -6.902485e-09, 0.98540606237706, -0.1702201287467],
      "ImagePositionPatient": [-933.50240484431, -954.36924836818, 54.690592721454],
      "ImageType": [
        "ORIGINAL",
        "PRIMARY",
        "M",
        "MB",
        "ND",
        "MOSAIC"
],
      "ImagedNucleus": "1H",
      "ImagingFrequency": 123.234425,
      "InPlanePhaseEncodingDirection": "COL",
      "MRAcquisitionType": "2D",
      "MagneticFieldStrength": 3.0,
      "Manufacturer": "SIEMENS",
      "ManufacturerModelName": "TrioTim",
      "Modality": "MR",
      "NumberOfAverages": 1.0,
      "NumberOfPhaseEncodingSteps": 91,
      "PercentPhaseFieldOfView": 100.0,
      "PercentSampling": 100.0,
      "PerformedProcedureStepStartTime": "150051.781000",
      "PhotometricInterpretation": "MONOCHROME2",
      "PixelBandwidth": 1923.0,
      "PixelRepresentation": 0,
      "PixelSpacing": [2.0, 2.0],
      "ProtocolName": "cmrr_mbep2d_bold_2mm_MB8_Task_8x",
      "RepetitionTime": 785.0,
      "Rows": 936,
      "SAR": 0.11963951386141,
      "SamplesPerPixel": 1,
      "ScanOptions": [
        "PFP",
        "FS"
],
      "ScanningSequence": "EP",
      "SequenceName": "epfid2d1_104",
      "SequenceVariant": [
        "SK",
        "SS"
],
      "SeriesDescription": "cmrr_mbep2d_bold_2mm_MB8_Task_8x",
      "SeriesNumber": 19,
      "SeriesTime": "163154.140000",
      "SliceLocation": -94.002494917273,
      "SliceThickness": 2.0,
      "SmallestImagePixelValue": 0,
      "SoftwareVersions": "syngo MR B19",
      "SpacingBetweenSlices": 1.9999999945614,
      "SpecificCharacterSet": "ISO_IR 100",
      "StudyID": "1",
      "StudyTime": "150051.750000",
      "TransmitCoilName": "Body",
      "VariableFlipAngleFlag": "N",
      "WindowCenterWidthExplanation": "Algo1",
      "dBdt": 0.0},
    "slices": {}
  },
  "time": {
    "samples": {
      "AcquisitionNumber": [1, 2, 3, 4, 5, 6, 7, 8, 9, 10, 11, 12, 13, 14, 15, 16, 17, 18, 19, 20, 21, 22, 23, 24, 25, 26, 27, 28, 29, 30, 31, 32, 33, 34, 35, 36, 37, 38, 39, 40, 41, 42, 43, 44, 45, 46, 47, 48, 49, 50, 51, 52, 53, 54, 55, 56, 57, 58, 59, 60, 61, 62, 63, 64, 65, 66, 67, 68, 69, 70, 71, 72, 73, 74, 75, 76, 77, 78, 79, 80, 81, 82, 83, 84, 85, 86, 87, 88, 89, 90, 91, 92, 93, 94, 95, 96, 97, 98, 99, 100, 101, 102, 103, 104, 105, 106, 107, 108, 109, 110, 111, 112, 113, 114, 115, 116, 117, 118, 119, 120, 121, 122, 123, 124, 125, 126, 127, 128, 129, 130, 131, 132, 133, 134, 135, 136, 137, 138, 139, 140, 141, 142, 143, 144, 145, 146, 147, 148, 149, 150, 151, 152, 153, 154, 155, 156, 157, 158, 159, 160, 161, 162, 163, 164, 165, 166, 167, 168, 169, 170, 171, 172, 173, 174, 175, 176, 177, 178, 179, 180, 181, 182, 183, 184, 185, 186, 187, 188, 189, 190, 191, 192, 193, 194, 195, 196, 197, 198, 199, 200, 201, 202, 203, 204, 205, 206, 207, 208, 209, 210, 211, 212, 213, 214, 215, 216, 217, 218, 219, 220, 221, 222, 223, 224, 225, 226, 227, 228, 229, 230, 231, 232, 233, 234, 235, 236, 237, 238, 239, 240, 241, 242, 243, 244, 245, 246, 247, 248, 249, 250, 251, 252, 253, 254, 255, 256, 257, 258, 259, 260, 261, 262, 263, 264, 265, 266, 267, 268, 269, 270, 271, 272, 273, 274, 275, 276, 277, 278, 279, 280, 281, 282, 283, 284, 285, 286, 287, 288, 289, 290, 291, 292, 293, 294, 295, 296, 297, 298, 299, 300, 301, 302, 303, 304, 305, 306, 307, 308, 309, 310, 311, 312, 313, 314, 315, 316, 317, 318, 319, 320, 321, 322, 323, 324, 325, 326, 327, 328, 329, 330, 331, 332, 333, 334, 335, 336, 337, 338, 339, 340, 341, 342, 343, 344, 345, 346, 347, 348, 349, 350, 351, 352, 353, 354, 355, 356, 357, 358, 359, 360, 361, 362, 363, 364, 365, 366, 367, 368, 369, 370, 371, 372, 373, 374, 375, 376, 377, 378, 379, 380, 381, 382, 383, 384, 385, 386, 387, 388, 389, 390, 391, 392, 393, 394, 395, 396, 397, 398, 399, 400, 401, 402, 403, 404, 405, 406, 407, 408, 409, 410, 411, 412, 413, 414, 415, 416, 417, 418, 419, 420, 421, 422, 423, 424, 425, 426, 427, 428, 429, 430, 431, 432, 433, 434, 435, 436, 437, 438, 439, 440, 441, 442, 443, 444, 445, 446, 447, 448, 449, 450, 451, 452, 453, 454, 455, 456, 457, 458, 459, 460, 461, 462, 463, 464, 465, 466, 467, 468, 469, 470, 471, 472, 473, 474, 475, 476, 477, 478, 479, 480, 481, 482, 483, 484, 485, 486, 487, 488, 489, 490, 491, 492, 493, 494, 495, 496, 497, 498, 499, 500, 501, 502, 503, 504, 505, 506, 507, 508, 509, 510, 511, 512, 513, 514, 515, 516, 517, 518, 519, 520, 521, 522, 523, 524, 525, 526, 527, 528, 529, 530, 531, 532, 533, 534, 535, 536, 537, 538, 539, 540, 541, 542, 543, 544, 545, 546, 547, 548, 549, 550, 551, 552, 553, 554, 555, 556, 557, 558, 559, 560, 561, 562, 563, 564, 565, 566, 567, 568, 569, 570, 571, 572, 573, 574, 575, 576, 577, 578, 579, 580, 581],
      "AcquisitionTime": ["163122.722500", "163123.510000", "163124.297500", "163125.085000", "163125.875000", "163126.662500", "163127.450000", "163128.237500", "163129.027500", "163129.815000", "163130.602500", "163131.392500", "163132.180000", "163132.967500", "163133.755000", "163134.545000", "163135.332500", "163136.120000", "163136.907500", "163137.697500", "163138.485000", "163139.272500", "163140.060000", "163140.850000", "163141.637500", "163142.425000", "163143.212500", "163144.002500", "163144.790000", "163145.577500", "163146.365000", "163147.155000", "163147.942500", "163148.730000", "163149.520000", "163150.307500", "163151.095000", "163151.882500", "163152.672500", "163153.460000", "163154.247500", "163155.035000", "163155.825000", "163156.612500", "163157.400000", "163158.187500", "163158.977500", "163159.765000", "163200.552500", "163201.340000", "163202.130000", "163202.917500", "163203.705000", "163204.492500", "163205.282500", "163206.070000", "163206.857500", "163207.647500", "163208.435000", "163209.222500", "163210.010000", "163210.800000", "163211.587500", "163212.375000", "163213.162500", "163213.952500", "163214.740000", "163215.527500", "163216.315000", "163217.105000", "163217.892500", "163218.680000", "163219.467500", "163220.257500", "163221.045000", "163221.832500", "163222.620000", "163223.410000", "163224.197500", "163224.985000", "163225.775000", "163226.562500", "163227.350000", "163228.137500", "163228.927500", "163229.715000", "163230.502500", "163231.290000", "163232.080000", "163232.867500", "163233.655000", "163234.442500", "163235.232500", "163236.020000", "163236.807500", "163237.595000", "163238.385000", "163239.172500", "163239.960000", "163240.747500", "163241.537500", "163242.325000", "163243.112500", "163243.902500", "163244.690000", "163245.477500", "163246.265000", "163247.055000", "163247.842500", "163248.630000", "163249.417500", "163250.207500", "163250.995000", "163251.782500", "163252.570000", "163253.360000", "163254.147500", "163254.935000", "163255.722500", "163256.512500", "163257.300000", "163258.087500", "163258.875000", "163259.665000", "163300.452500", "163301.240000", "163302.030000", "163302.817500", "163303.605000", "163304.392500", "163305.182500", "163305.970000", "163306.757500", "163307.545000", "163308.335000", "163309.122500", "163309.910000", "163310.697500", "163311.487500", "163312.275000", "163313.062500", "163313.850000", "163314.640000", "163315.427500", "163316.215000", "163317.002500", "163317.792500", "163318.580000", "163319.367500", "163320.157500", "163320.945000", "163321.732500", "163322.520000", "163323.310000", "163324.097500", "163324.885000", "163325.672500", "163326.462500", "163327.250000", "163328.037500", "163328.825000", "163329.615000", "163330.402500", "163331.190000", "163331.977500", "163332.767500", "163333.555000", "163334.342500", "163335.130000", "163335.920000", "163336.707500", "163337.495000", "163338.285000", "163339.072500", "163339.860000", "163340.647500", "163341.437500", "163342.225000", "163343.012500", "163343.800000", "163344.590000", "163345.377500", "163346.165000", "163346.952500", "163347.742500", "163348.530000", "163349.317500", "163350.105000", "163350.895000", "163351.682500", "163352.470000", "163353.257500", "163354.047500", "163354.835000", "163355.622500", "163356.412500", "163357.200000", "163357.987500", "163358.775000", "163359.565000", "163400.352500", "163401.140000", "163401.927500", "163402.717500", "163403.505000", "163404.292500", "163405.080000", "163405.870000", "163406.657500", "163407.445000", "163408.232500", "163409.022500", "163409.810000", "163410.597500", "163411.387500", "163412.175000", "163412.962500", "163413.750000", "163414.540000", "163415.327500", "163416.115000", "163416.902500", "163417.692500", "163418.480000", "163419.267500", "163420.055000", "163420.845000", "163421.632500", "163422.420000", "163423.207500", "163423.997500", "163424.785000", "163425.572500", "163426.360000", "163427.150000", "163427.937500", "163428.725000", "163429.515000", "163430.302500", "163431.090000", "163431.877500", "163432.667500", "163433.455000", "163434.242500", "163435.030000", "163435.820000", "163436.607500", "163437.395000", "163438.182500", "163438.972500", "163439.760000", "163440.547500", "163441.335000", "163442.125000", "163442.912500", "163443.700000", "163444.487500", "163445.277500", "163446.065000", "163446.852500", "163447.642500", "163448.430000", "163449.217500", "163450.005000", "163450.795000", "163451.582500", "163452.370000", "163453.157500", "163453.947500", "163454.735000", "163455.522500", "163456.310000", "163457.100000", "163457.887500", "163458.675000", "163459.462500", "163500.252500", "163501.040000", "163501.827500", "163502.615000", "163503.405000", "163504.192500", "163504.980000", "163505.770000", "163506.557500", "163507.345000", "163508.132500", "163508.922500", "163509.710000", "163510.497500", "163511.285000", "163512.075000", "163512.862500", "163513.650000", "163514.437500", "163515.227500", "163516.015000", "163516.802500", "163517.590000", "163518.380000", "163519.167500", "163519.955000", "163520.742500", "163521.532500", "163522.320000", "163523.107500", "163523.897500", "163524.685000", "163525.472500", "163526.260000", "163527.050000", "163527.837500", "163528.625000", "163529.412500", "163530.202500", "163530.990000", "163531.777500", "163532.565000", "163533.355000", "163534.142500", "163534.930000", "163535.717500", "163536.507500", "163537.295000", "163538.082500", "163538.870000", "163539.660000", "163540.447500", "163541.235000", "163542.025000", "163542.812500", "163543.600000", "163544.387500", "163545.177500", "163545.965000", "163546.752500", "163547.540000", "163548.330000", "163549.117500", "163549.905000", "163550.692500", "163551.482500", "163552.270000", "163553.057500", "163553.845000", "163554.635000", "163555.422500", "163556.210000", "163556.997500", "163557.787500", "163558.575000", "163559.362500", "163600.152500", "163600.940000", "163601.727500", "163602.515000", "163603.305000", "163604.092500", "163604.880000", "163605.667500", "163606.457500", "163607.245000", "163608.032500", "163608.820000", "163609.610000", "163610.397500", "163611.185000", "163611.972500", "163612.762500", "163613.550000", "163614.337500", "163615.125000", "163615.915000", "163616.702500", "163617.490000", "163618.280000", "163619.067500", "163619.855000", "163620.642500", "163621.432500", "163622.220000", "163623.007500", "163623.795000", "163624.585000", "163625.372500", "163626.160000", "163626.947500", "163627.737500", "163628.525000", "163629.312500", "163630.100000", "163630.890000", "163631.677500", "163632.465000", "163633.252500", "163634.042500", "163634.830000", "163635.617500", "163636.407500", "163637.195000", "163637.982500", "163638.770000", "163639.560000", "163640.347500", "163641.135000", "163641.922500", "163642.712500", "163643.500000", "163644.287500", "163645.075000", "163645.865000", "163646.652500", "163647.440000", "163648.227500", "163649.017500", "163649.805000", "163650.592500", "163651.380000", "163652.170000", "163652.957500", "163653.745000", "163654.535000", "163655.322500", "163656.110000", "163656.897500", "163657.687500", "163658.475000", "163659.262500", "163700.050000", "163700.840000", "163701.627500", "163702.415000", "163703.202500", "163703.992500", "163704.780000", "163705.567500", "163706.355000", "163707.145000", "163707.932500", "163708.720000", "163709.507500", "163710.297500", "163711.085000", "163711.872500", "163712.662500", "163713.450000", "163714.237500", "163715.025000", "163715.815000", "163716.602500", "163717.390000", "163718.177500", "163718.967500", "163719.755000", "163720.542500", "163721.330000", "163722.120000", "163722.907500", "163723.695000", "163724.482500", "163725.272500", "163726.060000", "163726.847500", "163727.637500", "163728.425000", "163729.212500", "163730.000000", "163730.790000", "163731.577500", "163732.365000", "163733.152500", "163733.942500", "163734.730000", "163735.517500", "163736.305000", "163737.095000", "163737.882500", "163738.670000", "163739.457500", "163740.247500", "163741.035000", "163741.822500", "163742.610000", "163743.400000", "163744.187500", "163744.975000", "163745.765000", "163746.552500", "163747.340000", "163748.127500", "163748.917500", "163749.705000", "163750.492500", "163751.280000", "163752.070000", "163752.857500", "163753.645000", "163754.432500", "163755.222500", "163756.010000", "163756.797500", "163757.585000", "163758.375000", "163759.162500", "163759.950000", "163800.737500", "163801.527500", "163802.315000", "163803.102500", "163803.892500", "163804.680000", "163805.467500", "163806.255000", "163807.045000", "163807.832500", "163808.620000", "163809.407500", "163810.197500", "163810.985000", "163811.772500", "163812.560000", "163813.350000", "163814.137500", "163814.925000", "163815.712500", "163816.502500", "163817.290000", "163818.077500", "163818.865000", "163819.655000", "163820.442500", "163821.230000", "163822.020000", "163822.807500", "163823.595000", "163824.382500", "163825.172500", "163825.960000", "163826.747500", "163827.535000", "163828.325000", "163829.112500", "163829.900000", "163830.687500", "163831.477500", "163832.265000", "163833.052500", "163833.840000", "163834.630000", "163835.417500", "163836.205000", "163836.992500", "163837.782500", "163838.570000", "163839.357500", "163840.147500", "163840.935000", "163841.722500", "163842.510000", "163843.300000", "163844.087500", "163844.875000", "163845.662500", "163846.452500", "163847.240000", "163848.027500", "163848.815000", "163849.605000", "163850.392500", "163851.180000", "163851.967500", "163852.757500", "163853.545000", "163854.332500", "163855.120000", "163855.910000", "163856.697500", "163857.485000", "163858.275000", "163859.062500", "163859.850000"],
      "ContentTime": ["163154.140000", "163154.140000", "163154.140000", "163154.156000", "163154.156000", "163154.156000", "163154.156000", "163154.156000", "163154.156000", "163154.171000", "163154.171000", "163154.171000", "163154.171000", "163154.171000", "163154.171000", "163154.187000", "163154.187000", "163154.187000", "163154.187000", "163154.187000", "163154.187000", "163154.203000", "163154.203000", "163154.203000", "163154.203000", "163154.203000", "163154.203000", "163154.203000", "163154.218000", "163154.218000", "163154.218000", "163154.218000", "163154.218000", "163154.218000", "163154.218000", "163154.234000", "163154.234000", "163214.109000", "163214.125000", "163214.125000", "163214.125000", "163214.125000", "163214.125000", "163214.125000", "163214.140000", "163214.140000", "163214.140000", "163214.140000", "163214.140000", "163214.140000", "163214.140000", "163214.156000", "163214.156000", "163214.156000", "163214.156000", "163214.156000", "163214.171000", "163214.171000", "163214.171000", "163214.171000", "163214.171000", "163214.171000", "163234.109000", "163234.125000", "163234.125000", "163234.125000", "163234.125000", "163234.125000", "163234.140000", "163234.140000", "163234.140000", "163234.140000", "163234.156000", "163234.156000", "163234.156000", "163234.156000", "163234.156000", "163234.156000", "163234.156000", "163234.171000", "163234.171000", "163234.171000", "163234.171000", "163234.171000", "163234.171000", "163234.171000", "163234.187000", "163234.187000", "163254.109000", "163254.125000", "163254.125000", "163254.125000", "163254.125000", "163254.125000", "163254.125000", "163254.125000", "163254.140000", "163254.140000", "163254.140000", "163254.140000", "163254.140000", "163254.140000", "163254.140000", "163254.156000", "163254.156000", "163254.156000", "163254.156000", "163254.156000", "163254.156000", "163254.156000", "163254.171000", "163254.171000", "163254.171000", "163314.109000", "163314.125000", "163314.125000", "163314.125000", "163314.125000", "163314.140000", "163314.140000", "163314.140000", "163314.140000", "163314.140000", "163314.140000", "163314.140000", "163314.156000", "163314.156000", "163314.156000", "163314.156000", "163314.156000", "163314.171000", "163314.171000", "163314.171000", "163314.171000", "163314.171000", "163314.171000", "163314.187000", "163314.187000", "163334.109000", "163334.125000", "163334.125000", "163334.125000", "163334.125000", "163334.125000", "163334.125000", "163334.140000", "163334.140000", "163334.140000", "163334.140000", "163334.140000", "163334.140000", "163334.140000", "163334.156000", "163334.156000", "163334.156000", "163334.156000", "163334.171000", "163334.171000", "163334.171000", "163334.171000", "163334.171000", "163334.171000", "163334.171000", "163334.187000", "163354.109000", "163354.125000", "163354.125000", "163354.125000", "163354.125000", "163354.125000", "163354.140000", "163354.140000", "163354.140000", "163354.140000", "163354.140000", "163354.140000", "163354.140000", "163354.156000", "163354.156000", "163354.156000", "163354.156000", "163354.156000", "163354.156000", "163354.156000", "163354.171000", "163354.171000", "163354.171000", "163354.171000", "163354.187000", "163414.109000", "163414.125000", "163414.125000", "163414.125000", "163414.125000", "163414.125000", "163414.125000", "163414.140000", "163414.140000", "163414.140000", "163414.140000", "163414.140000", "163414.156000", "163414.156000", "163414.156000", "163414.156000", "163414.156000", "163414.156000", "163414.156000", "163414.171000", "163414.171000", "163414.171000", "163414.171000", "163414.171000", "163414.171000", "163414.171000", "163434.109000", "163434.125000", "163434.125000", "163434.125000", "163434.125000", "163434.140000", "163434.140000", "163434.140000", "163434.140000", "163434.140000", "163434.140000", "163434.140000", "163434.156000", "163434.156000", "163434.156000", "163434.171000", "163434.171000", "163434.171000", "163434.171000", "163434.171000", "163434.187000", "163434.187000", "163434.187000", "163434.187000", "163434.187000", "163454.109000", "163454.125000", "163454.125000", "163454.125000", "163454.125000", "163454.125000", "163454.125000", "163454.125000", "163454.140000", "163454.140000", "163454.140000", "163454.140000", "163454.140000", "163454.140000", "163454.156000", "163454.156000", "163454.156000", "163454.156000", "163454.156000", "163454.156000", "163454.156000", "163454.156000", "163454.171000", "163454.171000", "163454.171000", "163454.171000", "163514.109000", "163514.125000", "163514.125000", "163514.125000", "163514.125000", "163514.125000", "163514.125000", "163514.125000", "163514.140000", "163514.140000", "163514.140000", "163514.140000", "163514.140000", "163514.140000", "163514.156000", "163514.156000", "163514.156000", "163514.156000", "163514.156000", "163514.156000", "163514.156000", "163514.171000", "163514.171000", "163514.171000", "163514.171000", "163534.109000", "163534.125000", "163534.125000", "163534.125000", "163534.125000", "163534.125000", "163534.125000", "163534.140000", "163534.140000", "163534.140000", "163534.140000", "163534.140000", "163534.156000", "163534.156000", "163534.156000", "163534.156000", "163534.156000", "163534.156000", "163534.156000", "163534.171000", "163534.171000", "163534.171000", "163534.171000", "163534.171000", "163534.171000", "163534.171000", "163554.109000", "163554.125000", "163554.125000", "163554.125000", "163554.125000", "163554.125000", "163554.125000", "163554.140000", "163554.140000", "163554.140000", "163554.140000", "163554.140000", "163554.140000", "163554.140000", "163554.156000", "163554.156000", "163554.156000", "163554.156000", "163554.156000", "163554.156000", "163554.156000", "163554.171000", "163554.171000", "163554.171000", "163554.171000", "163614.109000", "163614.125000", "163614.125000", "163614.125000", "163614.125000", "163614.125000", "163614.125000", "163614.140000", "163614.140000", "163614.140000", "163614.140000", "163614.140000", "163614.140000", "163614.140000", "163614.156000", "163614.156000", "163614.156000", "163614.156000", "163614.156000", "163614.156000", "163614.156000", "163614.171000", "163614.171000", "163614.171000", "163614.171000", "163614.171000", "163634.109000", "163634.125000", "163634.125000", "163634.125000", "163634.125000", "163634.125000", "163634.125000", "163634.140000", "163634.140000", "163634.140000", "163634.140000", "163634.140000", "163634.140000", "163634.140000", "163634.156000", "163634.156000", "163634.156000", "163634.156000", "163634.156000", "163634.156000", "163634.156000", "163634.171000", "163634.171000", "163634.171000", "163634.171000", "163654.109000", "163654.125000", "163654.125000", "163654.125000", "163654.125000", "163654.125000", "163654.125000", "163654.140000", "163654.140000", "163654.140000", "163654.140000", "163654.140000", "163654.140000", "163654.140000", "163654.156000", "163654.156000", "163654.156000", "163654.156000", "163654.156000", "163654.156000", "163654.156000", "163654.171000", "163654.171000", "163654.171000", "163654.171000", "163654.171000", "163714.109000", "163714.125000", "163714.125000", "163714.125000", "163714.125000", "163714.125000", "163714.125000", "163714.140000", "163714.140000", "163714.140000", "163714.140000", "163714.140000", "163714.140000", "163714.140000", "163714.156000", "163714.156000", "163714.156000", "163714.156000", "163714.156000", "163714.156000", "163714.171000", "163714.171000", "163714.171000", "163714.171000", "163714.171000", "163734.109000", "163734.125000", "163734.125000", "163734.125000", "163734.125000", "163734.125000", "163734.125000", "163734.140000", "163734.140000", "163734.140000", "163734.140000", "163734.140000", "163734.156000", "163734.156000", "163734.156000", "163734.156000", "163734.156000", "163734.156000", "163734.156000", "163734.171000", "163734.171000", "163734.171000", "163734.171000", "163734.171000", "163734.171000", "163734.171000", "163754.109000", "163754.125000", "163754.125000", "163754.125000", "163754.125000", "163754.125000", "163754.125000", "163754.140000", "163754.140000", "163754.140000", "163754.140000", "163754.140000", "163754.140000", "163754.140000", "163754.156000", "163754.156000", "163754.156000", "163754.156000", "163754.156000", "163754.156000", "163754.156000", "163754.171000", "163754.171000", "163754.171000", "163754.171000", "163814.109000", "163814.125000", "163814.125000", "163814.125000", "163814.125000", "163814.125000", "163814.125000", "163814.140000", "163814.140000", "163814.140000", "163814.140000", "163814.140000", "163814.140000", "163814.140000", "163814.156000", "163814.156000", "163814.156000", "163814.156000", "163814.156000", "163814.156000", "163814.156000", "163814.171000", "163814.171000", "163814.171000", "163814.171000", "163814.171000", "163834.109000", "163834.125000", "163834.125000", "163834.125000", "163834.125000", "163834.125000", "163834.125000", "163834.140000", "163834.140000", "163834.140000", "163834.140000", "163834.140000", "163834.156000", "163834.156000", "163834.156000", "163834.156000", "163834.156000", "163834.156000", "163834.156000", "163834.171000", "163834.171000", "163834.171000", "163834.171000", "163834.171000", "163834.171000", "163854.109000", "163854.125000", "163854.125000", "163854.125000", "163854.125000", "163854.125000", "163854.125000", "163854.140000", "163854.140000", "163854.140000", "163854.140000", "163854.140000", "163854.140000", "163854.140000", "163854.156000", "163854.156000", "163854.156000", "163854.156000", "163854.156000", "163854.156000", "163854.156000", "163854.171000", "163854.171000", "163854.171000", "163854.171000", "163854.171000", "163901.187000", "163901.187000", "163901.187000", "163901.187000", "163901.203000", "163901.203000", "163901.203000", "163901.203000", "163901.203000"],
      "DataSetTrailingPadding": [
        "\u0000\u0000\u0000\u0000\u0000\u0000\u0000\u0000\u0000\u0000\u0000\u0000\u0000\u0000\u0000\u0000\u0000\u0000\u0000\u0000\u0000\u0000\u0000\u0000\u0000\u0000\u0000\u0000\u0000\u0000\u0000\u0000\u0000\u0000\u0000\u0000\u0000\u0000\u0000\u0000\u0000\u0000\u0000\u0000\u0000\u0000\u0000\u0000\u0000\u0000\u0000\u0000\u0000\u0000\u0000\u0000\u0000\u0000\u0000\u0000\u0000\u0000\u0000\u0000\u0000\u0000\u0000\u0000\u0000\u0000\u0000\u0000\u0000\u0000\u0000\u0000\u0000\u0000\u0000\u0000\u0000\u0000\u0000\u0000\u0000\u0000\u0000\u0000\u0000\u0000\u0000\u0000\u0000\u0000\u0000\u0000\u0000\u0000\u0000\u0000\u0000\u0000\u0000\u0000\u0000\u0000\u0000\u0000\u0000\u0000\u0000\u0000\u0000\u0000\u0000\u0000\u0000\u0000\u0000\u0000\u0000\u0000",
        "\u0000\u0000\u0000\u0000\u0000\u0000\u0000\u0000\u0000\u0000\u0000\u0000\u0000\u0000\u0000\u0000\u0000\u0000\u0000\u0000\u0000\u0000\u0000\u0000\u0000\u0000\u0000\u0000\u0000\u0000\u0000\u0000\u0000\u0000\u0000\u0000\u0000\u0000\u0000\u0000\u0000\u0000\u0000\u0000\u0000\u0000\u0000\u0000\u0000\u0000\u0000\u0000\u0000\u0000\u0000\u0000\u0000\u0000\u0000\u0000\u0000\u0000\u0000\u0000\u0000\u0000\u0000\u0000\u0000\u0000\u0000\u0000\u0000\u0000\u0000\u0000\u0000\u0000\u0000\u0000\u0000\u0000\u0000\u0000\u0000\u0000\u0000\u0000\u0000\u0000\u0000\u0000\u0000\u0000\u0000\u0000\u0000\u0000\u0000\u0000\u0000\u0000\u0000\u0000\u0000\u0000\u0000\u0000\u0000\u0000\u0000\u0000\u0000\u0000\u0000\u0000\u0000\u0000",
