{
  "AcquisitionMatrixPE": 104,
  "AcquisitionNumber": 1,
  "AcquisitionTime": "16:28:56.725000",
  "BandwidthPerPixelPhaseEncode": 13.935,
  "BaseResolution": 104,
  "CoilString": "C:HEA;HEP",
  "ConversionSoftware": "dcm2niix",
  "ConversionSoftwareVersion": "v1.0.20210317",
  "DerivedVendorReportedEchoSpacing": 0.000690017,
  "DeviceSerialNumber": "35450",
  "DwellTime": 2.5e-06,
  "EchoTime": 0.0348,
  "EffectiveEchoSpacing": 0.000690017,
  "FlipAngle": 55,
  "ImageComments": "Unaliased MB8/PE3",
  "ImageOrientationPatientDICOM": [0.999781, 0.000292439, 0.0209404, -3.70528e-08, 0.999903, -0.0139622],
  "ImageType": [
    "ORIGINAL",
    "PRIMARY",
    "M",
    "MB",
    "ND",
    "MOSAIC"
],
  "ImagingFrequency": 123.235,
  "InPlanePhaseEncodingDirectionDICOM": "COL",
  "InstitutionAddress": "Univeristy Ave. 197,Newark,North East,US,07102-1814",
  "InstitutionName": "RUBIC",
  "InstitutionalDepartmentName": "Department",
  "MRAcquisitionType": "2D",
  "MagneticFieldStrength": 3,
  "Manufacturer": "Siemens",
  "ManufacturersModelName": "TrioTim",
  "Modality": "MR",
  "MultibandAccelerationFactor": 8,
  "PartialFourier": 0.875,
  "PatientPosition": "HFS",
  "PercentPhaseFOV": 100,
  "PercentSampling": 100,
  "PhaseEncodingDirection": "j-",
  "PhaseEncodingSteps": 91,
  "PhaseResolution": 1,
  "PixelBandwidth": 1923,
  "ProcedureStepDescription": "Cole^Michael",
  "ProtocolName": "cmrr_mbep2d_bold_2mm_MB8_Task_8x",
  "PulseSequenceDetails": "%CustomerSeq%\\cmrr_mbep2d_bold",
  "ReceiveCoilName": "32Ch_Head",
  "ReconMatrixPE": 104,
  "RepetitionTime": 0.785,
  "SAR": 0.165453,
  "ScanOptions": "PFP\\FS",
  "ScanningSequence": "EP",
  "SequenceName": "epfid2d1_104",
  "SequenceVariant": "SK\\SS",
  "SeriesDescription": "cmrr_mbep2d_bold_2mm_MB8_Task_8x",
  "SeriesNumber": 23,
  "ShimSetting": [2127, -486, -7263, 574, -91, -221, 179, -132],
  "SliceThickness": 2,
  "SliceTiming": [0, 0.4375, 0.0875, 0.525, 0.175, 0.6125, 0.2625, 0.7, 0.35, 0, 0.4375, 0.0875, 0.525, 0.175, 0.6125, 0.2625, 0.7, 0.35, 0, 0.4375, 0.0875, 0.525, 0.175, 0.6125, 0.2625, 0.7, 0.35, 0, 0.4375, 0.0875, 0.525, 0.175, 0.6125, 0.2625, 0.7, 0.35, 0, 0.4375, 0.0875, 0.525, 0.175, 0.6125, 0.2625, 0.7, 0.35, 0, 0.4375, 0.0875, 0.525, 0.175, 0.6125, 0.2625, 0.7, 0.35, 0, 0.4375, 0.0875, 0.525, 0.175, 0.6125, 0.2625, 0.7, 0.35, 0, 0.4375, 0.0875, 0.525, 0.175, 0.6125, 0.2625, 0.7, 0.35],
  "SoftwareVersions": "syngo MR B19",
  "SpacingBetweenSlices": 2,
  "StationName": "MRC35450",
  "TaskName": "cpro",
  "TotalReadoutTime": 0.0710717,
  "TxRefAmp": 385.324,
  "dcmmeta_affine": [
    [-1.9995613098144531, -7.410552171904783e-08, 0.04188484326004982, 102.49028015136719],
    [-0.0005848778528161347, 1.9998050928115845, -0.027918236330151558, -88.16078186035156],
    [0.04188075661659241, 0.02792436257004738, 1.9993665218353271, -86.21315002441406],
    [0.0, 0.0, 0.0, 1.0]
],
  "dcmmeta_reorient_transform": [
    [0.0, -1.0, 0.0, 103.0],
    [1.0, 0.0, 0.0, 0.0],
    [0.0, 0.0, 1.0, 0.0],
    [0.0, 0.0, 0.0, 1.0]
],
  "dcmmeta_shape": [104, 104, 72, 581],
  "dcmmeta_slice_dim": 2,
  "dcmmeta_version": 0.6,
  "global": {
    "const": {
      "AcquisitionMatrix": [104, 0, 0, 104],
      "AngioFlag": "N",
      "BitsAllocated": 16,
      "BitsStored": 12,
      "Columns": 936,
      "EchoNumbers": 1,
      "EchoTime": 34.8,
      "EchoTrainLength": 1,
      "FlipAngle": 55.0,
      "HighBit": 11,
      "ImageOrientationPatient": [0.99978068345824, 0.00029243891402, 0.02094037877551, -3.705276e-08, 0.99990252399678, -0.013962181236],
      "ImagePositionPatient": [-934.30777326185, -949.98134869546, -89.142798951707],
      "ImageType": [
        "ORIGINAL",
        "PRIMARY",
        "M",
        "MB",
        "ND",
        "MOSAIC"
],
      "ImagedNucleus": "1H",
      "ImagingFrequency": 123.234584,
      "InPlanePhaseEncodingDirection": "COL",
      "MRAcquisitionType": "2D",
      "MagneticFieldStrength": 3.0,
      "Manufacturer": "SIEMENS",
      "ManufacturerModelName": "TrioTim",
      "Modality": "MR",
      "NumberOfAverages": 1.0,
      "NumberOfPhaseEncodingSteps": 91,
      "PercentPhaseFieldOfView": 100.0,
      "PercentSampling": 100.0,
      "PerformedProcedureStepStartTime": "144633.343000",
      "PhotometricInterpretation": "MONOCHROME2",
      "PixelBandwidth": 1923.0,
      "PixelRepresentation": 0,
      "PixelSpacing": [2.0, 2.0],
      "ProtocolName": "cmrr_mbep2d_bold_2mm_MB8_Task_8x",
      "RepetitionTime": 785.0,
      "Rows": 936,
      "SAR": 0.16545277246203,
      "SamplesPerPixel": 1,
      "ScanOptions": [
        "PFP",
        "FS"
],
      "ScanningSequence": "EP",
      "SequenceName": "epfid2d1_104",
      "SequenceVariant": [
        "SK",
        "SS"
],
      "SeriesDescription": "cmrr_mbep2d_bold_2mm_MB8_Task_8x",
      "SeriesNumber": 23,
      "SeriesTime": "175052.968000",
      "SliceLocation": -82.808796706389,
      "SliceThickness": 2.0,
      "SmallestImagePixelValue": 0,
      "SoftwareVersions": "syngo MR B19",
      "SpacingBetweenSlices": 2.0000000336909,
      "SpecificCharacterSet": "ISO_IR 100",
      "StudyID": "1",
      "StudyTime": "144633.296000",
      "TransmitCoilName": "Body",
      "VariableFlipAngleFlag": "N",
      "WindowCenterWidthExplanation": "Algo1",
      "dBdt": 0.0},
    "slices": {}
  },
  "time": {
    "samples": {
      "AcquisitionNumber": [1, 2, 3, 4, 5, 6, 7, 8, 9, 10, 11, 12, 13, 14, 15, 16, 17, 18, 19, 20, 21, 22, 23, 24, 25, 26, 27, 28, 29, 30, 31, 32, 33, 34, 35, 36, 37, 38, 39, 40, 41, 42, 43, 44, 45, 46, 47, 48, 49, 50, 51, 52, 53, 54, 55, 56, 57, 58, 59, 60, 61, 62, 63, 64, 65, 66, 67, 68, 69, 70, 71, 72, 73, 74, 75, 76, 77, 78, 79, 80, 81, 82, 83, 84, 85, 86, 87, 88, 89, 90, 91, 92, 93, 94, 95, 96, 97, 98, 99, 100, 101, 102, 103, 104, 105, 106, 107, 108, 109, 110, 111, 112, 113, 114, 115, 116, 117, 118, 119, 120, 121, 122, 123, 124, 125, 126, 127, 128, 129, 130, 131, 132, 133, 134, 135, 136, 137, 138, 139, 140, 141, 142, 143, 144, 145, 146, 147, 148, 149, 150, 151, 152, 153, 154, 155, 156, 157, 158, 159, 160, 161, 162, 163, 164, 165, 166, 167, 168, 169, 170, 171, 172, 173, 174, 175, 176, 177, 178, 179, 180, 181, 182, 183, 184, 185, 186, 187, 188, 189, 190, 191, 192, 193, 194, 195, 196, 197, 198, 199, 200, 201, 202, 203, 204, 205, 206, 207, 208, 209, 210, 211, 212, 213, 214, 215, 216, 217, 218, 219, 220, 221, 222, 223, 224, 225, 226, 227, 228, 229, 230, 231, 232, 233, 234, 235, 236, 237, 238, 239, 240, 241, 242, 243, 244, 245, 246, 247, 248, 249, 250, 251, 252, 253, 254, 255, 256, 257, 258, 259, 260, 261, 262, 263, 264, 265, 266, 267, 268, 269, 270, 271, 272, 273, 274, 275, 276, 277, 278, 279, 280, 281, 282, 283, 284, 285, 286, 287, 288, 289, 290, 291, 292, 293, 294, 295, 296, 297, 298, 299, 300, 301, 302, 303, 304, 305, 306, 307, 308, 309, 310, 311, 312, 313, 314, 315, 316, 317, 318, 319, 320, 321, 322, 323, 324, 325, 326, 327, 328, 329, 330, 331, 332, 333, 334, 335, 336, 337, 338, 339, 340, 341, 342, 343, 344, 345, 346, 347, 348, 349, 350, 351, 352, 353, 354, 355, 356, 357, 358, 359, 360, 361, 362, 363, 364, 365, 366, 367, 368, 369, 370, 371, 372, 373, 374, 375, 376, 377, 378, 379, 380, 381, 382, 383, 384, 385, 386, 387, 388, 389, 390, 391, 392, 393, 394, 395, 396, 397, 398, 399, 400, 401, 402, 403, 404, 405, 406, 407, 408, 409, 410, 411, 412, 413, 414, 415, 416, 417, 418, 419, 420, 421, 422, 423, 424, 425, 426, 427, 428, 429, 430, 431, 432, 433, 434, 435, 436, 437, 438, 439, 440, 441, 442, 443, 444, 445, 446, 447, 448, 449, 450, 451, 452, 453, 454, 455, 456, 457, 458, 459, 460, 461, 462, 463, 464, 465, 466, 467, 468, 469, 470, 471, 472, 473, 474, 475, 476, 477, 478, 479, 480, 481, 482, 483, 484, 485, 486, 487, 488, 489, 490, 491, 492, 493, 494, 495, 496, 497, 498, 499, 500, 501, 502, 503, 504, 505, 506, 507, 508, 509, 510, 511, 512, 513, 514, 515, 516, 517, 518, 519, 520, 521, 522, 523, 524, 525, 526, 527, 528, 529, 530, 531, 532, 533, 534, 535, 536, 537, 538, 539, 540, 541, 542, 543, 544, 545, 546, 547, 548, 549, 550, 551, 552, 553, 554, 555, 556, 557, 558, 559, 560, 561, 562, 563, 564, 565, 566, 567, 568, 569, 570, 571, 572, 573, 574, 575, 576, 577, 578, 579, 580, 581],
      "AcquisitionTime": ["162856.725000", "162857.512500", "162858.300000", "162859.090000", "162859.877500", "162900.665000", "162901.452500", "162902.242500", "162903.030000", "162903.817500", "162904.605000", "162905.395000", "162906.182500", "162906.970000", "162907.757500", "162908.547500", "162909.335000", "162910.122500", "162910.912500", "162911.700000", "162912.487500", "162913.275000", "162914.065000", "162914.852500", "162915.640000", "162916.427500", "162917.217500", "162918.005000", "162918.792500", "162919.580000", "162920.370000", "162921.157500", "162921.945000", "162922.732500", "162923.522500", "162924.310000", "162925.097500", "162925.885000", "162926.675000", "162927.462500", "162928.250000", "162929.040000", "162929.827500", "162930.615000", "162931.402500", "162932.192500", "162932.980000", "162933.767500", "162934.555000", "162935.345000", "162936.132500", "162936.920000", "162937.707500", "162938.497500", "162939.285000", "162940.072500", "162940.860000", "162941.650000", "162942.437500", "162943.225000", "162944.012500", "162944.802500", "162945.590000", "162946.377500", "162947.167500", "162947.955000", "162948.742500", "162949.530000", "162950.320000", "162951.107500", "162951.895000", "162952.682500", "162953.472500", "162954.260000", "162955.047500", "162955.835000", "162956.625000", "162957.412500", "162958.200000", "162958.987500", "162959.777500", "163000.565000", "163001.352500", "163002.140000", "163002.930000", "163003.717500", "163004.505000", "163005.295000", "163006.082500", "163006.870000", "163007.657500", "163008.447500", "163009.235000", "163010.022500", "163010.810000", "163011.600000", "163012.387500", "163013.175000", "163013.962500", "163014.752500", "163015.540000", "163016.327500", "163017.115000", "163017.905000", "163018.692500", "163019.480000", "163020.270000", "163021.057500", "163021.845000", "163022.632500", "163023.422500", "163024.210000", "163024.997500", "163025.785000", "163026.575000", "163027.362500", "163028.150000", "163028.937500", "163029.727500", "163030.515000", "163031.302500", "163032.090000", "163032.880000", "163033.667500", "163034.455000", "163035.242500", "163036.032500", "163036.820000", "163037.607500", "163038.397500", "163039.185000", "163039.972500", "163040.760000", "163041.550000", "163042.337500", "163043.125000", "163043.912500", "163044.702500", "163045.490000", "163046.277500", "163047.065000", "163047.855000", "163048.642500", "163049.430000", "163050.217500", "163051.007500", "163051.795000", "163052.582500", "163053.370000", "163054.160000", "163054.947500", "163055.735000", "163056.525000", "163057.312500", "163058.100000", "163058.887500", "163059.677500", "163100.465000", "163101.252500", "163102.040000", "163102.830000", "163103.617500", "163104.405000", "163105.192500", "163105.982500", "163106.770000", "163107.557500", "163108.345000", "163109.135000", "163109.922500", "163110.710000", "163111.497500", "163112.287500", "163113.075000", "163113.862500", "163114.652500", "163115.440000", "163116.227500", "163117.015000", "163117.805000", "163118.592500", "163119.380000", "163120.167500", "163120.957500", "163121.745000", "163122.532500", "163123.320000", "163124.110000", "163124.897500", "163125.685000", "163126.472500", "163127.262500", "163128.050000", "163128.837500", "163129.625000", "163130.415000", "163131.202500", "163131.990000", "163132.780000", "163133.567500", "163134.355000", "163135.142500", "163135.932500", "163136.720000", "163137.507500", "163138.295000", "163139.085000", "163139.872500", "163140.660000", "163141.447500", "163142.237500", "163143.025000", "163143.812500", "163144.600000", "163145.390000", "163146.177500", "163146.965000", "163147.752500", "163148.542500", "163149.330000", "163150.117500", "163150.907500", "163151.695000", "163152.482500", "163153.270000", "163154.060000", "163154.847500", "163155.635000", "163156.422500", "163157.212500", "163158.000000", "163158.787500", "163159.575000", "163200.365000", "163201.152500", "163201.940000", "163202.727500", "163203.517500", "163204.305000", "163205.092500", "163205.880000", "163206.670000", "163207.457500", "163208.245000", "163209.035000", "163209.822500", "163210.610000", "163211.397500", "163212.187500", "163212.975000", "163213.762500", "163214.550000", "163215.340000", "163216.127500", "163216.915000", "163217.702500", "163218.492500", "163219.280000", "163220.067500", "163220.855000", "163221.645000", "163222.432500", "163223.220000", "163224.007500", "163224.797500", "163225.585000", "163226.372500", "163227.162500", "163227.950000", "163228.737500", "163229.525000", "163230.315000", "163231.102500", "163231.890000", "163232.677500", "163233.467500", "163234.255000", "163235.042500", "163235.830000", "163236.620000", "163237.407500", "163238.195000", "163238.982500", "163239.772500", "163240.560000", "163241.347500", "163242.135000", "163242.925000", "163243.712500", "163244.500000", "163245.290000", "163246.077500", "163246.865000", "163247.652500", "163248.442500", "163249.230000", "163250.017500", "163250.805000", "163251.595000", "163252.382500", "163253.170000", "163253.957500", "163254.747500", "163255.535000", "163256.322500", "163257.110000", "163257.900000", "163258.687500", "163259.475000", "163300.262500", "163301.052500", "163301.840000", "163302.627500", "163303.417500", "163304.205000", "163304.992500", "163305.780000", "163306.570000", "163307.357500", "163308.145000", "163308.932500", "163309.722500", "163310.510000", "163311.297500", "163312.085000", "163312.875000", "163313.662500", "163314.450000", "163315.237500", "163316.027500", "163316.815000", "163317.602500", "163318.390000", "163319.180000", "163319.967500", "163320.755000", "163321.545000", "163322.332500", "163323.120000", "163323.907500", "163324.697500", "163325.485000", "163326.272500", "163327.060000", "163327.850000", "163328.637500", "163329.425000", "163330.212500", "163331.002500", "163331.790000", "163332.577500", "163333.365000", "163334.155000", "163334.942500", "163335.730000", "163336.520000", "163337.307500", "163338.095000", "163338.882500", "163339.672500", "163340.460000", "163341.247500", "163342.035000", "163342.825000", "163343.612500", "163344.400000", "163345.187500", "163345.977500", "163346.765000", "163347.552500", "163348.340000", "163349.130000", "163349.917500", "163350.705000", "163351.492500", "163352.282500", "163353.070000", "163353.857500", "163354.647500", "163355.435000", "163356.222500", "163357.010000", "163357.800000", "163358.587500", "163359.375000", "163400.162500", "163400.952500", "163401.740000", "163402.527500", "163403.315000", "163404.105000", "163404.892500", "163405.680000", "163406.467500", "163407.257500", "163408.045000", "163408.832500", "163409.620000", "163410.410000", "163411.197500", "163411.985000", "163412.775000", "163413.562500", "163414.350000", "163415.137500", "163415.927500", "163416.715000", "163417.502500", "163418.290000", "163419.080000", "163419.867500", "163420.655000", "163421.442500", "163422.232500", "163423.020000", "163423.807500", "163424.595000", "163425.385000", "163426.172500", "163426.960000", "163427.747500", "163428.537500", "163429.325000", "163430.112500", "163430.902500", "163431.690000", "163432.477500", "163433.265000", "163434.055000", "163434.842500", "163435.630000", "163436.417500", "163437.207500", "163437.995000", "163438.782500", "163439.570000", "163440.360000", "163441.147500", "163441.935000", "163442.722500", "163443.512500", "163444.300000", "163445.087500", "163445.875000", "163446.665000", "163447.452500", "163448.240000", "163449.030000", "163449.817500", "163450.605000", "163451.392500", "163452.182500", "163452.970000", "163453.757500", "163454.545000", "163455.335000", "163456.122500", "163456.910000", "163457.697500", "163458.487500", "163459.275000", "163500.062500", "163500.850000", "163501.640000", "163502.427500", "163503.215000", "163504.002500", "163504.792500", "163505.580000", "163506.367500", "163507.157500", "163507.945000", "163508.732500", "163509.520000", "163510.310000", "163511.097500", "163511.885000", "163512.672500", "163513.462500", "163514.250000", "163515.037500", "163515.825000", "163516.615000", "163517.402500", "163518.190000", "163518.977500", "163519.767500", "163520.555000", "163521.342500", "163522.130000", "163522.920000", "163523.707500", "163524.495000", "163525.285000", "163526.072500", "163526.860000", "163527.647500", "163528.437500", "163529.225000", "163530.012500", "163530.800000", "163531.590000", "163532.377500", "163533.165000", "163533.952500", "163534.742500", "163535.530000", "163536.317500", "163537.105000", "163537.895000", "163538.682500", "163539.470000", "163540.257500", "163541.047500", "163541.835000", "163542.622500", "163543.412500", "163544.200000", "163544.987500", "163545.775000", "163546.565000", "163547.352500", "163548.140000", "163548.927500", "163549.717500", "163550.505000", "163551.292500", "163552.080000", "163552.870000", "163553.657500", "163554.445000", "163555.232500", "163556.022500", "163556.810000", "163557.597500", "163558.385000", "163559.175000", "163559.962500", "163600.750000", "163601.540000", "163602.327500", "163603.115000", "163603.902500", "163604.692500", "163605.480000", "163606.267500", "163607.055000", "163607.845000", "163608.632500", "163609.420000", "163610.207500", "163610.997500", "163611.785000", "163612.572500", "163613.360000", "163614.150000", "163614.937500", "163615.725000", "163616.512500", "163617.302500", "163618.090000", "163618.877500", "163619.667500", "163620.455000", "163621.242500", "163622.030000", "163622.820000", "163623.607500", "163624.395000", "163625.182500", "163625.972500", "163626.760000", "163627.547500", "163628.335000", "163629.125000", "163629.912500", "163630.700000", "163631.487500", "163632.277500", "163633.065000", "163633.852500"],
      "ContentTime": ["175052.968000", "175052.968000", "175052.968000", "175052.984000", "175052.984000", "175052.984000", "175052.984000", "175052.984000", "175052.984000", "175152.937000", "175152.953000", "175152.953000", "175152.953000", "175152.953000", "175152.953000", "175152.953000", "175152.968000", "175152.968000", "175152.968000", "175152.968000", "175152.968000", "175152.968000", "175152.984000", "175152.984000", "175152.984000", "175152.984000", "175152.984000", "175152.984000", "175152.984000", "175153.000000", "175153.000000", "175153.000000", "175153.000000", "175153.000000", "175153.000000", "175153.000000", "175153.015000", "175252.937000", "175252.953000", "175252.953000", "175252.953000", "175252.953000", "175252.953000", "175252.953000", "175252.953000", "175252.968000", "175252.968000", "175252.968000", "175252.968000", "175252.968000", "175252.968000", "175252.968000", "175252.984000", "175252.984000", "175252.984000", "175252.984000", "175252.984000", "175253.000000", "175253.000000", "175253.000000", "175253.000000", "175253.000000", "175253.000000", "175253.000000", "175253.015000", "175253.015000", "175352.937000", "175352.953000", "175352.953000", "175352.953000", "175352.953000", "175352.953000", "175352.953000", "175352.968000", "175352.968000", "175352.968000", "175352.968000", "175352.968000", "175352.968000", "175352.968000", "175352.984000", "175352.984000", "175352.984000", "175352.984000", "175352.984000", "175352.984000", "175352.984000", "175353.000000", "175353.000000", "175353.000000", "175353.000000", "175353.000000", "175353.015000", "175353.015000", "175452.937000", "175452.953000", "175452.953000", "175452.953000", "175452.953000", "175452.953000", "175452.953000", "175452.968000", "175452.968000", "175452.968000", "175452.968000", "175452.968000", "175452.968000", "175452.968000", "175452.984000", "175452.984000", "175452.984000", "175452.984000", "175452.984000", "175452.984000", "175452.984000", "175453.000000", "175453.000000", "175453.000000", "175453.000000", "175453.000000", "175453.000000", "175453.000000", "175552.937000", "175552.953000", "175552.953000", "175552.953000", "175552.953000", "175552.953000", "175552.953000", "175552.968000", "175552.968000", "175552.968000", "175552.968000", "175552.968000", "175552.968000", "175552.968000", "175552.984000", "175552.984000", "175552.984000", "175552.984000", "175552.984000", "175552.984000", "175552.984000", "175553.000000", "175553.000000", "175553.000000", "175553.000000", "175553.000000", "175553.000000", "175553.000000", "175632.937000", "175632.953000", "175632.953000", "175632.953000", "175632.953000", "175632.953000", "175632.953000", "175632.968000", "175632.968000", "175632.968000", "175632.968000", "175632.968000", "175632.968000", "175632.968000", "175632.984000", "175632.984000", "175632.984000", "175632.984000", "175632.984000", "175732.937000", "175732.953000", "175732.953000", "175732.953000", "175732.953000", "175732.953000", "175732.953000", "175732.968000", "175732.968000", "175732.968000", "175732.968000", "175732.968000", "175732.968000", "175732.968000", "175732.984000", "175732.984000", "175732.984000", "175732.984000", "175732.984000", "175732.984000", "175733.000000", "175733.000000", "175733.000000", "175733.000000", "175733.000000", "175733.000000", "175733.000000", "175733.015000", "175832.937000", "175832.953000", "175832.953000", "175832.953000", "175832.953000", "175832.953000", "175832.953000", "175832.968000", "175832.968000", "175832.968000", "175832.968000", "175832.968000", "175832.968000", "175832.968000", "175832.984000", "175832.984000", "175832.984000", "175832.984000", "175832.984000", "175833.000000", "175833.000000", "175833.000000", "175833.000000", "175833.000000", "175833.000000", "175833.015000", "175833.015000", "175833.015000", "175932.937000", "175932.953000", "175932.953000", "175932.953000", "175932.953000", "175932.953000", "175932.953000", "175932.968000", "175932.968000", "175932.968000", "175932.968000", "175932.968000", "175932.968000", "175932.968000", "175932.984000", "175932.984000", "175932.984000", "175932.984000", "175932.984000", "175932.984000", "175932.984000", "175933.000000", "175933.000000", "175933.000000", "175933.000000", "175933.000000", "175933.000000", "175933.000000", "175933.015000", "180032.937000", "180032.953000", "180032.953000", "180032.953000", "180032.953000", "180032.953000", "180032.953000", "180032.968000", "180032.968000", "180032.968000", "180032.968000", "180032.968000", "180032.968000", "180032.968000", "180032.984000", "180032.984000", "180032.984000", "180032.984000", "180032.984000", "180032.984000", "180032.984000", "180033.000000", "180033.000000", "180033.000000", "180033.000000", "180033.000000", "180033.015000", "180033.015000", "180132.937000", "180132.953000", "180132.953000", "180132.953000", "180132.953000", "180132.953000", "180132.953000", "180132.968000", "180132.968000", "180132.968000", "180132.968000", "180132.968000", "180132.968000", "180132.968000", "180132.984000", "180132.984000", "180132.984000", "180132.984000", "180132.984000", "180132.984000", "180132.984000", "180133.000000", "180133.000000", "180133.000000", "180133.000000", "180133.000000", "180133.000000", "180133.000000", "180232.937000", "180232.953000", "180232.953000", "180232.953000", "180232.953000", "180232.953000", "180232.953000", "180232.968000", "180232.968000", "180232.968000", "180232.968000", "180232.968000", "180232.968000", "180232.968000", "180232.984000", "180232.984000", "180232.984000", "180232.984000", "180232.984000", "180232.984000", "180232.984000", "180233.000000", "180233.000000", "180233.000000", "180233.000000", "180233.000000", "180233.015000", "180233.015000", "180233.015000", "180332.937000", "180332.953000", "180332.953000", "180332.953000", "180332.953000", "180332.953000", "180332.953000", "180332.968000", "180332.968000", "180332.968000", "180332.968000", "180332.968000", "180332.968000", "180332.968000", "180332.984000", "180332.984000", "180332.984000", "180332.984000", "180332.984000", "180332.984000", "180332.984000", "180333.000000", "180333.000000", "180333.000000", "180333.000000", "180333.000000", "180333.000000", "180333.000000", "180432.937000", "180432.953000", "180432.953000", "180432.953000", "180432.953000", "180432.953000", "180432.953000", "180432.968000", "180432.968000", "180432.968000", "180432.968000", "180432.968000", "180432.968000", "180432.968000", "180432.984000", "180432.984000", "180432.984000", "180432.984000", "180432.984000", "180432.984000", "180432.984000", "180433.000000", "180433.000000", "180433.000000", "180433.000000", "180433.000000", "180433.000000", "180433.000000", "180532.937000", "180532.953000", "180532.953000", "180532.953000", "180532.953000", "180532.953000", "180532.953000", "180532.968000", "180532.968000", "180532.968000", "180532.968000", "180532.968000", "180532.968000", "180532.968000", "180532.984000", "180532.984000", "180532.984000", "180532.984000", "180532.984000", "180532.984000", "180532.984000", "180533.000000", "180533.000000", "180533.000000", "180533.000000", "180533.000000", "180533.015000", "180533.015000", "180632.937000", "180632.953000", "180632.953000", "180632.953000", "180632.953000", "180632.953000", "180632.953000", "180632.968000", "180632.968000", "180632.968000", "180632.968000", "180632.968000", "180632.968000", "180632.968000", "180632.984000", "180632.984000", "180632.984000", "180632.984000", "180632.984000", "180632.984000", "180632.984000", "180633.000000", "180633.000000", "180633.000000", "180633.000000", "180633.000000", "180633.000000", "180633.000000", "180732.937000", "180732.953000", "180732.953000", "180732.953000", "180732.953000", "180732.953000", "180732.953000", "180732.968000", "180732.968000", "180732.968000", "180732.968000", "180732.968000", "180732.968000", "180732.968000", "180732.984000", "180732.984000", "180732.984000", "180732.984000", "180732.984000", "180732.984000", "180732.984000", "180733.000000", "180733.000000", "180733.000000", "180733.000000", "180733.000000", "180733.000000", "180733.000000", "180733.015000", "180832.937000", "180832.953000", "180832.953000", "180832.953000", "180832.953000", "180832.953000", "180832.953000", "180832.968000", "180832.968000", "180832.968000", "180832.968000", "180832.968000", "180832.968000", "180832.968000", "180832.984000", "180832.984000", "180832.984000", "180832.984000", "180832.984000", "180832.984000", "180832.984000", "180833.000000", "180833.000000", "180833.000000", "180833.000000", "180833.000000", "180833.000000", "180833.000000", "180932.937000", "180932.953000", "180932.953000", "180932.953000", "180932.953000", "180932.953000", "180932.953000", "180932.968000", "180932.968000", "180932.968000", "180932.968000", "180932.968000", "180932.968000", "180932.968000", "180932.984000", "180932.984000", "180932.984000", "180932.984000", "180932.984000", "180932.984000", "180932.984000", "180933.000000", "180933.000000", "180933.000000", "180933.000000", "180933.000000", "180933.000000", "180933.000000", "181032.937000", "181032.953000", "181032.953000", "181032.953000", "181032.953000", "181032.953000", "181032.953000", "181032.968000", "181032.968000", "181032.968000", "181032.968000", "181032.968000", "181032.968000", "181032.968000", "181032.984000", "181032.984000", "181032.984000", "181032.984000", "181032.984000", "181032.984000", "181032.984000", "181033.000000", "181033.000000", "181033.000000", "181033.000000", "181033.000000", "181033.000000", "181033.000000", "181107.046000", "181107.046000", "181107.046000", "181107.046000", "181107.046000", "181107.046000", "181107.062000", "181107.062000", "181107.062000", "181107.062000", "181107.062000", "181107.062000", "181107.062000", "181107.078000", "181107.078000", "181107.078000", "181107.078000"],
