{
  "AcquisitionMatrixPE": 104,
  "AcquisitionNumber": 1,
  "AcquisitionTime": "15:32:15.900000",
  "BandwidthPerPixelPhaseEncode": 13.935,
  "BaseResolution": 104,
  "CoilString": "C:HEA;HEP",
  "ConversionSoftware": "dcm2niix",
  "ConversionSoftwareVersion": "v1.0.20210317",
  "DerivedVendorReportedEchoSpacing": 0.000690017,
  "DeviceSerialNumber": "35450",
  "DwellTime": 2.5e-06,
  "EchoTime": 0.0348,
  "EffectiveEchoSpacing": 0.000690017,
  "FlipAngle": 55,
  "ImageComments": "Unaliased MB8/PE3",
  "ImageOrientationPatientDICOM": [0.999781, 0.000292439, 0.0209404, -3.70528e-08, 0.999903, -0.0139622],
  "ImageType": [
    "ORIGINAL",
    "PRIMARY",
    "M",
    "MB",
    "ND",
    "MOSAIC"
],
  "ImagingFrequency": 123.235,
  "InPlanePhaseEncodingDirectionDICOM": "COL",
  "InstitutionAddress": "Univeristy Ave. 197,Newark,North East,US,07102-1814",
  "InstitutionName": "RUBIC",
  "InstitutionalDepartmentName": "Department",
  "MRAcquisitionType": "2D",
  "MagneticFieldStrength": 3,
  "Manufacturer": "Siemens",
  "ManufacturersModelName": "TrioTim",
  "Modality": "MR",
  "MultibandAccelerationFactor": 8,
  "PartialFourier": 0.875,
  "PatientPosition": "HFS",
  "PercentPhaseFOV": 100,
  "PercentSampling": 100,
  "PhaseEncodingDirection": "j-",
  "PhaseEncodingSteps": 91,
  "PhaseResolution": 1,
  "PixelBandwidth": 1923,
  "ProcedureStepDescription": "Cole^Michael",
  "ProtocolName": "cmrr_mbep2d_bold_2mm_MB8_Rest",
  "PulseSequenceDetails": "%CustomerSeq%\\cmrr_mbep2d_bold",
  "ReceiveCoilName": "32Ch_Head",
  "ReconMatrixPE": 104,
  "RepetitionTime": 0.785,
  "SAR": 0.17463,
  "ScanOptions": "PFP\\FS",
  "ScanningSequence": "EP",
  "SequenceName": "epfid2d1_104",
  "SequenceVariant": "SK\\SS",
  "SeriesDescription": "cmrr_mbep2d_bold_2mm_MB8_Rest",
  "SeriesNumber": 11,
  "ShimSetting": [2127, -486, -7263, 574, -91, -221, 179, -132],
  "SliceThickness": 2,
  "SliceTiming": [0, 0.4375, 0.0875, 0.525, 0.175, 0.6125, 0.2625, 0.7, 0.35, 0, 0.4375, 0.0875, 0.525, 0.175, 0.6125, 0.2625, 0.7, 0.35, 0, 0.4375, 0.0875, 0.525, 0.175, 0.6125, 0.2625, 0.7, 0.35, 0, 0.4375, 0.0875, 0.525, 0.175, 0.6125, 0.2625, 0.7, 0.35, 0, 0.4375, 0.0875, 0.525, 0.175, 0.6125, 0.2625, 0.7, 0.35, 0, 0.4375, 0.0875, 0.525, 0.175, 0.6125, 0.2625, 0.7, 0.35, 0, 0.4375, 0.0875, 0.525, 0.175, 0.6125, 0.2625, 0.7, 0.35, 0, 0.4375, 0.0875, 0.525, 0.175, 0.6125, 0.2625, 0.7, 0.35],
  "SoftwareVersions": "syngo MR B19",
  "SpacingBetweenSlices": 2,
  "StationName": "MRC35450",
  "TaskName": "rest",
  "TotalReadoutTime": 0.0710717,
  "TxRefAmp": 385.324,
  "dcmmeta_affine": [
    [-1.9995613098144531, -7.410552171904783e-08, 0.04188484326004982, 102.49028015136719],
    [-0.0005848778528161347, 1.9998050928115845, -0.027918236330151558, -88.16078186035156],
    [0.04188075661659241, 0.02792436257004738, 1.9993665218353271, -86.21315002441406],
    [0.0, 0.0, 0.0, 1.0]
],
  "dcmmeta_reorient_transform": [
    [0.0, -1.0, 0.0, 103.0],
    [1.0, 0.0, 0.0, 0.0],
    [0.0, 0.0, 1.0, 0.0],
    [0.0, 0.0, 0.0, 1.0]
],
  "dcmmeta_shape": [104, 104, 72, 1070],
  "dcmmeta_slice_dim": 2,
  "dcmmeta_version": 0.6,
  "global": {
    "const": {
      "AcquisitionMatrix": [104, 0, 0, 104],
      "AngioFlag": "N",
      "BitsAllocated": 16,
      "BitsStored": 12,
      "Columns": 936,
      "EchoNumbers": 1,
      "EchoTime": 34.8,
      "EchoTrainLength": 1,
      "FlipAngle": 55.0,
      "HighBit": 11,
      "ImageOrientationPatient": [0.99978068345824, 0.00029243891402, 0.02094037877551, -3.705276e-08, 0.99990252399678, -0.013962181236],
      "ImagePositionPatient": [-934.30777326185, -949.98134869546, -89.142798951707],
      "ImageType": [
        "ORIGINAL",
        "PRIMARY",
        "M",
        "MB",
        "ND",
        "MOSAIC"
],
      "ImagedNucleus": "1H",
      "ImagingFrequency": 123.234525,
      "InPlanePhaseEncodingDirection": "COL",
      "MRAcquisitionType": "2D",
      "MagneticFieldStrength": 3.0,
      "Manufacturer": "SIEMENS",
      "ManufacturerModelName": "TrioTim",
      "Modality": "MR",
      "NumberOfAverages": 1.0,
      "NumberOfPhaseEncodingSteps": 91,
      "PercentPhaseFieldOfView": 100.0,
      "PercentSampling": 100.0,
      "PerformedProcedureStepStartTime": "144633.343000",
      "PhotometricInterpretation": "MONOCHROME2",
      "PixelBandwidth": 1923.0,
      "PixelRepresentation": 0,
      "PixelSpacing": [2.0, 2.0],
      "ProtocolName": "cmrr_mbep2d_bold_2mm_MB8_Rest",
      "RepetitionTime": 785.0,
      "Rows": 936,
      "SAR": 0.17462986243535,
      "SamplesPerPixel": 1,
      "ScanOptions": [
        "PFP",
        "FS"
],
      "ScanningSequence": "EP",
      "SequenceName": "epfid2d1_104",
      "SequenceVariant": [
        "SK",
        "SS"
],
      "SeriesDescription": "cmrr_mbep2d_bold_2mm_MB8_Rest",
      "SeriesNumber": 11,
      "SeriesTime": "153326.968000",
      "SliceLocation": -82.808796706389,
      "SliceThickness": 2.0,
      "SmallestImagePixelValue": 0,
      "SoftwareVersions": "syngo MR B19",
      "SpacingBetweenSlices": 2.0000000336909,
      "SpecificCharacterSet": "ISO_IR 100",
      "StudyID": "1",
      "StudyTime": "144633.296000",
      "TransmitCoilName": "Body",
      "VariableFlipAngleFlag": "N",
      "WindowCenterWidthExplanation": "Algo1",
      "dBdt": 0.0},
    "slices": {}
  },
  "time": {
    "samples": {
      "AcquisitionNumber": [1, 2, 3, 4, 5, 6, 7, 8, 9, 10, 11, 12, 13, 14, 15, 16, 17, 18, 19, 20, 21, 22, 23, 24, 25, 26, 27, 28, 29, 30, 31, 32, 33, 34, 35, 36, 37, 38, 39, 40, 41, 42, 43, 44, 45, 46, 47, 48, 49, 50, 51, 52, 53, 54, 55, 56, 57, 58, 59, 60, 61, 62, 63, 64, 65, 66, 67, 68, 69, 70, 71, 72, 73, 74, 75, 76, 77, 78, 79, 80, 81, 82, 83, 84, 85, 86, 87, 88, 89, 90, 91, 92, 93, 94, 95, 96, 97, 98, 99, 100, 101, 102, 103, 104, 105, 106, 107, 108, 109, 110, 111, 112, 113, 114, 115, 116, 117, 118, 119, 120, 121, 122, 123, 124, 125, 126, 127, 128, 129, 130, 131, 132, 133, 134, 135, 136, 137, 138, 139, 140, 141, 142, 143, 144, 145, 146, 147, 148, 149, 150, 151, 152, 153, 154, 155, 156, 157, 158, 159, 160, 161, 162, 163, 164, 165, 166, 167, 168, 169, 170, 171, 172, 173, 174, 175, 176, 177, 178, 179, 180, 181, 182, 183, 184, 185, 186, 187, 188, 189, 190, 191, 192, 193, 194, 195, 196, 197, 198, 199, 200, 201, 202, 203, 204, 205, 206, 207, 208, 209, 210, 211, 212, 213, 214, 215, 216, 217, 218, 219, 220, 221, 222, 223, 224, 225, 226, 227, 228, 229, 230, 231, 232, 233, 234, 235, 236, 237, 238, 239, 240, 241, 242, 243, 244, 245, 246, 247, 248, 249, 250, 251, 252, 253, 254, 255, 256, 257, 258, 259, 260, 261, 262, 263, 264, 265, 266, 267, 268, 269, 270, 271, 272, 273, 274, 275, 276, 277, 278, 279, 280, 281, 282, 283, 284, 285, 286, 287, 288, 289, 290, 291, 292, 293, 294, 295, 296, 297, 298, 299, 300, 301, 302, 303, 304, 305, 306, 307, 308, 309, 310, 311, 312, 313, 314, 315, 316, 317, 318, 319, 320, 321, 322, 323, 324, 325, 326, 327, 328, 329, 330, 331, 332, 333, 334, 335, 336, 337, 338, 339, 340, 341, 342, 343, 344, 345, 346, 347, 348, 349, 350, 351, 352, 353, 354, 355, 356, 357, 358, 359, 360, 361, 362, 363, 364, 365, 366, 367, 368, 369, 370, 371, 372, 373, 374, 375, 376, 377, 378, 379, 380, 381, 382, 383, 384, 385, 386, 387, 388, 389, 390, 391, 392, 393, 394, 395, 396, 397, 398, 399, 400, 401, 402, 403, 404, 405, 406, 407, 408, 409, 410, 411, 412, 413, 414, 415, 416, 417, 418, 419, 420, 421, 422, 423, 424, 425, 426, 427, 428, 429, 430, 431, 432, 433, 434, 435, 436, 437, 438, 439, 440, 441, 442, 443, 444, 445, 446, 447, 448, 449, 450, 451, 452, 453, 454, 455, 456, 457, 458, 459, 460, 461, 462, 463, 464, 465, 466, 467, 468, 469, 470, 471, 472, 473, 474, 475, 476, 477, 478, 479, 480, 481, 482, 483, 484, 485, 486, 487, 488, 489, 490, 491, 492, 493, 494, 495, 496, 497, 498, 499, 500, 501, 502, 503, 504, 505, 506, 507, 508, 509, 510, 511, 512, 513, 514, 515, 516, 517, 518, 519, 520, 521, 522, 523, 524, 525, 526, 527, 528, 529, 530, 531, 532, 533, 534, 535, 536, 537, 538, 539, 540, 541, 542, 543, 544, 545, 546, 547, 548, 549, 550, 551, 552, 553, 554, 555, 556, 557, 558, 559, 560, 561, 562, 563, 564, 565, 566, 567, 568, 569, 570, 571, 572, 573, 574, 575, 576, 577, 578, 579, 580, 581, 582, 583, 584, 585, 586, 587, 588, 589, 590, 591, 592, 593, 594, 595, 596, 597, 598, 599, 600, 601, 602, 603, 604, 605, 606, 607, 608, 609, 610, 611, 612, 613, 614, 615, 616, 617, 618, 619, 620, 621, 622, 623, 624, 625, 626, 627, 628, 629, 630, 631, 632, 633, 634, 635, 636, 637, 638, 639, 640, 641, 642, 643, 644, 645, 646, 647, 648, 649, 650, 651, 652, 653, 654, 655, 656, 657, 658, 659, 660, 661, 662, 663, 664, 665, 666, 667, 668, 669, 670, 671, 672, 673, 674, 675, 676, 677, 678, 679, 680, 681, 682, 683, 684, 685, 686, 687, 688, 689, 690, 691, 692, 693, 694, 695, 696, 697, 698, 699, 700, 701, 702, 703, 704, 705, 706, 707, 708, 709, 710, 711, 712, 713, 714, 715, 716, 717, 718, 719, 720, 721, 722, 723, 724, 725, 726, 727, 728, 729, 730, 731, 732, 733, 734, 735, 736, 737, 738, 739, 740, 741, 742, 743, 744, 745, 746, 747, 748, 749, 750, 751, 752, 753, 754, 755, 756, 757, 758, 759, 760, 761, 762, 763, 764, 765, 766, 767, 768, 769, 770, 771, 772, 773, 774, 775, 776, 777, 778, 779, 780, 781, 782, 783, 784, 785, 786, 787, 788, 789, 790, 791, 792, 793, 794, 795, 796, 797, 798, 799, 800, 801, 802, 803, 804, 805, 806, 807, 808, 809, 810, 811, 812, 813, 814, 815, 816, 817, 818, 819, 820, 821, 822, 823, 824, 825, 826, 827, 828, 829, 830, 831, 832, 833, 834, 835, 836, 837, 838, 839, 840, 841, 842, 843, 844, 845, 846, 847, 848, 849, 850, 851, 852, 853, 854, 855, 856, 857, 858, 859, 860, 861, 862, 863, 864, 865, 866, 867, 868, 869, 870, 871, 872, 873, 874, 875, 876, 877, 878, 879, 880, 881, 882, 883, 884, 885, 886, 887, 888, 889, 890, 891, 892, 893, 894, 895, 896, 897, 898, 899, 900, 901, 902, 903, 904, 905, 906, 907, 908, 909, 910, 911, 912, 913, 914, 915, 916, 917, 918, 919, 920, 921, 922, 923, 924, 925, 926, 927, 928, 929, 930, 931, 932, 933, 934, 935, 936, 937, 938, 939, 940, 941, 942, 943, 944, 945, 946, 947, 948, 949, 950, 951, 952, 953, 954, 955, 956, 957, 958, 959, 960, 961, 962, 963, 964, 965, 966, 967, 968, 969, 970, 971, 972, 973, 974, 975, 976, 977, 978, 979, 980, 981, 982, 983, 984, 985, 986, 987, 988, 989, 990, 991, 992, 993, 994, 995, 996, 997, 998, 999, 1000, 1001, 1002, 1003, 1004, 1005, 1006, 1007, 1008, 1009, 1010, 1011, 1012, 1013, 1014, 1015, 1016, 1017, 1018, 1019, 1020, 1021, 1022, 1023, 1024, 1025, 1026, 1027, 1028, 1029, 1030, 1031, 1032, 1033, 1034, 1035, 1036, 1037, 1038, 1039, 1040, 1041, 1042, 1043, 1044, 1045, 1046, 1047, 1048, 1049, 1050, 1051, 1052, 1053, 1054, 1055, 1056, 1057, 1058, 1059, 1060, 1061, 1062, 1063, 1064, 1065, 1066, 1067, 1068, 1069, 1070],
      "AcquisitionTime": ["153215.900000", "153216.687500", "153217.475000", "153218.265000", "153219.052500", "153219.840000", "153220.627500", "153221.417500", "153222.205000", "153222.992500", "153223.782500", "153224.570000", "153225.357500", "153226.145000", "153226.935000", "153227.722500", "153228.510000", "153229.297500", "153230.087500", "153230.875000", "153231.662500", "153232.450000", "153233.240000", "153234.027500", "153234.815000", "153235.602500", "153236.392500", "153237.180000", "153237.967500", "153238.755000", "153239.545000", "153240.332500", "153241.120000", "153241.910000", "153242.697500", "153243.485000", "153244.272500", "153245.062500", "153245.850000", "153246.637500", "153247.425000", "153248.215000", "153249.002500", "153249.790000", "153250.577500", "153251.367500", "153252.155000", "153252.942500", "153253.730000", "153254.520000", "153255.307500", "153256.095000", "153256.885000", "153257.672500", "153258.460000", "153259.247500", "153300.037500", "153300.825000", "153301.612500", "153302.400000", "153303.190000", "153303.977500", "153304.765000", "153305.552500", "153306.342500", "153307.130000", "153307.917500", "153308.705000", "153309.495000", "153310.282500", "153311.070000", "153311.857500", "153312.647500", "153313.435000", "153314.222500", "153315.012500", "153315.800000", "153316.587500", "153317.375000", "153318.165000", "153318.952500", "153319.740000", "153320.527500", "153321.317500", "153322.105000", "153322.892500", "153323.680000", "153324.470000", "153325.257500", "153326.045000", "153326.832500", "153327.622500", "153328.410000", "153329.197500", "153329.985000", "153330.775000", "153331.562500", "153332.350000", "153333.140000", "153333.927500", "153334.715000", "153335.502500", "153336.292500", "153337.080000", "153337.867500", "153338.655000", "153339.445000", "153340.232500", "153341.020000", "153341.807500", "153342.597500", "153343.385000", "153344.172500", "153344.960000", "153345.750000", "153346.537500", "153347.325000", "153348.112500", "153348.902500", "153349.690000", "153350.477500", "153351.267500", "153352.055000", "153352.842500", "153353.630000", "153354.420000", "153355.207500", "153355.995000", "153356.782500", "153357.572500", "153358.360000", "153359.147500", "153359.935000", "153400.725000", "153401.512500", "153402.300000", "153403.087500", "153403.877500", "153404.665000", "153405.452500", "153406.240000", "153407.030000", "153407.817500", "153408.605000", "153409.395000", "153410.182500", "153410.970000", "153411.757500", "153412.547500", "153413.335000", "153414.122500", "153414.910000", "153415.700000", "153416.487500", "153417.275000", "153418.062500", "153418.852500", "153419.640000", "153420.427500", "153421.215000", "153422.005000", "153422.792500", "153423.580000", "153424.367500", "153425.157500", "153425.945000", "153426.732500", "153427.522500", "153428.310000", "153429.097500", "153429.885000", "153430.675000", "153431.462500", "153432.250000", "153433.037500", "153433.827500", "153434.615000", "153435.402500", "153436.190000", "153436.980000", "153437.767500", "153438.555000", "153439.342500", "153440.132500", "153440.920000", "153441.707500", "153442.495000", "153443.285000", "153444.072500", "153444.860000", "153445.650000", "153446.437500", "153447.225000", "153448.012500", "153448.802500", "153449.590000", "153450.377500", "153451.165000", "153451.955000", "153452.742500", "153453.530000", "153454.317500", "153455.107500", "153455.895000", "153456.682500", "153457.470000", "153458.260000", "153459.047500", "153459.835000", "153500.622500", "153501.412500", "153502.200000", "153502.987500", "153503.777500", "153504.565000", "153505.352500", "153506.140000", "153506.930000", "153507.717500", "153508.505000", "153509.292500", "153510.082500", "153510.870000", "153511.657500", "153512.445000", "153513.235000", "153514.022500", "153514.810000", "153515.597500", "153516.387500", "153517.175000", "153517.962500", "153518.750000", "153519.540000", "153520.327500", "153521.115000", "153521.905000", "153522.692500", "153523.480000", "153524.267500", "153525.057500", "153525.845000", "153526.632500", "153527.420000", "153528.210000", "153528.997500", "153529.785000", "153530.572500", "153531.362500", "153532.150000", "153532.937500", "153533.725000", "153534.515000", "153535.302500", "153536.090000", "153536.877500", "153537.667500", "153538.455000", "153539.242500", "153540.032500", "153540.820000", "153541.607500", "153542.395000", "153543.185000", "153543.972500", "153544.760000", "153545.547500", "153546.337500", "153547.125000", "153547.912500", "153548.700000", "153549.490000", "153550.277500", "153551.065000", "153551.852500", "153552.642500", "153553.430000", "153554.217500", "153555.005000", "153555.795000", "153556.582500", "153557.370000", "153558.160000", "153558.947500", "153559.735000", "153600.522500", "153601.312500", "153602.100000", "153602.887500", "153603.675000", "153604.465000", "153605.252500", "153606.040000", "153606.827500", "153607.617500", "153608.405000", "153609.192500", "153609.980000", "153610.770000", "153611.557500", "153612.345000", "153613.135000", "153613.922500", "153614.710000", "153615.497500", "153616.287500", "153617.075000", "153617.862500", "153618.650000", "153619.440000", "153620.227500", "153621.015000", "153621.802500", "153622.592500", "153623.380000", "153624.167500", "153624.955000", "153625.745000", "153626.532500", "153627.320000", "153628.107500", "153628.897500", "153629.685000", "153630.472500", "153631.262500", "153632.050000", "153632.837500", "153633.625000", "153634.415000", "153635.202500", "153635.990000", "153636.777500", "153637.567500", "153638.355000", "153639.142500", "153639.930000", "153640.720000", "153641.507500", "153642.295000", "153643.082500", "153643.872500", "153644.660000", "153645.447500", "153646.235000", "153647.025000", "153647.812500", "153648.600000", "153649.390000", "153650.177500", "153650.965000", "153651.752500", "153652.542500", "153653.330000", "153654.117500", "153654.905000", "153655.695000", "153656.482500", "153657.270000", "153658.057500", "153658.847500", "153659.635000", "153700.422500", "153701.210000", "153702.000000", "153702.787500", "153703.575000", "153704.362500", "153705.152500", "153705.940000", "153706.727500", "153707.517500", "153708.305000", "153709.092500", "153709.880000", "153710.670000", "153711.457500", "153712.245000", "153713.032500", "153713.822500", "153714.610000", "153715.397500", "153716.185000", "153716.975000", "153717.762500", "153718.550000", "153719.337500", "153720.127500", "153720.915000", "153721.702500", "153722.490000", "153723.280000", "153724.067500", "153724.855000", "153725.645000", "153726.432500", "153727.220000", "153728.007500", "153728.797500", "153729.585000", "153730.372500", "153731.160000", "153731.950000", "153732.737500", "153733.525000", "153734.312500", "153735.102500", "153735.890000", "153736.677500", "153737.465000", "153738.255000", "153739.042500", "153739.830000", "153740.617500", "153741.407500", "153742.195000", "153742.982500", "153743.772500", "153744.560000", "153745.347500", "153746.135000", "153746.925000", "153747.712500", "153748.500000", "153749.287500", "153750.077500", "153750.865000", "153751.652500", "153752.440000", "153753.230000", "153754.017500", "153754.805000", "153755.592500", "153756.382500", "153757.170000", "153757.957500", "153758.745000", "153759.535000", "153800.322500", "153801.110000", "153801.900000", "153802.687500", "153803.475000", "153804.262500", "153805.052500", "153805.840000", "153806.627500", "153807.415000", "153808.205000", "153808.992500", "153809.780000", "153810.567500", "153811.357500", "153812.145000", "153812.932500", "153813.720000", "153814.510000", "153815.297500", "153816.085000", "153816.872500", "153817.662500", "153818.450000", "153819.237500", "153820.027500", "153820.815000", "153821.602500", "153822.390000", "153823.180000", "153823.967500", "153824.755000", "153825.542500", "153826.332500", "153827.120000", "153827.907500", "153828.695000", "153829.485000", "153830.272500", "153831.060000", "153831.847500", "153832.637500", "153833.425000", "153834.212500", "153835.000000", "153835.790000", "153836.577500", "153837.365000", "153838.155000", "153838.942500", "153839.730000", "153840.517500", "153841.307500", "153842.095000", "153842.882500", "153843.670000", "153844.460000", "153845.247500", "153846.035000", "153846.822500", "153847.612500", "153848.400000", "153849.187500", "153849.975000", "153850.765000", "153851.552500", "153852.340000", "153853.127500", "153853.917500", "153854.705000", "153855.492500", "153856.282500", "153857.070000", "153857.857500", "153858.645000", "153859.435000", "153900.222500", "153901.010000", "153901.797500", "153902.587500", "153903.375000", "153904.162500", "153904.950000", "153905.740000", "153906.527500", "153907.315000", "153908.102500", "153908.892500", "153909.680000", "153910.467500", "153911.255000", "153912.045000", "153912.832500", "153913.620000", "153914.410000", "153915.197500", "153915.985000", "153916.772500", "153917.562500", "153918.350000", "153919.137500", "153919.925000", "153920.715000", "153921.502500", "153922.290000", "153923.077500", "153923.867500", "153924.655000", "153925.442500", "153926.230000", "153927.020000", "153927.807500", "153928.595000", "153929.385000", "153930.172500", "153930.960000", "153931.747500", "153932.537500", "153933.325000", "153934.112500", "153934.900000", "153935.690000", "153936.477500", "153937.265000", "153938.052500", "153938.842500", "153939.630000", "153940.417500", "153941.205000", "153941.995000", "153942.782500", "153943.570000", "153944.357500", "153945.147500", "153945.935000", "153946.722500", "153947.512500", "153948.300000", "153949.087500", "153949.875000", "153950.665000", "153951.452500", "153952.240000", "153953.027500", "153953.817500", "153954.605000", "153955.392500", "153956.180000", "153956.970000", "153957.757500", "153958.545000", "153959.332500", "154000.122500", "154000.910000", "154001.697500", "154002.485000", "154003.275000", "154004.062500", "154004.850000", "154005.640000", "154006.427500", "154007.215000", "154008.002500", "154008.792500", "154009.580000", "154010.367500", "154011.155000", "154011.945000", "154012.732500", "154013.520000", "154014.307500", "154015.097500", "154015.885000", "154016.672500", "154017.460000", "154018.250000", "154019.037500", "154019.825000", "154020.612500", "154021.402500", "154022.190000", "154022.977500", "154023.767500", "154024.555000", "154025.342500", "154026.130000", "154026.920000", "154027.707500", "154028.495000", "154029.282500", "154030.072500", "154030.860000", "154031.647500", "154032.435000", "154033.225000", "154034.012500", "154034.800000", "154035.587500", "154036.377500", "154037.165000", "154037.952500", "154038.740000", "154039.530000", "154040.317500", "154041.105000", "154041.895000", "154042.682500", "154043.470000", "154044.257500", "154045.047500", "154045.835000", "154046.622500", "154047.410000", "154048.200000", "154048.987500", "154049.775000", "154050.562500", "154051.352500", "154052.140000", "154052.927500", "154053.715000", "154054.505000", "154055.292500", "154056.080000", "154056.867500", "154057.657500", "154058.445000", "154059.232500", "154100.022500", "154100.810000", "154101.597500", "154102.385000", "154103.175000", "154103.962500", "154104.750000", "154105.537500", "154106.327500", "154107.115000", "154107.902500", "154108.690000", "154109.480000", "154110.267500", "154111.055000", "154111.842500", "154112.632500", "154113.420000", "154114.207500", "154114.995000", "154115.785000", "154116.572500", "154117.360000", "154118.150000", "154118.937500", "154119.725000", "154120.512500", "154121.302500", "154122.090000", "154122.877500", "154123.665000", "154124.455000", "154125.242500", "154126.030000", "154126.817500", "154127.607500", "154128.395000", "154129.182500", "154129.970000", "154130.760000", "154131.547500", "154132.335000", "154133.122500", "154133.912500", "154134.700000", "154135.487500", "154136.277500", "154137.065000", "154137.852500", "154138.640000", "154139.430000", "154140.217500", "154141.005000", "154141.792500", "154142.582500", "154143.370000", "154144.157500", "154144.945000", "154145.735000", "154146.522500", "154147.310000", "154148.097500", "154148.887500", "154149.675000", "154150.462500", "154151.250000", "154152.040000", "154152.827500", "154153.615000", "154154.405000", "154155.192500", "154155.980000", "154156.767500", "154157.557500", "154158.345000", "154159.132500", "154159.920000", "154200.710000", "154201.497500", "154202.285000", "154203.072500", "154203.862500", "154204.650000", "154205.437500", "154206.225000", "154207.015000", "154207.802500", "154208.590000", "154209.377500", "154210.167500", "154210.955000", "154211.742500", "154212.532500", "154213.320000", "154214.107500", "154214.895000", "154215.685000", "154216.472500", "154217.260000", "154218.047500", "154218.837500", "154219.625000", "154220.412500", "154221.200000", "154221.990000", "154222.777500", "154223.565000", "154224.352500", "154225.142500", "154225.930000", "154226.717500", "154227.505000", "154228.295000", "154229.082500", "154229.870000", "154230.660000", "154231.447500", "154232.235000", "154233.022500", "154233.812500", "154234.600000", "154235.387500", "154236.175000", "154236.965000", "154237.752500", "154238.540000", "154239.327500", "154240.117500", "154240.905000", "154241.692500", "154242.480000", "154243.270000", "154244.057500", "154244.845000", "154245.635000", "154246.422500", "154247.210000", "154247.997500", "154248.787500", "154249.575000", "154250.362500", "154251.150000", "154251.940000", "154252.727500", "154253.515000", "154254.302500", "154255.092500", "154255.880000", "154256.667500", "154257.455000", "154258.245000", "154259.032500", "154259.820000", "154300.607500", "154301.397500", "154302.185000", "154302.972500", "154303.762500", "154304.550000", "154305.337500", "154306.125000", "154306.915000", "154307.702500", "154308.490000", "154309.277500", "154310.067500", "154310.855000", "154311.642500", "154312.430000", "154313.220000", "154314.007500", "154314.795000", "154315.582500", "154316.372500", "154317.160000", "154317.947500", "154318.735000", "154319.525000", "154320.312500", "154321.100000", "154321.890000", "154322.677500", "154323.465000", "154324.252500", "154325.042500", "154325.830000", "154326.617500", "154327.405000", "154328.195000", "154328.982500", "154329.770000", "154330.557500", "154331.347500", "154332.135000", "154332.922500", "154333.710000", "154334.500000", "154335.287500", "154336.075000", "154336.862500", "154337.652500", "154338.440000", "154339.227500", "154340.017500", "154340.805000", "154341.592500", "154342.380000", "154343.170000", "154343.957500", "154344.745000", "154345.532500", "154346.322500", "154347.110000", "154347.897500", "154348.685000", "154349.475000", "154350.262500", "154351.050000", "154351.837500", "154352.627500", "154353.415000", "154354.202500", "154354.990000", "154355.780000", "154356.567500", "154357.355000", "154358.145000", "154358.932500", "154359.720000", "154400.507500", "154401.297500", "154402.085000", "154402.872500", "154403.660000", "154404.450000", "154405.237500", "154406.025000", "154406.812500", "154407.602500", "154408.390000", "154409.177500", "154409.965000", "154410.755000", "154411.542500", "154412.330000", "154413.117500", "154413.907500", "154414.695000", "154415.482500", "154416.272500", "154417.060000", "154417.847500", "154418.635000", "154419.425000", "154420.212500", "154421.000000", "154421.787500", "154422.577500", "154423.365000", "154424.152500", "154424.940000", "154425.730000", "154426.517500", "154427.305000", "154428.092500", "154428.882500", "154429.670000", "154430.457500", "154431.245000", "154432.035000", "154432.822500", "154433.610000", "154434.400000", "154435.187500", "154435.975000", "154436.762500", "154437.552500", "154438.340000", "154439.127500", "154439.915000", "154440.705000", "154441.492500", "154442.280000", "154443.067500", "154443.857500", "154444.645000", "154445.432500", "154446.220000", "154447.010000", "154447.797500", "154448.585000", "154449.372500", "154450.162500", "154450.950000", "154451.737500", "154452.527500", "154453.315000", "154454.102500", "154454.890000", "154455.680000", "154456.467500", "154457.255000", "154458.042500", "154458.832500", "154459.620000", "154500.407500", "154501.195000", "154501.985000", "154502.772500", "154503.560000", "154504.347500", "154505.137500", "154505.925000", "154506.712500", "154507.500000", "154508.290000", "154509.077500", "154509.865000", "154510.655000", "154511.442500", "154512.230000", "154513.017500", "154513.807500", "154514.595000", "154515.382500", "154516.170000", "154516.960000", "154517.747500", "154518.535000", "154519.322500", "154520.112500", "154520.900000", "154521.687500", "154522.475000", "154523.265000", "154524.052500", "154524.840000", "154525.627500", "154526.417500", "154527.205000", "154527.992500", "154528.782500", "154529.570000", "154530.357500", "154531.145000", "154531.935000", "154532.722500", "154533.510000", "154534.297500", "154535.087500", "154535.875000", "154536.662500", "154537.450000", "154538.240000", "154539.027500", "154539.815000", "154540.602500", "154541.392500", "154542.180000", "154542.967500", "154543.755000", "154544.545000", "154545.332500", "154546.120000", "154546.910000", "154547.697500", "154548.485000", "154549.272500", "154550.062500", "154550.850000", "154551.637500", "154552.425000", "154553.215000", "154554.002500", "154554.790000", "154555.577500", "154556.367500", "154557.155000", "154557.942500", "154558.730000", "154559.520000", "154600.307500", "154601.095000", "154601.885000", "154602.672500", "154603.460000", "154604.247500", "154605.037500", "154605.825000", "154606.612500", "154607.400000", "154608.190000", "154608.977500", "154609.765000", "154610.552500", "154611.342500", "154612.130000", "154612.917500", "154613.705000", "154614.495000", "154615.282500", "154616.070000", "154616.857500", "154617.647500", "154618.435000"],
