{
  "AcquisitionMatrixPE": 104,
  "AcquisitionNumber": 1,
  "AcquisitionTime": "16:37:2.742500",
  "BandwidthPerPixelPhaseEncode": 13.935,
  "BaseResolution": 104,
  "CoilString": "C:HEA;HEP",
  "ConversionSoftware": "dcm2niix",
  "ConversionSoftwareVersion": "v1.0.20210317",
  "DerivedVendorReportedEchoSpacing": 0.000690017,
  "DeviceSerialNumber": "35450",
  "DwellTime": 2.5e-06,
  "EchoTime": 0.0348,
  "EffectiveEchoSpacing": 0.000690017,
  "FlipAngle": 55,
  "ImageComments": "Unaliased MB8/PE3",
  "ImageOrientationPatientDICOM": [0.999781, 0.000292439, 0.0209404, -3.70528e-08, 0.999903, -0.0139622],
  "ImageType": [
    "ORIGINAL",
    "PRIMARY",
    "M",
    "MB",
    "ND",
    "MOSAIC"
],
  "ImagingFrequency": 123.235,
  "InPlanePhaseEncodingDirectionDICOM": "COL",
  "InstitutionAddress": "Univeristy Ave. 197,Newark,North East,US,07102-1814",
  "InstitutionName": "RUBIC",
  "InstitutionalDepartmentName": "Department",
  "MRAcquisitionType": "2D",
  "MagneticFieldStrength": 3,
  "Manufacturer": "Siemens",
  "ManufacturersModelName": "TrioTim",
  "Modality": "MR",
  "MultibandAccelerationFactor": 8,
  "PartialFourier": 0.875,
  "PatientPosition": "HFS",
  "PercentPhaseFOV": 100,
  "PercentSampling": 100,
  "PhaseEncodingDirection": "j-",
  "PhaseEncodingSteps": 91,
  "PhaseResolution": 1,
  "PixelBandwidth": 1923,
  "ProcedureStepDescription": "Cole^Michael",
  "ProtocolName": "cmrr_mbep2d_bold_2mm_MB8_Task_8x",
  "PulseSequenceDetails": "%CustomerSeq%\\cmrr_mbep2d_bold",
  "ReceiveCoilName": "32Ch_Head",
  "ReconMatrixPE": 104,
  "RepetitionTime": 0.785,
  "SAR": 0.165453,
  "ScanOptions": "PFP\\FS",
  "ScanningSequence": "EP",
  "SequenceName": "epfid2d1_104",
  "SequenceVariant": "SK\\SS",
  "SeriesDescription": "cmrr_mbep2d_bold_2mm_MB8_Task_8x",
  "SeriesNumber": 25,
  "ShimSetting": [2127, -486, -7263, 574, -91, -221, 179, -132],
  "SliceThickness": 2,
  "SliceTiming": [0, 0.4375, 0.0875, 0.525, 0.175, 0.6125, 0.2625, 0.7, 0.35, 0, 0.4375, 0.0875, 0.525, 0.175, 0.6125, 0.2625, 0.7, 0.35, 0, 0.4375, 0.0875, 0.525, 0.175, 0.6125, 0.2625, 0.7, 0.35, 0, 0.4375, 0.0875, 0.525, 0.175, 0.6125, 0.2625, 0.7, 0.35, 0, 0.4375, 0.0875, 0.525, 0.175, 0.6125, 0.2625, 0.7, 0.35, 0, 0.4375, 0.0875, 0.525, 0.175, 0.6125, 0.2625, 0.7, 0.35, 0, 0.4375, 0.0875, 0.525, 0.175, 0.6125, 0.2625, 0.7, 0.35, 0, 0.4375, 0.0875, 0.525, 0.175, 0.6125, 0.2625, 0.7, 0.35],
  "SoftwareVersions": "syngo MR B19",
  "SpacingBetweenSlices": 2,
  "StationName": "MRC35450",
  "TaskName": "cpro",
  "TotalReadoutTime": 0.0710717,
  "TxRefAmp": 385.324,
  "dcmmeta_affine": [
    [-1.9995613098144531, -7.410552171904783e-08, 0.04188484326004982, 102.49028015136719],
    [-0.0005848778528161347, 1.9998050928115845, -0.027918236330151558, -88.16078186035156],
    [0.04188075661659241, 0.02792436257004738, 1.9993665218353271, -86.21315002441406],
    [0.0, 0.0, 0.0, 1.0]
],
  "dcmmeta_reorient_transform": [
    [0.0, -1.0, 0.0, 103.0],
    [1.0, 0.0, 0.0, 0.0],
    [0.0, 0.0, 1.0, 0.0],
    [0.0, 0.0, 0.0, 1.0]
],
  "dcmmeta_shape": [104, 104, 72, 581],
  "dcmmeta_slice_dim": 2,
  "dcmmeta_version": 0.6,
  "global": {
    "const": {
      "AcquisitionMatrix": [104, 0, 0, 104],
      "AngioFlag": "N",
      "BitsAllocated": 16,
      "BitsStored": 12,
      "Columns": 936,
      "EchoNumbers": 1,
      "EchoTime": 34.8,
      "EchoTrainLength": 1,
      "FlipAngle": 55.0,
      "HighBit": 11,
      "ImageOrientationPatient": [0.99978068345824, 0.00029243891402, 0.02094037877551, -3.705276e-08, 0.99990252399678, -0.013962181236],
      "ImagePositionPatient": [-934.30777326185, -949.98134869546, -89.142798951707],
      "ImageType": [
        "ORIGINAL",
        "PRIMARY",
        "M",
        "MB",
        "ND",
        "MOSAIC"
],
      "ImagedNucleus": "1H",
      "ImagingFrequency": 123.234584,
      "InPlanePhaseEncodingDirection": "COL",
      "MRAcquisitionType": "2D",
      "MagneticFieldStrength": 3.0,
      "Manufacturer": "SIEMENS",
      "ManufacturerModelName": "TrioTim",
      "Modality": "MR",
      "NumberOfAverages": 1.0,
      "NumberOfPhaseEncodingSteps": 91,
      "PercentPhaseFieldOfView": 100.0,
      "PercentSampling": 100.0,
      "PerformedProcedureStepStartTime": "144633.343000",
      "PhotometricInterpretation": "MONOCHROME2",
      "PixelBandwidth": 1923.0,
      "PixelRepresentation": 0,
      "PixelSpacing": [2.0, 2.0],
      "ProtocolName": "cmrr_mbep2d_bold_2mm_MB8_Task_8x",
      "RepetitionTime": 785.0,
      "Rows": 936,
      "SAR": 0.16545277246203,
      "SamplesPerPixel": 1,
      "ScanOptions": [
        "PFP",
        "FS"
],
      "ScanningSequence": "EP",
      "SequenceName": "epfid2d1_104",
      "SequenceVariant": [
        "SK",
        "SS"
],
      "SeriesDescription": "cmrr_mbep2d_bold_2mm_MB8_Task_8x",
      "SeriesNumber": 25,
      "SeriesTime": "181133.750000",
      "SliceLocation": -82.808796706389,
      "SliceThickness": 2.0,
      "SmallestImagePixelValue": 0,
      "SoftwareVersions": "syngo MR B19",
      "SpacingBetweenSlices": 2.0000000336909,
      "SpecificCharacterSet": "ISO_IR 100",
      "StudyID": "1",
      "StudyTime": "144633.296000",
      "TransmitCoilName": "Body",
      "VariableFlipAngleFlag": "N",
      "WindowCenterWidthExplanation": "Algo1",
      "dBdt": 0.0},
    "slices": {}
  },
  "time": {
    "samples": {
      "AcquisitionNumber": [1, 2, 3, 4, 5, 6, 7, 8, 9, 10, 11, 12, 13, 14, 15, 16, 17, 18, 19, 20, 21, 22, 23, 24, 25, 26, 27, 28, 29, 30, 31, 32, 33, 34, 35, 36, 37, 38, 39, 40, 41, 42, 43, 44, 45, 46, 47, 48, 49, 50, 51, 52, 53, 54, 55, 56, 57, 58, 59, 60, 61, 62, 63, 64, 65, 66, 67, 68, 69, 70, 71, 72, 73, 74, 75, 76, 77, 78, 79, 80, 81, 82, 83, 84, 85, 86, 87, 88, 89, 90, 91, 92, 93, 94, 95, 96, 97, 98, 99, 100, 101, 102, 103, 104, 105, 106, 107, 108, 109, 110, 111, 112, 113, 114, 115, 116, 117, 118, 119, 120, 121, 122, 123, 124, 125, 126, 127, 128, 129, 130, 131, 132, 133, 134, 135, 136, 137, 138, 139, 140, 141, 142, 143, 144, 145, 146, 147, 148, 149, 150, 151, 152, 153, 154, 155, 156, 157, 158, 159, 160, 161, 162, 163, 164, 165, 166, 167, 168, 169, 170, 171, 172, 173, 174, 175, 176, 177, 178, 179, 180, 181, 182, 183, 184, 185, 186, 187, 188, 189, 190, 191, 192, 193, 194, 195, 196, 197, 198, 199, 200, 201, 202, 203, 204, 205, 206, 207, 208, 209, 210, 211, 212, 213, 214, 215, 216, 217, 218, 219, 220, 221, 222, 223, 224, 225, 226, 227, 228, 229, 230, 231, 232, 233, 234, 235, 236, 237, 238, 239, 240, 241, 242, 243, 244, 245, 246, 247, 248, 249, 250, 251, 252, 253, 254, 255, 256, 257, 258, 259, 260, 261, 262, 263, 264, 265, 266, 267, 268, 269, 270, 271, 272, 273, 274, 275, 276, 277, 278, 279, 280, 281, 282, 283, 284, 285, 286, 287, 288, 289, 290, 291, 292, 293, 294, 295, 296, 297, 298, 299, 300, 301, 302, 303, 304, 305, 306, 307, 308, 309, 310, 311, 312, 313, 314, 315, 316, 317, 318, 319, 320, 321, 322, 323, 324, 325, 326, 327, 328, 329, 330, 331, 332, 333, 334, 335, 336, 337, 338, 339, 340, 341, 342, 343, 344, 345, 346, 347, 348, 349, 350, 351, 352, 353, 354, 355, 356, 357, 358, 359, 360, 361, 362, 363, 364, 365, 366, 367, 368, 369, 370, 371, 372, 373, 374, 375, 376, 377, 378, 379, 380, 381, 382, 383, 384, 385, 386, 387, 388, 389, 390, 391, 392, 393, 394, 395, 396, 397, 398, 399, 400, 401, 402, 403, 404, 405, 406, 407, 408, 409, 410, 411, 412, 413, 414, 415, 416, 417, 418, 419, 420, 421, 422, 423, 424, 425, 426, 427, 428, 429, 430, 431, 432, 433, 434, 435, 436, 437, 438, 439, 440, 441, 442, 443, 444, 445, 446, 447, 448, 449, 450, 451, 452, 453, 454, 455, 456, 457, 458, 459, 460, 461, 462, 463, 464, 465, 466, 467, 468, 469, 470, 471, 472, 473, 474, 475, 476, 477, 478, 479, 480, 481, 482, 483, 484, 485, 486, 487, 488, 489, 490, 491, 492, 493, 494, 495, 496, 497, 498, 499, 500, 501, 502, 503, 504, 505, 506, 507, 508, 509, 510, 511, 512, 513, 514, 515, 516, 517, 518, 519, 520, 521, 522, 523, 524, 525, 526, 527, 528, 529, 530, 531, 532, 533, 534, 535, 536, 537, 538, 539, 540, 541, 542, 543, 544, 545, 546, 547, 548, 549, 550, 551, 552, 553, 554, 555, 556, 557, 558, 559, 560, 561, 562, 563, 564, 565, 566, 567, 568, 569, 570, 571, 572, 573, 574, 575, 576, 577, 578, 579, 580, 581],
      "AcquisitionTime": ["163702.742500", "163703.530000", "163704.320000", "163705.107500", "163705.895000", "163706.685000", "163707.472500", "163708.260000", "163709.047500", "163709.837500", "163710.625000", "163711.412500", "163712.200000", "163712.990000", "163713.777500", "163714.565000", "163715.352500", "163716.142500", "163716.930000", "163717.717500", "163718.505000", "163719.295000", "163720.082500", "163720.870000", "163721.657500", "163722.447500", "163723.235000", "163724.022500", "163724.812500", "163725.600000", "163726.387500", "163727.175000", "163727.965000", "163728.752500", "163729.540000", "163730.327500", "163731.117500", "163731.905000", "163732.692500", "163733.480000", "163734.270000", "163735.057500", "163735.845000", "163736.632500", "163737.422500", "163738.210000", "163738.997500", "163739.785000", "163740.575000", "163741.362500", "163742.150000", "163742.940000", "163743.727500", "163744.515000", "163745.302500", "163746.092500", "163746.880000", "163747.667500", "163748.455000", "163749.245000", "163750.032500", "163750.820000", "163751.607500", "163752.397500", "163753.185000", "163753.972500", "163754.760000", "163755.550000", "163756.337500", "163757.125000", "163757.912500", "163758.702500", "163759.490000", "163800.277500", "163801.067500", "163801.855000", "163802.642500", "163803.430000", "163804.220000", "163805.007500", "163805.795000", "163806.582500", "163807.372500", "163808.160000", "163808.947500", "163809.735000", "163810.525000", "163811.312500", "163812.100000", "163812.887500", "163813.677500", "163814.465000", "163815.252500", "163816.040000", "163816.830000", "163817.617500", "163818.405000", "163819.195000", "163819.982500", "163820.770000", "163821.557500", "163822.347500", "163823.135000", "163823.922500", "163824.710000", "163825.500000", "163826.287500", "163827.075000", "163827.862500", "163828.652500", "163829.440000", "163830.227500", "163831.015000", "163831.805000", "163832.592500", "163833.380000", "163834.167500", "163834.957500", "163835.745000", "163836.532500", "163837.322500", "163838.110000", "163838.897500", "163839.685000", "163840.475000", "163841.262500", "163842.050000", "163842.837500", "163843.627500", "163844.415000", "163845.202500", "163845.990000", "163846.780000", "163847.567500", "163848.355000", "163849.142500", "163849.932500", "163850.720000", "163851.507500", "163852.295000", "163853.085000", "163853.872500", "163854.660000", "163855.450000", "163856.237500", "163857.025000", "163857.812500", "163858.602500", "163859.390000", "163900.177500", "163900.965000", "163901.755000", "163902.542500", "163903.330000", "163904.117500", "163904.907500", "163905.695000", "163906.482500", "163907.270000", "163908.060000", "163908.847500", "163909.635000", "163910.425000", "163911.212500", "163912.000000", "163912.787500", "163913.577500", "163914.365000", "163915.152500", "163915.940000", "163916.730000", "163917.517500", "163918.305000", "163919.092500", "163919.882500", "163920.670000", "163921.457500", "163922.245000", "163923.035000", "163923.822500", "163924.610000", "163925.397500", "163926.187500", "163926.975000", "163927.762500", "163928.552500", "163929.340000", "163930.127500", "163930.915000", "163931.705000", "163932.492500", "163933.280000", "163934.067500", "163934.857500", "163935.645000", "163936.432500", "163937.220000", "163938.010000", "163938.797500", "163939.585000", "163940.372500", "163941.162500", "163941.950000", "163942.737500", "163943.525000", "163944.315000", "163945.102500", "163945.890000", "163946.680000", "163947.467500", "163948.255000", "163949.042500", "163949.832500", "163950.620000", "163951.407500", "163952.195000", "163952.985000", "163953.772500", "163954.560000", "163955.347500", "163956.137500", "163956.925000", "163957.712500", "163958.500000", "163959.290000", "164000.077500", "164000.865000", "164001.652500", "164002.442500", "164003.230000", "164004.017500", "164004.807500", "164005.595000", "164006.382500", "164007.170000", "164007.960000", "164008.747500", "164009.535000", "164010.322500", "164011.112500", "164011.900000", "164012.687500", "164013.475000", "164014.265000", "164015.052500", "164015.840000", "164016.627500", "164017.417500", "164018.205000", "164018.992500", "164019.780000", "164020.570000", "164021.357500", "164022.145000", "164022.935000", "164023.722500", "164024.510000", "164025.297500", "164026.087500", "164026.875000", "164027.662500", "164028.450000", "164029.240000", "164030.027500", "164030.815000", "164031.602500", "164032.392500", "164033.180000", "164033.967500", "164034.755000", "164035.545000", "164036.332500", "164037.120000", "164037.907500", "164038.697500", "164039.485000", "164040.272500", "164041.062500", "164041.850000", "164042.637500", "164043.425000", "164044.215000", "164045.002500", "164045.790000", "164046.577500", "164047.367500", "164048.155000", "164048.942500", "164049.730000", "164050.520000", "164051.307500", "164052.095000", "164052.882500", "164053.672500", "164054.460000", "164055.247500", "164056.035000", "164056.825000", "164057.612500", "164058.400000", "164059.190000", "164059.977500", "164100.765000", "164101.552500", "164102.342500", "164103.130000", "164103.917500", "164104.705000", "164105.495000", "164106.282500", "164107.070000", "164107.857500", "164108.647500", "164109.435000", "164110.222500", "164111.010000", "164111.800000", "164112.587500", "164113.375000", "164114.162500", "164114.952500", "164115.740000", "164116.527500", "164117.317500", "164118.105000", "164118.892500", "164119.680000", "164120.470000", "164121.257500", "164122.045000", "164122.832500", "164123.622500", "164124.410000", "164125.197500", "164125.985000", "164126.775000", "164127.562500", "164128.350000", "164129.137500", "164129.927500", "164130.715000", "164131.502500", "164132.290000", "164133.080000", "164133.867500", "164134.655000", "164135.445000", "164136.232500", "164137.020000", "164137.807500", "164138.597500", "164139.385000", "164140.172500", "164140.960000", "164141.750000", "164142.537500", "164143.325000", "164144.112500", "164144.902500", "164145.690000", "164146.477500", "164147.265000", "164148.055000", "164148.842500", "164149.630000", "164150.417500", "164151.207500", "164151.995000", "164152.782500", "164153.572500", "164154.360000", "164155.147500", "164155.935000", "164156.725000", "164157.512500", "164158.300000", "164159.087500", "164159.877500", "164200.665000", "164201.452500", "164202.240000", "164203.030000", "164203.817500", "164204.605000", "164205.392500", "164206.182500", "164206.970000", "164207.757500", "164208.545000", "164209.335000", "164210.122500", "164210.910000", "164211.700000", "164212.487500", "164213.275000", "164214.062500", "164214.852500", "164215.640000", "164216.427500", "164217.215000", "164218.005000", "164218.792500", "164219.580000", "164220.367500", "164221.157500", "164221.945000", "164222.732500", "164223.520000", "164224.310000", "164225.097500", "164225.885000", "164226.675000", "164227.462500", "164228.250000", "164229.037500", "164229.827500", "164230.615000", "164231.402500", "164232.190000", "164232.980000", "164233.767500", "164234.555000", "164235.342500", "164236.132500", "164236.920000", "164237.707500", "164238.495000", "164239.285000", "164240.072500", "164240.860000", "164241.647500", "164242.437500", "164243.225000", "164244.012500", "164244.802500", "164245.590000", "164246.377500", "164247.165000", "164247.955000", "164248.742500", "164249.530000", "164250.317500", "164251.107500", "164251.895000", "164252.682500", "164253.470000", "164254.260000", "164255.047500", "164255.835000", "164256.622500", "164257.412500", "164258.200000", "164258.987500", "164259.775000", "164300.565000", "164301.352500", "164302.140000", "164302.930000", "164303.717500", "164304.505000", "164305.292500", "164306.082500", "164306.870000", "164307.657500", "164308.445000", "164309.235000", "164310.022500", "164310.810000", "164311.597500", "164312.387500", "164313.175000", "164313.962500", "164314.750000", "164315.540000", "164316.327500", "164317.115000", "164317.902500", "164318.692500", "164319.480000", "164320.267500", "164321.057500", "164321.845000", "164322.632500", "164323.420000", "164324.210000", "164324.997500", "164325.785000", "164326.572500", "164327.362500", "164328.150000", "164328.937500", "164329.725000", "164330.515000", "164331.302500", "164332.090000", "164332.877500", "164333.667500", "164334.455000", "164335.242500", "164336.030000", "164336.820000", "164337.607500", "164338.395000", "164339.185000", "164339.972500", "164340.760000", "164341.547500", "164342.337500", "164343.125000", "164343.912500", "164344.700000", "164345.490000", "164346.277500", "164347.065000", "164347.852500", "164348.642500", "164349.430000", "164350.217500", "164351.005000", "164351.795000", "164352.582500", "164353.370000", "164354.157500", "164354.947500", "164355.735000", "164356.522500", "164357.312500", "164358.100000", "164358.887500", "164359.675000", "164400.465000", "164401.252500", "164402.040000", "164402.827500", "164403.617500", "164404.405000", "164405.192500", "164405.980000", "164406.770000", "164407.557500", "164408.345000", "164409.132500", "164409.922500", "164410.710000", "164411.497500", "164412.285000", "164413.075000", "164413.862500", "164414.650000", "164415.440000", "164416.227500", "164417.015000", "164417.802500", "164418.592500", "164419.380000", "164420.167500", "164420.955000", "164421.745000", "164422.532500", "164423.320000", "164424.107500", "164424.897500", "164425.685000", "164426.472500", "164427.260000", "164428.050000", "164428.837500", "164429.625000", "164430.412500", "164431.202500", "164431.990000", "164432.777500", "164433.567500", "164434.355000", "164435.142500", "164435.930000", "164436.720000", "164437.507500", "164438.295000", "164439.082500", "164439.872500"],
      "ContentTime": ["181133.750000", "181133.750000", "181133.750000", "181133.765000", "181133.765000", "181233.718000", "181233.734000", "181233.734000", "181233.734000", "181233.734000", "181233.734000", "181233.734000", "181233.750000", "181233.750000", "181233.750000", "181233.750000", "181233.750000", "181233.750000", "181233.750000", "181233.750000", "181233.765000", "181233.765000", "181233.765000", "181233.765000", "181233.765000", "181233.765000", "181233.781000", "181233.781000", "181233.781000", "181233.781000", "181233.781000", "181233.781000", "181233.781000", "181333.718000", "181333.734000", "181333.734000", "181333.734000", "181333.734000", "181333.750000", "181333.750000", "181333.750000", "181333.750000", "181333.750000", "181333.750000", "181333.750000", "181333.765000", "181333.765000", "181333.765000", "181333.765000", "181333.765000", "181333.765000", "181333.765000", "181333.781000", "181333.781000", "181333.781000", "181333.781000", "181333.781000", "181333.781000", "181333.796000", "181333.796000", "181333.796000", "181433.718000", "181433.734000", "181433.734000", "181433.734000", "181433.734000", "181433.734000", "181433.750000", "181433.750000", "181433.750000", "181433.750000", "181433.750000", "181433.750000", "181433.750000", "181433.765000", "181433.765000", "181433.765000", "181433.781000", "181433.781000", "181433.781000", "181433.796000", "181433.796000", "181433.796000", "181433.796000", "181433.796000", "181433.796000", "181433.796000", "181433.812000", "181433.812000", "181533.718000", "181533.734000", "181533.734000", "181533.734000", "181533.734000", "181533.734000", "181533.734000", "181533.750000", "181533.750000", "181533.750000", "181533.750000", "181533.750000", "181533.765000", "181533.765000", "181533.765000", "181533.765000", "181533.765000", "181533.765000", "181533.765000", "181533.781000", "181533.781000", "181533.781000", "181533.781000", "181533.781000", "181533.781000", "181533.781000", "181533.796000", "181533.796000", "181533.796000", "181633.718000", "181633.734000", "181633.734000", "181633.734000", "181633.734000", "181633.734000", "181633.734000", "181633.750000", "181633.750000", "181633.750000", "181633.750000", "181633.750000", "181633.750000", "181633.750000", "181633.765000", "181633.765000", "181633.765000", "181633.765000", "181633.765000", "181633.765000", "181633.765000", "181633.781000", "181633.781000", "181633.781000", "181633.781000", "181633.781000", "181633.796000", "181633.796000", "181713.718000", "181713.734000", "181713.734000", "181713.734000", "181713.734000", "181713.734000", "181713.734000", "181713.734000", "181713.750000", "181713.750000", "181713.750000", "181713.750000", "181713.750000", "181713.750000", "181713.750000", "181713.765000", "181713.765000", "181713.765000", "181713.765000", "181813.718000", "181813.734000", "181813.734000", "181813.734000", "181813.734000", "181813.734000", "181813.734000", "181813.750000", "181813.750000", "181813.750000", "181813.750000", "181813.750000", "181813.750000", "181813.750000", "181813.765000", "181813.765000", "181813.765000", "181813.765000", "181813.765000", "181813.765000", "181813.765000", "181813.781000", "181813.781000", "181813.781000", "181813.781000", "181813.781000", "181813.781000", "181813.796000", "181913.718000", "181913.734000", "181913.734000", "181913.734000", "181913.734000", "181913.734000", "181913.734000", "181913.750000", "181913.750000", "181913.750000", "181913.750000", "181913.750000", "181913.750000", "181913.750000", "181913.765000", "181913.765000", "181913.765000", "181913.765000", "181913.765000", "181913.765000", "181913.765000", "181913.781000", "181913.781000", "181913.781000", "181913.781000", "181913.781000", "181913.781000", "181913.796000", "182013.718000", "182013.734000", "182013.734000", "182013.734000", "182013.734000", "182013.734000", "182013.734000", "182013.750000", "182013.750000", "182013.750000", "182013.750000", "182013.750000", "182013.750000", "182013.750000", "182013.765000", "182013.765000", "182013.765000", "182013.765000", "182013.765000", "182013.765000", "182013.765000", "182013.781000", "182013.781000", "182013.781000", "182013.781000", "182013.781000", "182013.796000", "182013.796000", "182113.718000", "182113.734000", "182113.734000", "182113.734000", "182113.734000", "182113.734000", "182113.734000", "182113.750000", "182113.750000", "182113.750000", "182113.750000", "182113.750000", "182113.750000", "182113.750000", "182113.765000", "182113.765000", "182113.765000", "182113.765000", "182113.765000", "182113.765000", "182113.781000", "182113.781000", "182113.781000", "182113.781000", "182113.781000", "182113.781000", "182113.781000", "182113.796000", "182213.718000", "182213.734000", "182213.734000", "182213.734000", "182213.734000", "182213.734000", "182213.734000", "182213.750000", "182213.750000", "182213.750000", "182213.750000", "182213.750000", "182213.750000", "182213.750000", "182213.765000", "182213.765000", "182213.765000", "182213.765000", "182213.765000", "182213.765000", "182213.765000", "182213.781000", "182213.781000", "182213.781000", "182213.781000", "182213.781000", "182213.781000", "182213.781000", "182213.796000", "182313.718000", "182313.734000", "182313.734000", "182313.734000", "182313.734000", "182313.734000", "182313.734000", "182313.750000", "182313.750000", "182313.750000", "182313.750000", "182313.750000", "182313.750000", "182313.750000", "182313.765000", "182313.765000", "182313.765000", "182313.765000", "182313.765000", "182313.765000", "182313.765000", "182313.781000", "182313.781000", "182313.781000", "182313.781000", "182313.781000", "182313.781000", "182313.781000", "182413.718000", "182413.734000", "182413.734000", "182413.734000", "182413.734000", "182413.734000", "182413.734000", "182413.750000", "182413.750000", "182413.750000", "182413.750000", "182413.750000", "182413.750000", "182413.750000", "182413.765000", "182413.765000", "182413.765000", "182413.765000", "182413.765000", "182413.781000", "182413.781000", "182413.781000", "182413.781000", "182413.781000", "182413.781000", "182413.781000", "182413.796000", "182413.796000", "182513.718000", "182513.734000", "182513.734000", "182513.734000", "182513.734000", "182513.734000", "182513.734000", "182513.750000", "182513.750000", "182513.750000", "182513.750000", "182513.750000", "182513.750000", "182513.750000", "182513.765000", "182513.765000", "182513.765000", "182513.765000", "182513.765000", "182513.765000", "182513.765000", "182513.781000", "182513.781000", "182513.781000", "182513.781000", "182513.781000", "182513.781000", "182513.781000", "182613.718000", "182613.734000", "182613.734000", "182613.734000", "182613.734000", "182613.734000", "182613.734000", "182613.750000", "182613.750000", "182613.750000", "182613.750000", "182613.750000", "182613.750000", "182613.750000", "182613.765000", "182613.765000", "182613.765000", "182613.765000", "182613.765000", "182613.765000", "182613.765000", "182613.781000", "182613.781000", "182613.781000", "182613.781000", "182613.781000", "182613.781000", "182613.781000", "182713.718000", "182713.734000", "182713.734000", "182713.734000", "182713.734000", "182713.734000", "182713.734000", "182713.750000", "182713.750000", "182713.750000", "182713.750000", "182713.750000", "182713.750000", "182713.750000", "182713.765000", "182713.765000", "182713.765000", "182713.765000", "182713.765000", "182713.781000", "182713.781000", "182713.781000", "182713.781000", "182713.781000", "182713.781000", "182713.781000", "182713.796000", "182713.796000", "182713.796000", "182813.718000", "182813.734000", "182813.734000", "182813.734000", "182813.734000", "182813.734000", "182813.734000", "182813.750000", "182813.750000", "182813.750000", "182813.750000", "182813.750000", "182813.750000", "182813.750000", "182813.765000", "182813.765000", "182813.765000", "182813.765000", "182813.765000", "182813.765000", "182813.765000", "182813.781000", "182813.781000", "182813.781000", "182813.781000", "182813.781000", "182813.781000", "182813.796000", "182913.718000", "182913.734000", "182913.734000", "182913.734000", "182913.734000", "182913.734000", "182913.734000", "182913.750000", "182913.750000", "182913.750000", "182913.750000", "182913.750000", "182913.750000", "182913.750000", "182913.765000", "182913.765000", "182913.765000", "182913.765000", "182913.765000", "182913.781000", "182913.781000", "182913.781000", "182913.781000", "182913.781000", "182913.781000", "182913.781000", "182913.796000", "182913.796000", "183013.718000", "183013.734000", "183013.734000", "183013.734000", "183013.750000", "183013.750000", "183013.750000", "183013.750000", "183013.750000", "183013.750000", "183013.750000", "183013.765000", "183013.765000", "183013.765000", "183013.765000", "183013.765000", "183013.765000", "183013.765000", "183013.781000", "183013.781000", "183013.781000", "183013.781000", "183013.781000", "183013.781000", "183013.781000", "183013.796000", "183013.796000", "183013.796000", "183113.718000", "183113.734000", "183113.734000", "183113.734000", "183113.734000", "183113.734000", "183113.734000", "183113.750000", "183113.750000", "183113.750000", "183113.750000", "183113.750000", "183113.750000", "183113.750000", "183113.765000", "183113.765000", "183113.765000", "183113.765000", "183113.765000", "183113.765000", "183113.781000", "183113.781000", "183113.781000", "183113.781000", "183113.781000", "183113.781000", "183113.781000", "183113.796000", "183158.406000", "183158.406000", "183158.406000", "183158.406000", "183158.421000", "183158.421000", "183158.421000", "183158.421000", "183158.421000", "183158.421000", "183158.421000", "183158.437000", "183158.437000", "183158.437000", "183158.437000", "183158.437000", "183158.437000", "183158.437000", "183158.453000", "183158.453000", "183158.453000", "183158.453000"],
