{
  "AcquisitionMatrixPE": 104,
  "AcquisitionNumber": 1,
  "AcquisitionTime": "16:45:27.757500",
  "BandwidthPerPixelPhaseEncode": 13.935,
  "BaseResolution": 104,
  "CoilString": "C:HEA;HEP",
  "ConversionSoftware": "dcm2niix",
  "ConversionSoftwareVersion": "v1.0.20210317",
  "DerivedVendorReportedEchoSpacing": 0.000690017,
  "DeviceSerialNumber": "35450",
  "DwellTime": 2.5e-06,
  "EchoTime": 0.0348,
  "EffectiveEchoSpacing": 0.000690017,
  "FlipAngle": 55,
  "ImageComments": "Unaliased MB8/PE3",
  "ImageOrientationPatientDICOM": [0.999781, 0.000292439, 0.0209404, -3.70528e-08, 0.999903, -0.0139622],
  "ImageType": [
    "ORIGINAL",
    "PRIMARY",
    "M",
    "MB",
    "ND",
    "MOSAIC"
],
  "ImagingFrequency": 123.235,
  "InPlanePhaseEncodingDirectionDICOM": "COL",
  "InstitutionAddress": "Univeristy Ave. 197,Newark,North East,US,07102-1814",
  "InstitutionName": "RUBIC",
  "InstitutionalDepartmentName": "Department",
  "MRAcquisitionType": "2D",
  "MagneticFieldStrength": 3,
  "Manufacturer": "Siemens",
  "ManufacturersModelName": "TrioTim",
  "Modality": "MR",
  "MultibandAccelerationFactor": 8,
  "PartialFourier": 0.875,
  "PatientPosition": "HFS",
  "PercentPhaseFOV": 100,
  "PercentSampling": 100,
  "PhaseEncodingDirection": "j-",
  "PhaseEncodingSteps": 91,
  "PhaseResolution": 1,
  "PixelBandwidth": 1923,
  "ProcedureStepDescription": "Cole^Michael",
  "ProtocolName": "cmrr_mbep2d_bold_2mm_MB8_Task_8x",
  "PulseSequenceDetails": "%CustomerSeq%\\cmrr_mbep2d_bold",
  "ReceiveCoilName": "32Ch_Head",
  "ReconMatrixPE": 104,
  "RepetitionTime": 0.785,
  "SAR": 0.165453,
  "ScanOptions": "PFP\\FS",
  "ScanningSequence": "EP",
  "SequenceName": "epfid2d1_104",
  "SequenceVariant": "SK\\SS",
  "SeriesDescription": "cmrr_mbep2d_bold_2mm_MB8_Task_8x",
  "SeriesNumber": 27,
  "ShimSetting": [2127, -486, -7263, 574, -91, -221, 179, -132],
  "SliceThickness": 2,
  "SliceTiming": [0, 0.4375, 0.0875, 0.525, 0.175, 0.6125, 0.2625, 0.7, 0.35, 0, 0.4375, 0.0875, 0.525, 0.175, 0.6125, 0.2625, 0.7, 0.35, 0, 0.4375, 0.0875, 0.525, 0.175, 0.6125, 0.2625, 0.7, 0.35, 0, 0.4375, 0.0875, 0.525, 0.175, 0.6125, 0.2625, 0.7, 0.35, 0, 0.4375, 0.0875, 0.525, 0.175, 0.6125, 0.2625, 0.7, 0.35, 0, 0.4375, 0.0875, 0.525, 0.175, 0.6125, 0.2625, 0.7, 0.35, 0, 0.4375, 0.0875, 0.525, 0.175, 0.6125, 0.2625, 0.7, 0.35, 0, 0.4375, 0.0875, 0.525, 0.175, 0.6125, 0.2625, 0.7, 0.35],
  "SoftwareVersions": "syngo MR B19",
  "SpacingBetweenSlices": 2,
  "StationName": "MRC35450",
  "TaskName": "cpro",
  "TotalReadoutTime": 0.0710717,
  "TxRefAmp": 385.324,
  "dcmmeta_affine": [
    [-1.9995613098144531, -7.410552171904783e-08, 0.04188484326004982, 102.49028015136719],
    [-0.0005848778528161347, 1.9998050928115845, -0.027918236330151558, -88.16078186035156],
    [0.04188075661659241, 0.02792436257004738, 1.9993665218353271, -86.21315002441406],
    [0.0, 0.0, 0.0, 1.0]
],
  "dcmmeta_reorient_transform": [
    [0.0, -1.0, 0.0, 103.0],
    [1.0, 0.0, 0.0, 0.0],
    [0.0, 0.0, 1.0, 0.0],
    [0.0, 0.0, 0.0, 1.0]
],
  "dcmmeta_shape": [104, 104, 72, 581],
  "dcmmeta_slice_dim": 2,
  "dcmmeta_version": 0.6,
  "global": {
    "const": {
      "AcquisitionMatrix": [104, 0, 0, 104],
      "AngioFlag": "N",
      "BitsAllocated": 16,
      "BitsStored": 12,
      "Columns": 936,
      "EchoNumbers": 1,
      "EchoTime": 34.8,
      "EchoTrainLength": 1,
      "FlipAngle": 55.0,
      "HighBit": 11,
      "ImageOrientationPatient": [0.99978068345824, 0.00029243891402, 0.02094037877551, -3.705276e-08, 0.99990252399678, -0.013962181236],
      "ImagePositionPatient": [-934.30777326185, -949.98134869546, -89.142798951707],
      "ImageType": [
        "ORIGINAL",
        "PRIMARY",
        "M",
        "MB",
        "ND",
        "MOSAIC"
],
      "ImagedNucleus": "1H",
      "ImagingFrequency": 123.234584,
      "InPlanePhaseEncodingDirection": "COL",
      "MRAcquisitionType": "2D",
      "MagneticFieldStrength": 3.0,
      "Manufacturer": "SIEMENS",
      "ManufacturerModelName": "TrioTim",
      "Modality": "MR",
      "NumberOfAverages": 1.0,
      "NumberOfPhaseEncodingSteps": 91,
      "PercentPhaseFieldOfView": 100.0,
      "PercentSampling": 100.0,
      "PerformedProcedureStepStartTime": "144633.343000",
      "PhotometricInterpretation": "MONOCHROME2",
      "PixelBandwidth": 1923.0,
      "PixelRepresentation": 0,
      "PixelSpacing": [2.0, 2.0],
      "ProtocolName": "cmrr_mbep2d_bold_2mm_MB8_Task_8x",
      "RepetitionTime": 785.0,
      "Rows": 936,
      "SAR": 0.16545277246203,
      "SamplesPerPixel": 1,
      "ScanOptions": [
        "PFP",
        "FS"
],
      "ScanningSequence": "EP",
      "SequenceName": "epfid2d1_104",
      "SequenceVariant": [
        "SK",
        "SS"
],
      "SeriesDescription": "cmrr_mbep2d_bold_2mm_MB8_Task_8x",
      "SeriesNumber": 27,
      "SeriesTime": "183218.656000",
      "SliceLocation": -82.808796706389,
      "SliceThickness": 2.0,
      "SmallestImagePixelValue": 0,
      "SoftwareVersions": "syngo MR B19",
      "SpacingBetweenSlices": 2.0000000336909,
      "SpecificCharacterSet": "ISO_IR 100",
      "StudyID": "1",
      "StudyTime": "144633.296000",
      "TransmitCoilName": "Body",
      "VariableFlipAngleFlag": "N",
      "WindowCenterWidthExplanation": "Algo1",
      "dBdt": 0.0},
    "slices": {}
  },
  "time": {
    "samples": {
      "AcquisitionNumber": [1, 2, 3, 4, 5, 6, 7, 8, 9, 10, 11, 12, 13, 14, 15, 16, 17, 18, 19, 20, 21, 22, 23, 24, 25, 26, 27, 28, 29, 30, 31, 32, 33, 34, 35, 36, 37, 38, 39, 40, 41, 42, 43, 44, 45, 46, 47, 48, 49, 50, 51, 52, 53, 54, 55, 56, 57, 58, 59, 60, 61, 62, 63, 64, 65, 66, 67, 68, 69, 70, 71, 72, 73, 74, 75, 76, 77, 78, 79, 80, 81, 82, 83, 84, 85, 86, 87, 88, 89, 90, 91, 92, 93, 94, 95, 96, 97, 98, 99, 100, 101, 102, 103, 104, 105, 106, 107, 108, 109, 110, 111, 112, 113, 114, 115, 116, 117, 118, 119, 120, 121, 122, 123, 124, 125, 126, 127, 128, 129, 130, 131, 132, 133, 134, 135, 136, 137, 138, 139, 140, 141, 142, 143, 144, 145, 146, 147, 148, 149, 150, 151, 152, 153, 154, 155, 156, 157, 158, 159, 160, 161, 162, 163, 164, 165, 166, 167, 168, 169, 170, 171, 172, 173, 174, 175, 176, 177, 178, 179, 180, 181, 182, 183, 184, 185, 186, 187, 188, 189, 190, 191, 192, 193, 194, 195, 196, 197, 198, 199, 200, 201, 202, 203, 204, 205, 206, 207, 208, 209, 210, 211, 212, 213, 214, 215, 216, 217, 218, 219, 220, 221, 222, 223, 224, 225, 226, 227, 228, 229, 230, 231, 232, 233, 234, 235, 236, 237, 238, 239, 240, 241, 242, 243, 244, 245, 246, 247, 248, 249, 250, 251, 252, 253, 254, 255, 256, 257, 258, 259, 260, 261, 262, 263, 264, 265, 266, 267, 268, 269, 270, 271, 272, 273, 274, 275, 276, 277, 278, 279, 280, 281, 282, 283, 284, 285, 286, 287, 288, 289, 290, 291, 292, 293, 294, 295, 296, 297, 298, 299, 300, 301, 302, 303, 304, 305, 306, 307, 308, 309, 310, 311, 312, 313, 314, 315, 316, 317, 318, 319, 320, 321, 322, 323, 324, 325, 326, 327, 328, 329, 330, 331, 332, 333, 334, 335, 336, 337, 338, 339, 340, 341, 342, 343, 344, 345, 346, 347, 348, 349, 350, 351, 352, 353, 354, 355, 356, 357, 358, 359, 360, 361, 362, 363, 364, 365, 366, 367, 368, 369, 370, 371, 372, 373, 374, 375, 376, 377, 378, 379, 380, 381, 382, 383, 384, 385, 386, 387, 388, 389, 390, 391, 392, 393, 394, 395, 396, 397, 398, 399, 400, 401, 402, 403, 404, 405, 406, 407, 408, 409, 410, 411, 412, 413, 414, 415, 416, 417, 418, 419, 420, 421, 422, 423, 424, 425, 426, 427, 428, 429, 430, 431, 432, 433, 434, 435, 436, 437, 438, 439, 440, 441, 442, 443, 444, 445, 446, 447, 448, 449, 450, 451, 452, 453, 454, 455, 456, 457, 458, 459, 460, 461, 462, 463, 464, 465, 466, 467, 468, 469, 470, 471, 472, 473, 474, 475, 476, 477, 478, 479, 480, 481, 482, 483, 484, 485, 486, 487, 488, 489, 490, 491, 492, 493, 494, 495, 496, 497, 498, 499, 500, 501, 502, 503, 504, 505, 506, 507, 508, 509, 510, 511, 512, 513, 514, 515, 516, 517, 518, 519, 520, 521, 522, 523, 524, 525, 526, 527, 528, 529, 530, 531, 532, 533, 534, 535, 536, 537, 538, 539, 540, 541, 542, 543, 544, 545, 546, 547, 548, 549, 550, 551, 552, 553, 554, 555, 556, 557, 558, 559, 560, 561, 562, 563, 564, 565, 566, 567, 568, 569, 570, 571, 572, 573, 574, 575, 576, 577, 578, 579, 580, 581],
      "AcquisitionTime": ["164527.757500", "164528.545000", "164529.332500", "164530.122500", "164530.910000", "164531.697500", "164532.485000", "164533.275000", "164534.062500", "164534.850000", "164535.637500", "164536.427500", "164537.215000", "164538.002500", "164538.792500", "164539.580000", "164540.367500", "164541.155000", "164541.945000", "164542.732500", "164543.520000", "164544.307500", "164545.097500", "164545.885000", "164546.672500", "164547.460000", "164548.250000", "164549.037500", "164549.825000", "164550.612500", "164551.402500", "164552.190000", "164552.977500", "164553.765000", "164554.555000", "164555.342500", "164556.130000", "164556.920000", "164557.707500", "164558.495000", "164559.282500", "164600.072500", "164600.860000", "164601.647500", "164602.435000", "164603.225000", "164604.012500", "164604.800000", "164605.587500", "164606.377500", "164607.165000", "164607.952500", "164608.740000", "164609.530000", "164610.317500", "164611.105000", "164611.892500", "164612.682500", "164613.470000", "164614.257500", "164615.047500", "164615.835000", "164616.622500", "164617.410000", "164618.200000", "164618.987500", "164619.775000", "164620.562500", "164621.352500", "164622.140000", "164622.927500", "164623.715000", "164624.505000", "164625.292500", "164626.080000", "164626.867500", "164627.657500", "164628.445000", "164629.232500", "164630.020000", "164630.810000", "164631.597500", "164632.385000", "164633.175000", "164633.962500", "164634.750000", "164635.537500", "164636.327500", "164637.115000", "164637.902500", "164638.690000", "164639.480000", "164640.267500", "164641.055000", "164641.842500", "164642.632500", "164643.420000", "164644.207500", "164644.995000", "164645.785000", "164646.572500", "164647.360000", "164648.147500", "164648.937500", "164649.725000", "164650.512500", "164651.302500", "164652.090000", "164652.877500", "164653.665000", "164654.455000", "164655.242500", "164656.030000", "164656.817500", "164657.607500", "164658.395000", "164659.182500", "164659.970000", "164700.760000", "164701.547500", "164702.335000", "164703.122500", "164703.912500", "164704.700000", "164705.487500", "164706.275000", "164707.065000", "164707.852500", "164708.640000", "164709.430000", "164710.217500", "164711.005000", "164711.792500", "164712.582500", "164713.370000", "164714.157500", "164714.945000", "164715.735000", "164716.522500", "164717.310000", "164718.097500", "164718.887500", "164719.675000", "164720.462500", "164721.250000", "164722.040000", "164722.827500", "164723.615000", "164724.402500", "164725.192500", "164725.980000", "164726.767500", "164727.557500", "164728.345000", "164729.132500", "164729.920000", "164730.710000", "164731.497500", "164732.285000", "164733.072500", "164733.862500", "164734.650000", "164735.437500", "164736.225000", "164737.015000", "164737.802500", "164738.590000", "164739.377500", "164740.167500", "164740.955000", "164741.742500", "164742.530000", "164743.320000", "164744.107500", "164744.895000", "164745.685000", "164746.472500", "164747.260000", "164748.047500", "164748.837500", "164749.625000", "164750.412500", "164751.200000", "164751.990000", "164752.777500", "164753.565000", "164754.352500", "164755.142500", "164755.930000", "164756.717500", "164757.505000", "164758.295000", "164759.082500", "164759.870000", "164800.660000", "164801.447500", "164802.235000", "164803.022500", "164803.812500", "164804.600000", "164805.387500", "164806.175000", "164806.965000", "164807.752500", "164808.540000", "164809.327500", "164810.117500", "164810.905000", "164811.692500", "164812.480000", "164813.270000", "164814.057500", "164814.845000", "164815.632500", "164816.422500", "164817.210000", "164817.997500", "164818.787500", "164819.575000", "164820.362500", "164821.150000", "164821.940000", "164822.727500", "164823.515000", "164824.302500", "164825.092500", "164825.880000", "164826.667500", "164827.455000", "164828.245000", "164829.032500", "164829.820000", "164830.607500", "164831.397500", "164832.185000", "164832.972500", "164833.760000", "164834.550000", "164835.337500", "164836.125000", "164836.915000", "164837.702500", "164838.490000", "164839.277500", "164840.067500", "164840.855000", "164841.642500", "164842.430000", "164843.220000", "164844.007500", "164844.795000", "164845.582500", "164846.372500", "164847.160000", "164847.947500", "164848.735000", "164849.525000", "164850.312500", "164851.100000", "164851.887500", "164852.677500", "164853.465000", "164854.252500", "164855.042500", "164855.830000", "164856.617500", "164857.405000", "164858.195000", "164858.982500", "164859.770000", "164900.557500", "164901.347500", "164902.135000", "164902.922500", "164903.710000", "164904.500000", "164905.287500", "164906.075000", "164906.862500", "164907.652500", "164908.440000", "164909.227500", "164910.015000", "164910.805000", "164911.592500", "164912.380000", "164913.170000", "164913.957500", "164914.745000", "164915.532500", "164916.322500", "164917.110000", "164917.897500", "164918.685000", "164919.475000", "164920.262500", "164921.050000", "164921.837500", "164922.627500", "164923.415000", "164924.202500", "164924.990000", "164925.780000", "164926.567500", "164927.355000", "164928.142500", "164928.932500", "164929.720000", "164930.507500", "164931.297500", "164932.085000", "164932.872500", "164933.660000", "164934.450000", "164935.237500", "164936.025000", "164936.812500", "164937.602500", "164938.390000", "164939.177500", "164939.965000", "164940.755000", "164941.542500", "164942.330000", "164943.117500", "164943.907500", "164944.695000", "164945.482500", "164946.270000", "164947.060000", "164947.847500", "164948.635000", "164949.425000", "164950.212500", "164951.000000", "164951.787500", "164952.577500", "164953.365000", "164954.152500", "164954.940000", "164955.730000", "164956.517500", "164957.305000", "164958.092500", "164958.882500", "164959.670000", "165000.457500", "165001.245000", "165002.035000", "165002.822500", "165003.610000", "165004.397500", "165005.187500", "165005.975000", "165006.762500", "165007.552500", "165008.340000", "165009.127500", "165009.915000", "165010.705000", "165011.492500", "165012.280000", "165013.067500", "165013.857500", "165014.645000", "165015.432500", "165016.220000", "165017.010000", "165017.797500", "165018.585000", "165019.372500", "165020.162500", "165020.950000", "165021.737500", "165022.525000", "165023.315000", "165024.102500", "165024.890000", "165025.680000", "165026.467500", "165027.255000", "165028.042500", "165028.832500", "165029.620000", "165030.407500", "165031.195000", "165031.985000", "165032.772500", "165033.560000", "165034.347500", "165035.137500", "165035.925000", "165036.712500", "165037.500000", "165038.290000", "165039.077500", "165039.865000", "165040.652500", "165041.442500", "165042.230000", "165043.017500", "165043.807500", "165044.595000", "165045.382500", "165046.170000", "165046.960000", "165047.747500", "165048.535000", "165049.322500", "165050.112500", "165050.900000", "165051.687500", "165052.475000", "165053.265000", "165054.052500", "165054.840000", "165055.627500", "165056.417500", "165057.205000", "165057.992500", "165058.780000", "165059.570000", "165100.357500", "165101.145000", "165101.935000", "165102.722500", "165103.510000", "165104.297500", "165105.087500", "165105.875000", "165106.662500", "165107.450000", "165108.240000", "165109.027500", "165109.815000", "165110.602500", "165111.392500", "165112.180000", "165112.967500", "165113.755000", "165114.545000", "165115.332500", "165116.120000", "165116.910000", "165117.697500", "165118.485000", "165119.272500", "165120.062500", "165120.850000", "165121.637500", "165122.425000", "165123.215000", "165124.002500", "165124.790000", "165125.577500", "165126.367500", "165127.155000", "165127.942500", "165128.730000", "165129.520000", "165130.307500", "165131.095000", "165131.882500", "165132.672500", "165133.460000", "165134.247500", "165135.037500", "165135.825000", "165136.612500", "165137.400000", "165138.190000", "165138.977500", "165139.765000", "165140.552500", "165141.342500", "165142.130000", "165142.917500", "165143.705000", "165144.495000", "165145.282500", "165146.070000", "165146.857500", "165147.647500", "165148.435000", "165149.222500", "165150.010000", "165150.800000", "165151.587500", "165152.375000", "165153.165000", "165153.952500", "165154.740000", "165155.527500", "165156.317500", "165157.105000", "165157.892500", "165158.680000", "165159.470000", "165200.257500", "165201.045000", "165201.832500", "165202.622500", "165203.410000", "165204.197500", "165204.985000", "165205.775000", "165206.562500", "165207.350000", "165208.137500", "165208.927500", "165209.715000", "165210.502500", "165211.292500", "165212.080000", "165212.867500", "165213.655000", "165214.445000", "165215.232500", "165216.020000", "165216.807500", "165217.597500", "165218.385000", "165219.172500", "165219.960000", "165220.750000", "165221.537500", "165222.325000", "165223.112500", "165223.902500", "165224.690000", "165225.477500", "165226.265000", "165227.055000", "165227.842500", "165228.630000", "165229.420000", "165230.207500", "165230.995000", "165231.782500", "165232.572500", "165233.360000", "165234.147500", "165234.935000", "165235.725000", "165236.512500", "165237.300000", "165238.087500", "165238.877500", "165239.665000", "165240.452500", "165241.240000", "165242.030000", "165242.817500", "165243.605000", "165244.392500", "165245.182500", "165245.970000", "165246.757500", "165247.547500", "165248.335000", "165249.122500", "165249.910000", "165250.700000", "165251.487500", "165252.275000", "165253.062500", "165253.852500", "165254.640000", "165255.427500", "165256.215000", "165257.005000", "165257.792500", "165258.580000", "165259.367500", "165300.157500", "165300.945000", "165301.732500", "165302.520000", "165303.310000", "165304.097500", "165304.885000"],
      "ContentTime": ["183218.656000", "183218.656000", "183318.625000", "183318.640000", "183318.640000", "183318.640000", "183318.640000", "183318.640000", "183318.640000", "183318.640000", "183318.656000", "183318.656000", "183318.656000", "183318.656000", "183318.656000", "183318.656000", "183318.656000", "183318.671000", "183318.671000", "183318.671000", "183318.671000", "183318.671000", "183318.671000", "183318.671000", "183318.687000", "183318.687000", "183318.687000", "183318.687000", "183318.687000", "183318.703000", "183418.625000", "183418.640000", "183418.640000", "183418.640000", "183418.640000", "183418.640000", "183418.640000", "183418.640000", "183418.656000", "183418.656000", "183418.656000", "183418.656000", "183418.656000", "183418.656000", "183418.671000", "183418.671000", "183418.671000", "183418.671000", "183418.671000", "183418.671000", "183418.671000", "183418.687000", "183418.687000", "183418.687000", "183418.687000", "183418.687000", "183418.687000", "183418.687000", "183518.625000", "183518.640000", "183518.640000", "183518.640000", "183518.640000", "183518.640000", "183518.640000", "183518.640000", "183518.656000", "183518.656000", "183518.656000", "183518.656000", "183518.656000", "183518.656000", "183518.656000", "183518.671000", "183518.671000", "183518.671000", "183518.671000", "183518.671000", "183518.671000", "183518.671000", "183518.687000", "183518.687000", "183518.687000", "183518.687000", "183518.687000", "183518.687000", "183518.703000", "183538.625000", "183538.640000", "183538.640000", "183538.640000", "183538.640000", "183538.640000", "183538.640000", "183538.656000", "183538.656000", "183638.625000", "183638.640000", "183638.640000", "183638.640000", "183638.640000", "183638.640000", "183638.640000", "183638.656000", "183638.656000", "183638.656000", "183638.656000", "183638.656000", "183638.656000", "183638.671000", "183638.671000", "183638.671000", "183638.671000", "183638.671000", "183638.687000", "183638.687000", "183638.687000", "183638.687000", "183638.687000", "183638.687000", "183638.703000", "183638.703000", "183638.703000", "183638.718000", "183738.625000", "183738.640000", "183738.640000", "183738.640000", "183738.640000", "183738.640000", "183738.640000", "183738.640000", "183738.656000", "183738.656000", "183738.656000", "183738.656000", "183738.656000", "183738.656000", "183738.656000", "183738.671000", "183738.671000", "183738.671000", "183738.671000", "183738.671000", "183738.671000", "183738.687000", "183738.687000", "183738.687000", "183738.687000", "183738.687000", "183738.687000", "183738.687000", "183738.703000", "183838.625000", "183838.640000", "183838.640000", "183838.640000", "183838.640000", "183838.640000", "183838.640000", "183838.656000", "183838.656000", "183838.656000", "183838.656000", "183838.656000", "183838.656000", "183838.656000", "183838.671000", "183838.671000", "183838.671000", "183838.671000", "183838.671000", "183838.671000", "183838.671000", "183838.687000", "183838.687000", "183838.687000", "183838.687000", "183838.687000", "183838.687000", "183838.687000", "183938.625000", "183938.640000", "183938.640000", "183938.640000", "183938.640000", "183938.640000", "183938.640000", "183938.640000", "183938.656000", "183938.656000", "183938.656000", "183938.656000", "183938.656000", "183938.656000", "183938.656000", "183938.671000", "183938.671000", "183938.671000", "183938.671000", "183938.671000", "183938.671000", "183938.671000", "183938.687000", "183938.687000", "183938.687000", "183938.687000", "183938.687000", "183938.703000", "184038.625000", "184038.640000", "184038.640000", "184038.640000", "184038.640000", "184038.640000", "184038.640000", "184038.640000", "184038.656000", "184038.656000", "184038.656000", "184038.656000", "184038.656000", "184038.656000", "184038.656000", "184038.671000", "184038.671000", "184038.671000", "184038.671000", "184038.671000", "184038.671000", "184038.671000", "184038.687000", "184038.687000", "184038.687000", "184038.687000", "184038.687000", "184038.687000", "184038.687000", "184138.625000", "184138.640000", "184138.640000", "184138.640000", "184138.640000", "184138.640000", "184138.640000", "184138.640000", "184138.656000", "184138.656000", "184138.656000", "184138.656000", "184138.656000", "184138.656000", "184138.671000", "184138.671000", "184138.671000", "184138.671000", "184138.671000", "184138.671000", "184138.671000", "184138.687000", "184138.687000", "184138.687000", "184138.687000", "184138.687000", "184138.687000", "184138.703000", "184238.625000", "184238.640000", "184238.640000", "184238.640000", "184238.640000", "184238.640000", "184238.640000", "184238.640000", "184238.656000", "184238.656000", "184238.656000", "184238.656000", "184238.656000", "184238.656000", "184238.671000", "184238.671000", "184238.671000", "184238.671000", "184238.671000", "184238.671000", "184238.671000", "184238.687000", "184238.687000", "184238.687000", "184238.687000", "184238.687000", "184238.703000", "184238.703000", "184338.625000", "184338.640000", "184338.640000", "184338.640000", "184338.640000", "184338.640000", "184338.640000", "184338.640000", "184338.656000", "184338.656000", "184338.656000", "184338.656000", "184338.656000", "184338.656000", "184338.656000", "184338.671000", "184338.671000", "184338.671000", "184338.671000", "184338.671000", "184338.671000", "184338.671000", "184338.687000", "184338.687000", "184338.687000", "184338.687000", "184338.687000", "184338.687000", "184338.687000", "184438.625000", "184438.640000", "184438.640000", "184438.640000", "184438.640000", "184438.640000", "184438.640000", "184438.656000", "184438.656000", "184438.656000", "184438.656000", "184438.656000", "184438.656000", "184438.656000", "184438.671000", "184438.671000", "184438.671000", "184438.671000", "184438.671000", "184438.687000", "184438.687000", "184438.687000", "184438.687000", "184438.687000", "184438.687000", "184438.687000", "184438.703000", "184438.703000", "184538.625000", "184538.640000", "184538.640000", "184538.640000", "184538.640000", "184538.640000", "184538.640000", "184538.640000", "184538.656000", "184538.656000", "184538.656000", "184538.656000", "184538.656000", "184538.671000", "184538.671000", "184538.671000", "184538.671000", "184538.671000", "184538.671000", "184538.671000", "184538.687000", "184538.687000", "184538.687000", "184538.687000", "184538.687000", "184538.687000", "184538.703000", "184538.703000", "184638.625000", "184638.640000", "184638.640000", "184638.656000", "184638.656000", "184638.656000", "184638.656000", "184638.671000", "184638.671000", "184638.671000", "184638.671000", "184638.671000", "184638.671000", "184638.671000", "184638.687000", "184638.687000", "184638.687000", "184638.687000", "184638.687000", "184638.703000", "184638.703000", "184638.703000", "184638.703000", "184638.703000", "184638.703000", "184638.718000", "184638.718000", "184638.718000", "184738.625000", "184738.640000", "184738.640000", "184738.640000", "184738.640000", "184738.640000", "184738.640000", "184738.640000", "184738.656000", "184738.656000", "184738.656000", "184738.656000", "184738.656000", "184738.656000", "184738.656000", "184738.671000", "184738.671000", "184738.671000", "184738.671000", "184738.671000", "184738.687000", "184738.687000", "184738.687000", "184738.687000", "184738.687000", "184738.687000", "184738.687000", "184738.703000", "184738.703000", "184838.625000", "184838.640000", "184838.640000", "184838.640000", "184838.640000", "184838.640000", "184838.640000", "184838.656000", "184838.656000", "184838.656000", "184838.656000", "184838.656000", "184838.656000", "184838.656000", "184838.671000", "184838.671000", "184838.671000", "184838.671000", "184838.671000", "184838.671000", "184838.671000", "184838.687000", "184838.687000", "184838.687000", "184838.687000", "184838.687000", "184838.687000", "184838.687000", "184938.625000", "184938.640000", "184938.640000", "184938.640000", "184938.640000", "184938.640000", "184938.640000", "184938.640000", "184938.656000", "184938.656000", "184938.656000", "184938.656000", "184938.656000", "184938.656000", "184938.656000", "184938.671000", "184938.671000", "184938.671000", "184938.671000", "184938.671000", "184938.671000", "184938.671000", "184938.687000", "184938.687000", "184938.687000", "184938.687000", "184938.687000", "184938.687000", "185038.625000", "185038.640000", "185038.640000", "185038.640000", "185038.640000", "185038.640000", "185038.640000", "185038.656000", "185038.656000", "185038.656000", "185038.656000", "185038.656000", "185038.656000", "185038.656000", "185038.671000", "185038.671000", "185038.671000", "185038.671000", "185038.671000", "185038.671000", "185038.671000", "185038.687000", "185038.687000", "185038.687000", "185038.687000", "185038.687000", "185038.687000", "185038.687000", "185038.703000", "185138.625000", "185138.640000", "185138.640000", "185138.640000", "185138.640000", "185138.640000", "185138.640000", "185138.656000", "185138.656000", "185138.656000", "185138.656000", "185138.656000", "185138.656000", "185138.656000", "185138.671000", "185138.671000", "185138.671000", "185138.671000", "185138.671000", "185138.671000", "185138.671000", "185138.687000", "185138.687000", "185138.687000", "185138.687000", "185138.687000", "185138.687000", "185138.687000", "185238.625000", "185238.640000", "185238.640000", "185238.640000", "185238.640000", "185238.640000", "185238.640000", "185238.640000", "185238.656000", "185238.656000", "185238.656000", "185238.656000", "185238.656000", "185238.656000", "185238.656000", "185238.671000", "185238.671000", "185238.671000", "185238.671000", "185238.671000", "185238.671000", "185238.671000", "185238.687000", "185238.687000", "185238.687000", "185238.687000", "185238.687000", "185238.687000", "185245.312000", "185245.312000", "185245.312000", "185245.312000"],
