{
  "AcquisitionMatrixPE": 104,
  "AcquisitionNumber": 1,
  "AcquisitionTime": "16:53:39.707500",
  "BandwidthPerPixelPhaseEncode": 13.935,
  "BaseResolution": 104,
  "CoilString": "C:HEA;HEP",
  "ConversionSoftware": "dcm2niix",
  "ConversionSoftwareVersion": "v1.0.20210317",
  "DerivedVendorReportedEchoSpacing": 0.000690017,
  "DeviceSerialNumber": "35450",
  "DwellTime": 2.5e-06,
  "EchoTime": 0.0348,
  "EffectiveEchoSpacing": 0.000690017,
  "FlipAngle": 55,
  "ImageComments": "Unaliased MB8/PE3",
  "ImageOrientationPatientDICOM": [0.999781, 0.000292439, 0.0209404, -3.70528e-08, 0.999903, -0.0139622],
  "ImageType": [
    "ORIGINAL",
    "PRIMARY",
    "M",
    "MB",
    "ND",
    "MOSAIC"
],
  "ImagingFrequency": 123.235,
  "InPlanePhaseEncodingDirectionDICOM": "COL",
  "InstitutionAddress": "Univeristy Ave. 197,Newark,North East,US,07102-1814",
  "InstitutionName": "RUBIC",
  "InstitutionalDepartmentName": "Department",
  "MRAcquisitionType": "2D",
  "MagneticFieldStrength": 3,
  "Manufacturer": "Siemens",
  "ManufacturersModelName": "TrioTim",
  "Modality": "MR",
  "MultibandAccelerationFactor": 8,
  "PartialFourier": 0.875,
  "PatientPosition": "HFS",
  "PercentPhaseFOV": 100,
  "PercentSampling": 100,
  "PhaseEncodingDirection": "j-",
  "PhaseEncodingSteps": 91,
  "PhaseResolution": 1,
  "PixelBandwidth": 1923,
  "ProcedureStepDescription": "Cole^Michael",
  "ProtocolName": "cmrr_mbep2d_bold_2mm_MB8_Task_8x",
  "PulseSequenceDetails": "%CustomerSeq%\\cmrr_mbep2d_bold",
  "ReceiveCoilName": "32Ch_Head",
  "ReconMatrixPE": 104,
  "RepetitionTime": 0.785,
  "SAR": 0.165453,
  "ScanOptions": "PFP\\FS",
  "ScanningSequence": "EP",
  "SequenceName": "epfid2d1_104",
  "SequenceVariant": "SK\\SS",
  "SeriesDescription": "cmrr_mbep2d_bold_2mm_MB8_Task_8x",
  "SeriesNumber": 29,
  "ShimSetting": [2127, -486, -7263, 574, -91, -221, 179, -132],
  "SliceThickness": 2,
  "SliceTiming": [0, 0.4375, 0.0875, 0.525, 0.175, 0.6125, 0.2625, 0.7, 0.35, 0, 0.4375, 0.0875, 0.525, 0.175, 0.6125, 0.2625, 0.7, 0.35, 0, 0.4375, 0.0875, 0.525, 0.175, 0.6125, 0.2625, 0.7, 0.35, 0, 0.4375, 0.0875, 0.525, 0.175, 0.6125, 0.2625, 0.7, 0.35, 0, 0.4375, 0.0875, 0.525, 0.175, 0.6125, 0.2625, 0.7, 0.35, 0, 0.4375, 0.0875, 0.525, 0.175, 0.6125, 0.2625, 0.7, 0.35, 0, 0.4375, 0.0875, 0.525, 0.175, 0.6125, 0.2625, 0.7, 0.35, 0, 0.4375, 0.0875, 0.525, 0.175, 0.6125, 0.2625, 0.7, 0.35],
  "SoftwareVersions": "syngo MR B19",
  "SpacingBetweenSlices": 2,
  "StationName": "MRC35450",
  "TaskName": "cpro",
  "TotalReadoutTime": 0.0710717,
  "TxRefAmp": 385.324,
  "dcmmeta_affine": [
    [-1.9995613098144531, -7.410552171904783e-08, 0.04188484326004982, 102.49028015136719],
    [-0.0005848778528161347, 1.9998050928115845, -0.027918236330151558, -88.16078186035156],
    [0.04188075661659241, 0.02792436257004738, 1.9993665218353271, -86.21315002441406],
    [0.0, 0.0, 0.0, 1.0]
],
  "dcmmeta_reorient_transform": [
    [0.0, -1.0, 0.0, 103.0],
    [1.0, 0.0, 0.0, 0.0],
    [0.0, 0.0, 1.0, 0.0],
    [0.0, 0.0, 0.0, 1.0]
],
  "dcmmeta_shape": [104, 104, 72, 581],
  "dcmmeta_slice_dim": 2,
  "dcmmeta_version": 0.6,
  "global": {
    "const": {
      "AcquisitionMatrix": [104, 0, 0, 104],
      "AngioFlag": "N",
      "BitsAllocated": 16,
      "BitsStored": 12,
      "Columns": 936,
      "EchoNumbers": 1,
      "EchoTime": 34.8,
      "EchoTrainLength": 1,
      "FlipAngle": 55.0,
      "HighBit": 11,
      "ImageOrientationPatient": [0.99978068345824, 0.00029243891402, 0.02094037877551, -3.705276e-08, 0.99990252399678, -0.013962181236],
      "ImagePositionPatient": [-934.30777326185, -949.98134869546, -89.142798951707],
      "ImageType": [
        "ORIGINAL",
        "PRIMARY",
        "M",
        "MB",
        "ND",
        "MOSAIC"
],
      "ImagedNucleus": "1H",
      "ImagingFrequency": 123.234584,
      "InPlanePhaseEncodingDirection": "COL",
      "MRAcquisitionType": "2D",
      "MagneticFieldStrength": 3.0,
      "Manufacturer": "SIEMENS",
      "ManufacturerModelName": "TrioTim",
      "Modality": "MR",
      "NumberOfAverages": 1.0,
      "NumberOfPhaseEncodingSteps": 91,
      "PercentPhaseFieldOfView": 100.0,
      "PercentSampling": 100.0,
      "PerformedProcedureStepStartTime": "144633.343000",
      "PhotometricInterpretation": "MONOCHROME2",
      "PixelBandwidth": 1923.0,
      "PixelRepresentation": 0,
      "PixelSpacing": [2.0, 2.0],
      "ProtocolName": "cmrr_mbep2d_bold_2mm_MB8_Task_8x",
      "RepetitionTime": 785.0,
      "Rows": 936,
      "SAR": 0.16545277246203,
      "SamplesPerPixel": 1,
      "ScanOptions": [
        "PFP",
        "FS"
],
      "ScanningSequence": "EP",
      "SequenceName": "epfid2d1_104",
      "SequenceVariant": [
        "SK",
        "SS"
],
      "SeriesDescription": "cmrr_mbep2d_bold_2mm_MB8_Task_8x",
      "SeriesNumber": 29,
      "SeriesTime": "185317.156000",
      "SliceLocation": -82.808796706389,
      "SliceThickness": 2.0,
      "SmallestImagePixelValue": 0,
      "SoftwareVersions": "syngo MR B19",
      "SpacingBetweenSlices": 2.0000000336909,
      "SpecificCharacterSet": "ISO_IR 100",
      "StudyID": "1",
      "StudyTime": "144633.296000",
      "TransmitCoilName": "Body",
      "VariableFlipAngleFlag": "N",
      "WindowCenterWidthExplanation": "Algo1",
      "dBdt": 0.0},
    "slices": {}
  },
  "time": {
    "samples": {
      "AcquisitionNumber": [1, 2, 3, 4, 5, 6, 7, 8, 9, 10, 11, 12, 13, 14, 15, 16, 17, 18, 19, 20, 21, 22, 23, 24, 25, 26, 27, 28, 29, 30, 31, 32, 33, 34, 35, 36, 37, 38, 39, 40, 41, 42, 43, 44, 45, 46, 47, 48, 49, 50, 51, 52, 53, 54, 55, 56, 57, 58, 59, 60, 61, 62, 63, 64, 65, 66, 67, 68, 69, 70, 71, 72, 73, 74, 75, 76, 77, 78, 79, 80, 81, 82, 83, 84, 85, 86, 87, 88, 89, 90, 91, 92, 93, 94, 95, 96, 97, 98, 99, 100, 101, 102, 103, 104, 105, 106, 107, 108, 109, 110, 111, 112, 113, 114, 115, 116, 117, 118, 119, 120, 121, 122, 123, 124, 125, 126, 127, 128, 129, 130, 131, 132, 133, 134, 135, 136, 137, 138, 139, 140, 141, 142, 143, 144, 145, 146, 147, 148, 149, 150, 151, 152, 153, 154, 155, 156, 157, 158, 159, 160, 161, 162, 163, 164, 165, 166, 167, 168, 169, 170, 171, 172, 173, 174, 175, 176, 177, 178, 179, 180, 181, 182, 183, 184, 185, 186, 187, 188, 189, 190, 191, 192, 193, 194, 195, 196, 197, 198, 199, 200, 201, 202, 203, 204, 205, 206, 207, 208, 209, 210, 211, 212, 213, 214, 215, 216, 217, 218, 219, 220, 221, 222, 223, 224, 225, 226, 227, 228, 229, 230, 231, 232, 233, 234, 235, 236, 237, 238, 239, 240, 241, 242, 243, 244, 245, 246, 247, 248, 249, 250, 251, 252, 253, 254, 255, 256, 257, 258, 259, 260, 261, 262, 263, 264, 265, 266, 267, 268, 269, 270, 271, 272, 273, 274, 275, 276, 277, 278, 279, 280, 281, 282, 283, 284, 285, 286, 287, 288, 289, 290, 291, 292, 293, 294, 295, 296, 297, 298, 299, 300, 301, 302, 303, 304, 305, 306, 307, 308, 309, 310, 311, 312, 313, 314, 315, 316, 317, 318, 319, 320, 321, 322, 323, 324, 325, 326, 327, 328, 329, 330, 331, 332, 333, 334, 335, 336, 337, 338, 339, 340, 341, 342, 343, 344, 345, 346, 347, 348, 349, 350, 351, 352, 353, 354, 355, 356, 357, 358, 359, 360, 361, 362, 363, 364, 365, 366, 367, 368, 369, 370, 371, 372, 373, 374, 375, 376, 377, 378, 379, 380, 381, 382, 383, 384, 385, 386, 387, 388, 389, 390, 391, 392, 393, 394, 395, 396, 397, 398, 399, 400, 401, 402, 403, 404, 405, 406, 407, 408, 409, 410, 411, 412, 413, 414, 415, 416, 417, 418, 419, 420, 421, 422, 423, 424, 425, 426, 427, 428, 429, 430, 431, 432, 433, 434, 435, 436, 437, 438, 439, 440, 441, 442, 443, 444, 445, 446, 447, 448, 449, 450, 451, 452, 453, 454, 455, 456, 457, 458, 459, 460, 461, 462, 463, 464, 465, 466, 467, 468, 469, 470, 471, 472, 473, 474, 475, 476, 477, 478, 479, 480, 481, 482, 483, 484, 485, 486, 487, 488, 489, 490, 491, 492, 493, 494, 495, 496, 497, 498, 499, 500, 501, 502, 503, 504, 505, 506, 507, 508, 509, 510, 511, 512, 513, 514, 515, 516, 517, 518, 519, 520, 521, 522, 523, 524, 525, 526, 527, 528, 529, 530, 531, 532, 533, 534, 535, 536, 537, 538, 539, 540, 541, 542, 543, 544, 545, 546, 547, 548, 549, 550, 551, 552, 553, 554, 555, 556, 557, 558, 559, 560, 561, 562, 563, 564, 565, 566, 567, 568, 569, 570, 571, 572, 573, 574, 575, 576, 577, 578, 579, 580, 581],
      "AcquisitionTime": ["165339.707500", "165340.495000", "165341.285000", "165342.072500", "165342.860000", "165343.647500", "165344.437500", "165345.225000", "165346.012500", "165346.800000", "165347.590000", "165348.377500", "165349.165000", "165349.952500", "165350.742500", "165351.530000", "165352.317500", "165353.105000", "165353.895000", "165354.682500", "165355.470000", "165356.257500", "165357.047500", "165357.835000", "165358.622500", "165359.412500", "165400.200000", "165400.987500", "165401.775000", "165402.565000", "165403.352500", "165404.140000", "165404.927500", "165405.717500", "165406.505000", "165407.292500", "165408.080000", "165408.870000", "165409.657500", "165410.445000", "165411.232500", "165412.022500", "165412.810000", "165413.597500", "165414.385000", "165415.175000", "165415.962500", "165416.750000", "165417.540000", "165418.327500", "165419.115000", "165419.902500", "165420.692500", "165421.480000", "165422.267500", "165423.055000", "165423.845000", "165424.632500", "165425.420000", "165426.207500", "165426.997500", "165427.785000", "165428.572500", "165429.360000", "165430.150000", "165430.937500", "165431.725000", "165432.512500", "165433.302500", "165434.090000", "165434.877500", "165435.667500", "165436.455000", "165437.242500", "165438.030000", "165438.820000", "165439.607500", "165440.395000", "165441.182500", "165441.972500", "165442.760000", "165443.547500", "165444.335000", "165445.125000", "165445.912500", "165446.700000", "165447.487500", "165448.277500", "165449.065000", "165449.852500", "165450.640000", "165451.430000", "165452.217500", "165453.005000", "165453.795000", "165454.582500", "165455.370000", "165456.157500", "165456.947500", "165457.735000", "165458.522500", "165459.310000", "165500.100000", "165500.887500", "165501.675000", "165502.462500", "165503.252500", "165504.040000", "165504.827500", "165505.615000", "165506.405000", "165507.192500", "165507.980000", "165508.770000", "165509.557500", "165510.345000", "165511.132500", "165511.922500", "165512.710000", "165513.497500", "165514.285000", "165515.075000", "165515.862500", "165516.650000", "165517.437500", "165518.227500", "165519.015000", "165519.802500", "165520.590000", "165521.380000", "165522.167500", "165522.955000", "165523.742500", "165524.532500", "165525.320000", "165526.107500", "165526.897500", "165527.685000", "165528.472500", "165529.260000", "165530.050000", "165530.837500", "165531.625000", "165532.412500", "165533.202500", "165533.990000", "165534.777500", "165535.565000", "165536.355000", "165537.142500", "165537.930000", "165538.717500", "165539.507500", "165540.295000", "165541.082500", "165541.870000", "165542.660000", "165543.447500", "165544.235000", "165545.025000", "165545.812500", "165546.600000", "165547.387500", "165548.177500", "165548.965000", "165549.752500", "165550.540000", "165551.330000", "165552.117500", "165552.905000", "165553.692500", "165554.482500", "165555.270000", "165556.057500", "165556.845000", "165557.635000", "165558.422500", "165559.210000", "165559.997500", "165600.787500", "165601.575000", "165602.362500", "165603.152500", "165603.940000", "165604.727500", "165605.515000", "165606.305000", "165607.092500", "165607.880000", "165608.667500", "165609.457500", "165610.245000", "165611.032500", "165611.820000", "165612.610000", "165613.397500", "165614.185000", "165614.972500", "165615.762500", "165616.550000", "165617.337500", "165618.125000", "165618.915000", "165619.702500", "165620.490000", "165621.280000", "165622.067500", "165622.855000", "165623.642500", "165624.432500", "165625.220000", "165626.007500", "165626.795000", "165627.585000", "165628.372500", "165629.160000", "165629.947500", "165630.737500", "165631.525000", "165632.312500", "165633.100000", "165633.890000", "165634.677500", "165635.465000", "165636.252500", "165637.042500", "165637.830000", "165638.617500", "165639.407500", "165640.195000", "165640.982500", "165641.770000", "165642.560000", "165643.347500", "165644.135000", "165644.922500", "165645.712500", "165646.500000", "165647.287500", "165648.075000", "165648.865000", "165649.652500", "165650.440000", "165651.227500", "165652.017500", "165652.805000", "165653.592500", "165654.380000", "165655.170000", "165655.957500", "165656.745000", "165657.535000", "165658.322500", "165659.110000", "165659.897500", "165700.687500", "165701.475000", "165702.262500", "165703.050000", "165703.840000", "165704.627500", "165705.415000", "165706.202500", "165706.992500", "165707.780000", "165708.567500", "165709.355000", "165710.145000", "165710.932500", "165711.720000", "165712.507500", "165713.297500", "165714.085000", "165714.872500", "165715.662500", "165716.450000", "165717.237500", "165718.025000", "165718.815000", "165719.602500", "165720.390000", "165721.177500", "165721.967500", "165722.755000", "165723.542500", "165724.330000", "165725.120000", "165725.907500", "165726.695000", "165727.482500", "165728.272500", "165729.060000", "165729.847500", "165730.635000", "165731.425000", "165732.212500", "165733.000000", "165733.790000", "165734.577500", "165735.365000", "165736.152500", "165736.942500", "165737.730000", "165738.517500", "165739.305000", "165740.095000", "165740.882500", "165741.670000", "165742.457500", "165743.247500", "165744.035000", "165744.822500", "165745.610000", "165746.400000", "165747.187500", "165747.975000", "165748.762500", "165749.552500", "165750.340000", "165751.127500", "165751.917500", "165752.705000", "165753.492500", "165754.280000", "165755.070000", "165755.857500", "165756.645000", "165757.432500", "165758.222500", "165759.010000", "165759.797500", "165800.585000", "165801.375000", "165802.162500", "165802.950000", "165803.737500", "165804.527500", "165805.315000", "165806.102500", "165806.890000", "165807.680000", "165808.467500", "165809.255000", "165810.045000", "165810.832500", "165811.620000", "165812.407500", "165813.197500", "165813.985000", "165814.772500", "165815.560000", "165816.350000", "165817.137500", "165817.925000", "165818.712500", "165819.502500", "165820.290000", "165821.077500", "165821.865000", "165822.655000", "165823.442500", "165824.230000", "165825.020000", "165825.807500", "165826.595000", "165827.382500", "165828.172500", "165828.960000", "165829.747500", "165830.535000", "165831.325000", "165832.112500", "165832.900000", "165833.687500", "165834.477500", "165835.265000", "165836.052500", "165836.840000", "165837.630000", "165838.417500", "165839.205000", "165839.992500", "165840.782500", "165841.570000", "165842.357500", "165843.147500", "165843.935000", "165844.722500", "165845.510000", "165846.300000", "165847.087500", "165847.875000", "165848.662500", "165849.452500", "165850.240000", "165851.027500", "165851.815000", "165852.605000", "165853.392500", "165854.180000", "165854.967500", "165855.757500", "165856.545000", "165857.332500", "165858.120000", "165858.910000", "165859.697500", "165900.485000", "165901.275000", "165902.062500", "165902.850000", "165903.637500", "165904.427500", "165905.215000", "165906.002500", "165906.790000", "165907.580000", "165908.367500", "165909.155000", "165909.942500", "165910.732500", "165911.520000", "165912.307500", "165913.095000", "165913.885000", "165914.672500", "165915.460000", "165916.247500", "165917.037500", "165917.825000", "165918.612500", "165919.402500", "165920.190000", "165920.977500", "165921.765000", "165922.555000", "165923.342500", "165924.130000", "165924.917500", "165925.707500", "165926.495000", "165927.282500", "165928.070000", "165928.860000", "165929.647500", "165930.435000", "165931.222500", "165932.012500", "165932.800000", "165933.587500", "165934.375000", "165935.165000", "165935.952500", "165936.740000", "165937.530000", "165938.317500", "165939.105000", "165939.892500", "165940.682500", "165941.470000", "165942.257500", "165943.045000", "165943.835000", "165944.622500", "165945.410000", "165946.197500", "165946.987500", "165947.775000", "165948.562500", "165949.350000", "165950.140000", "165950.927500", "165951.715000", "165952.502500", "165953.292500", "165954.080000", "165954.867500", "165955.657500", "165956.445000", "165957.232500", "165958.020000", "165958.810000", "165959.597500", "170000.385000", "170001.172500", "170001.962500", "170002.750000", "170003.537500", "170004.325000", "170005.115000", "170005.902500", "170006.690000", "170007.477500", "170008.267500", "170009.055000", "170009.842500", "170010.630000", "170011.420000", "170012.207500", "170012.995000", "170013.785000", "170014.572500", "170015.360000", "170016.147500", "170016.937500", "170017.725000", "170018.512500", "170019.300000", "170020.090000", "170020.877500", "170021.665000", "170022.452500", "170023.242500", "170024.030000", "170024.817500", "170025.605000", "170026.395000", "170027.182500", "170027.970000", "170028.757500", "170029.547500", "170030.335000", "170031.122500", "170031.912500", "170032.700000", "170033.487500", "170034.275000", "170035.065000", "170035.852500", "170036.640000", "170037.427500", "170038.217500", "170039.005000", "170039.792500", "170040.580000", "170041.370000", "170042.157500", "170042.945000", "170043.732500", "170044.522500", "170045.310000", "170046.097500", "170046.885000", "170047.675000", "170048.462500", "170049.250000", "170050.040000", "170050.827500", "170051.615000", "170052.402500", "170053.192500", "170053.980000", "170054.767500", "170055.555000", "170056.345000", "170057.132500", "170057.920000", "170058.707500", "170059.497500", "170100.285000", "170101.072500", "170101.860000", "170102.650000", "170103.437500", "170104.225000", "170105.012500", "170105.802500", "170106.590000", "170107.377500", "170108.167500", "170108.955000", "170109.742500", "170110.530000", "170111.320000", "170112.107500", "170112.895000", "170113.682500", "170114.472500", "170115.260000", "170116.047500", "170116.835000"],
      "ContentTime": ["185317.156000", "185317.156000", "185317.156000", "185317.156000", "185317.156000", "185317.171000", "185317.171000", "185417.109000", "185417.125000", "185417.125000", "185417.125000", "185417.125000", "185417.125000", "185417.125000", "185417.125000", "185417.140000", "185417.140000", "185417.140000", "185417.140000", "185417.140000", "185417.140000", "185417.140000", "185417.156000", "185417.156000", "185417.156000", "185417.156000", "185417.156000", "185417.171000", "185417.171000", "185417.171000", "185417.171000", "185417.171000", "185417.187000", "185417.187000", "185417.187000", "185417.187000", "185517.109000", "185517.125000", "185517.125000", "185517.125000", "185517.125000", "185517.125000", "185517.125000", "185517.140000", "185517.140000", "185517.140000", "185517.140000", "185517.140000", "185517.140000", "185517.140000", "185517.156000", "185517.156000", "185517.156000", "185517.156000", "185517.171000", "185517.171000", "185517.171000", "185517.171000", "185517.171000", "185517.171000", "185517.171000", "185517.187000", "185517.187000", "185517.187000", "185617.109000", "185617.125000", "185617.125000", "185617.125000", "185617.125000", "185617.125000", "185617.125000", "185617.125000", "185617.140000", "185617.140000", "185617.140000", "185617.140000", "185617.140000", "185617.140000", "185617.140000", "185617.156000", "185617.156000", "185617.156000", "185617.156000", "185617.156000", "185617.156000", "185617.156000", "185617.171000", "185617.171000", "185617.171000", "185617.171000", "185617.171000", "185617.171000", "185637.109000", "185637.125000", "185637.125000", "185637.125000", "185637.125000", "185637.125000", "185637.125000", "185637.140000", "185637.140000", "185737.109000", "185737.125000", "185737.125000", "185737.125000", "185737.125000", "185737.125000", "185737.140000", "185737.140000", "185737.140000", "185737.140000", "185737.140000", "185737.140000", "185737.140000", "185737.156000", "185737.156000", "185737.156000", "185737.156000", "185737.156000", "185737.156000", "185737.156000", "185737.171000", "185737.171000", "185737.171000", "185737.171000", "185737.171000", "185737.171000", "185737.171000", "185737.187000", "185737.187000", "185837.109000", "185837.125000", "185837.125000", "185837.125000", "185837.125000", "185837.125000", "185837.125000", "185837.125000", "185837.140000", "185837.140000", "185837.140000", "185837.140000", "185837.140000", "185837.140000", "185837.140000", "185837.156000", "185837.156000", "185837.156000", "185837.156000", "185837.156000", "185837.156000", "185837.156000", "185837.171000", "185837.171000", "185837.171000", "185837.171000", "185837.171000", "185837.171000", "185937.109000", "185937.125000", "185937.125000", "185937.125000", "185937.125000", "185937.125000", "185937.125000", "185937.125000", "185937.140000", "185937.140000", "185937.140000", "185937.140000", "185937.140000", "185937.140000", "185937.156000", "185937.156000", "185937.156000", "185937.156000", "185937.156000", "185937.156000", "185937.156000", "185937.171000", "185937.171000", "185937.171000", "185937.171000", "185937.171000", "185937.187000", "185937.187000", "190037.109000", "190037.125000", "190037.125000", "190037.125000", "190037.125000", "190037.125000", "190037.125000", "190037.140000", "190037.140000", "190037.140000", "190037.140000", "190037.140000", "190037.140000", "190037.140000", "190037.156000", "190037.156000", "190037.156000", "190037.156000", "190037.156000", "190037.156000", "190037.156000", "190037.171000", "190037.171000", "190037.171000", "190037.171000", "190037.171000", "190037.171000", "190037.171000", "190037.187000", "190137.109000", "190137.125000", "190137.125000", "190137.125000", "190137.125000", "190137.140000", "190137.140000", "190137.140000", "190137.140000", "190137.140000", "190137.140000", "190137.156000", "190137.156000", "190137.156000", "190137.156000", "190137.156000", "190137.156000", "190137.156000", "190137.171000", "190137.171000", "190137.171000", "190137.171000", "190137.171000", "190137.171000", "190137.187000", "190137.187000", "190137.187000", "190137.187000", "190237.109000", "190237.125000", "190237.125000", "190237.125000", "190237.125000", "190237.125000", "190237.125000", "190237.140000", "190237.140000", "190237.140000", "190237.140000", "190237.140000", "190237.140000", "190237.140000", "190237.156000", "190237.156000", "190237.156000", "190237.156000", "190237.156000", "190237.156000", "190237.156000", "190237.156000", "190237.171000", "190237.171000", "190237.171000", "190237.171000", "190237.171000", "190237.187000", "190337.109000", "190337.125000", "190337.125000", "190337.125000", "190337.125000", "190337.125000", "190337.125000", "190337.140000", "190337.140000", "190337.140000", "190337.140000", "190337.140000", "190337.140000", "190337.140000", "190337.156000", "190337.156000", "190337.156000", "190337.156000", "190337.156000", "190337.156000", "190337.156000", "190337.171000", "190337.171000", "190337.171000", "190337.171000", "190337.171000", "190337.171000", "190337.171000", "190437.109000", "190437.125000", "190437.125000", "190437.125000", "190437.125000", "190437.125000", "190437.125000", "190437.140000", "190437.140000", "190437.140000", "190437.140000", "190437.140000", "190437.140000", "190437.140000", "190437.156000", "190437.156000", "190437.156000", "190437.156000", "190437.156000", "190437.156000", "190437.156000", "190437.171000", "190437.171000", "190437.171000", "190437.171000", "190437.171000", "190437.171000", "190437.171000", "190537.109000", "190537.125000", "190537.125000", "190537.125000", "190537.125000", "190537.125000", "190537.125000", "190537.125000", "190537.140000", "190537.140000", "190537.140000", "190537.140000", "190537.140000", "190537.140000", "190537.156000", "190537.156000", "190537.156000", "190537.156000", "190537.156000", "190537.156000", "190537.156000", "190537.171000", "190537.171000", "190537.171000", "190537.171000", "190537.171000", "190537.171000", "190537.187000", "190537.187000", "190637.109000", "190637.125000", "190637.125000", "190637.125000", "190637.125000", "190637.125000", "190637.125000", "190637.140000", "190637.140000", "190637.140000", "190637.140000", "190637.140000", "190637.140000", "190637.140000", "190637.156000", "190637.156000", "190637.156000", "190637.156000", "190637.156000", "190637.156000", "190637.156000", "190637.171000", "190637.171000", "190637.171000", "190637.171000", "190637.171000", "190637.171000", "190637.171000", "190737.109000", "190737.125000", "190737.125000", "190737.125000", "190737.125000", "190737.125000", "190737.125000", "190737.125000", "190737.140000", "190737.140000", "190737.140000", "190737.140000", "190737.140000", "190737.140000", "190737.156000", "190737.156000", "190737.156000", "190737.156000", "190737.156000", "190737.156000", "190737.156000", "190737.171000", "190737.171000", "190737.171000", "190737.171000", "190737.171000", "190737.171000", "190737.187000", "190837.109000", "190837.125000", "190837.125000", "190837.125000", "190837.125000", "190837.125000", "190837.125000", "190837.140000", "190837.140000", "190837.140000", "190837.140000", "190837.140000", "190837.140000", "190837.140000", "190837.140000", "190837.156000", "190837.156000", "190837.156000", "190837.156000", "190837.156000", "190837.156000", "190837.156000", "190837.171000", "190837.171000", "190837.171000", "190837.171000", "190837.171000", "190837.171000", "190937.109000", "190937.125000", "190937.125000", "190937.125000", "190937.125000", "190937.125000", "190937.125000", "190937.140000", "190937.140000", "190937.140000", "190937.140000", "190937.140000", "190937.140000", "190937.140000", "190937.156000", "190937.156000", "190937.156000", "190937.156000", "190937.156000", "190937.156000", "190937.171000", "190937.171000", "190937.171000", "190937.171000", "190937.171000", "190937.187000", "190937.187000", "190937.187000", "191037.109000", "191037.125000", "191037.125000", "191037.125000", "191037.125000", "191037.125000", "191037.125000", "191037.125000", "191037.140000", "191037.140000", "191037.140000", "191037.140000", "191037.140000", "191037.140000", "191037.140000", "191037.156000", "191037.156000", "191037.156000", "191037.156000", "191037.156000", "191037.156000", "191037.171000", "191037.171000", "191037.171000", "191037.171000", "191037.171000", "191037.171000", "191037.171000", "191037.187000", "191137.109000", "191137.125000", "191137.125000", "191137.125000", "191137.125000", "191137.125000", "191137.125000", "191137.140000", "191137.140000", "191137.140000", "191137.140000", "191137.140000", "191137.140000", "191137.140000", "191137.140000", "191137.156000", "191137.156000", "191137.156000", "191137.156000", "191137.156000", "191137.156000", "191137.171000", "191137.171000", "191137.171000", "191137.171000", "191137.171000", "191137.171000", "191137.171000", "191237.109000", "191237.125000", "191237.125000", "191237.125000", "191237.125000", "191237.125000", "191237.125000", "191237.125000", "191237.140000", "191237.140000", "191237.140000", "191237.140000", "191237.140000", "191237.140000", "191237.156000", "191237.156000", "191237.156000", "191237.156000", "191237.156000", "191237.156000", "191237.156000", "191237.171000", "191237.171000", "191237.171000", "191237.171000", "191237.171000", "191237.171000", "191237.171000", "191334.656000", "191334.656000", "191334.656000", "191334.671000", "191334.671000", "191334.671000", "191334.671000", "191334.671000", "191334.671000", "191334.671000", "191334.687000", "191334.687000", "191334.687000", "191334.687000", "191334.687000", "191334.687000", "191334.687000", "191334.703000", "191334.703000", "191334.703000", "191334.703000", "191334.703000", "191334.703000", "191334.718000", "191334.718000", "191334.718000", "191334.718000", "191334.718000"],
