{
  "AcquisitionMatrixPE": 104,
  "AcquisitionNumber": 1,
  "AcquisitionTime": "15:56:34.337500",
  "BandwidthPerPixelPhaseEncode": 13.935,
  "BaseResolution": 104,
  "CoilString": "C:HEA;HEP",
  "ConversionSoftware": "dcm2niix",
  "ConversionSoftwareVersion": "v1.0.20210317",
  "DerivedVendorReportedEchoSpacing": 0.000690017,
  "DeviceSerialNumber": "35450",
  "DwellTime": 2.5e-06,
  "EchoTime": 0.0348,
  "EffectiveEchoSpacing": 0.000690017,
  "FlipAngle": 55,
  "ImageComments": "Unaliased MB8/PE3",
  "ImageOrientationPatientDICOM": [0.999781, 0.000292439, 0.0209404, -3.70528e-08, 0.999903, -0.0139622],
  "ImageType": [
    "ORIGINAL",
    "PRIMARY",
    "M",
    "MB",
    "ND",
    "MOSAIC"
],
  "ImagingFrequency": 123.235,
  "InPlanePhaseEncodingDirectionDICOM": "COL",
  "InstitutionAddress": "Univeristy Ave. 197,Newark,North East,US,07102-1814",
  "InstitutionName": "RUBIC",
  "InstitutionalDepartmentName": "Department",
  "MRAcquisitionType": "2D",
  "MagneticFieldStrength": 3,
  "Manufacturer": "Siemens",
  "ManufacturersModelName": "TrioTim",
  "Modality": "MR",
  "MultibandAccelerationFactor": 8,
  "PartialFourier": 0.875,
  "PatientPosition": "HFS",
  "PercentPhaseFOV": 100,
  "PercentSampling": 100,
  "PhaseEncodingDirection": "j-",
  "PhaseEncodingSteps": 91,
  "PhaseResolution": 1,
  "PixelBandwidth": 1923,
  "ProcedureStepDescription": "Cole^Michael",
  "ProtocolName": "cmrr_mbep2d_bold_2mm_MB8_Task_8x",
  "PulseSequenceDetails": "%CustomerSeq%\\cmrr_mbep2d_bold",
  "ReceiveCoilName": "32Ch_Head",
  "ReconMatrixPE": 104,
  "RepetitionTime": 0.785,
  "SAR": 0.176164,
  "ScanOptions": "PFP\\FS",
  "ScanningSequence": "EP",
  "SequenceName": "epfid2d1_104",
  "SequenceVariant": "SK\\SS",
  "SeriesDescription": "cmrr_mbep2d_bold_2mm_MB8_Task_8x",
  "SeriesNumber": 15,
  "ShimSetting": [2127, -486, -7263, 574, -91, -221, 179, -132],
  "SliceThickness": 2,
  "SliceTiming": [0, 0.4375, 0.0875, 0.525, 0.175, 0.6125, 0.2625, 0.7, 0.35, 0, 0.4375, 0.0875, 0.525, 0.175, 0.6125, 0.2625, 0.7, 0.35, 0, 0.4375, 0.0875, 0.525, 0.175, 0.6125, 0.2625, 0.7, 0.35, 0, 0.4375, 0.0875, 0.525, 0.175, 0.6125, 0.2625, 0.7, 0.35, 0, 0.4375, 0.0875, 0.525, 0.175, 0.6125, 0.2625, 0.7, 0.35, 0, 0.4375, 0.0875, 0.525, 0.175, 0.6125, 0.2625, 0.7, 0.35, 0, 0.4375, 0.0875, 0.525, 0.175, 0.6125, 0.2625, 0.7, 0.35, 0, 0.4375, 0.0875, 0.525, 0.175, 0.6125, 0.2625, 0.7, 0.35],
  "SoftwareVersions": "syngo MR B19",
  "SpacingBetweenSlices": 2,
  "StationName": "MRC35450",
  "TaskName": "cpro",
  "TotalReadoutTime": 0.0710717,
  "TxRefAmp": 385.324,
  "dcmmeta_affine": [
    [-1.9995613098144531, -7.410552171904783e-08, 0.04188484326004982, 102.49028015136719],
    [-0.0005848778528161347, 1.9998050928115845, -0.027918236330151558, -88.16078186035156],
    [0.04188075661659241, 0.02792436257004738, 1.9993665218353271, -86.21315002441406],
    [0.0, 0.0, 0.0, 1.0]
],
  "dcmmeta_reorient_transform": [
    [0.0, -1.0, 0.0, 103.0],
    [1.0, 0.0, 0.0, 0.0],
    [0.0, 0.0, 1.0, 0.0],
    [0.0, 0.0, 0.0, 1.0]
],
  "dcmmeta_shape": [104, 104, 72, 581],
  "dcmmeta_slice_dim": 2,
  "dcmmeta_version": 0.6,
  "global": {
    "const": {
      "AcquisitionMatrix": [104, 0, 0, 104],
      "AngioFlag": "N",
      "BitsAllocated": 16,
      "BitsStored": 12,
      "Columns": 936,
      "EchoNumbers": 1,
      "EchoTime": 34.8,
      "EchoTrainLength": 1,
      "FlipAngle": 55.0,
      "HighBit": 11,
      "ImageOrientationPatient": [0.99978068345824, 0.00029243891402, 0.02094037877551, -3.705276e-08, 0.99990252399678, -0.013962181236],
      "ImagePositionPatient": [-934.30777326185, -949.98134869546, -89.142798951707],
      "ImageType": [
        "ORIGINAL",
        "PRIMARY",
        "M",
        "MB",
        "ND",
        "MOSAIC"
],
      "ImagedNucleus": "1H",
      "ImagingFrequency": 123.234584,
      "InPlanePhaseEncodingDirection": "COL",
      "MRAcquisitionType": "2D",
      "MagneticFieldStrength": 3.0,
      "Manufacturer": "SIEMENS",
      "ManufacturerModelName": "TrioTim",
      "Modality": "MR",
      "NumberOfAverages": 1.0,
      "NumberOfPhaseEncodingSteps": 91,
      "PercentPhaseFieldOfView": 100.0,
      "PercentSampling": 100.0,
      "PerformedProcedureStepStartTime": "144633.343000",
      "PhotometricInterpretation": "MONOCHROME2",
      "PixelBandwidth": 1923.0,
      "PixelRepresentation": 0,
      "PixelSpacing": [2.0, 2.0],
      "ProtocolName": "cmrr_mbep2d_bold_2mm_MB8_Task_8x",
      "RepetitionTime": 785.0,
      "Rows": 936,
      "SAR": 0.17616391627054,
      "SamplesPerPixel": 1,
      "ScanOptions": [
        "PFP",
        "FS"
],
      "ScanningSequence": "EP",
      "SequenceName": "epfid2d1_104",
      "SequenceVariant": [
        "SK",
        "SS"
],
      "SeriesDescription": "cmrr_mbep2d_bold_2mm_MB8_Task_8x",
      "SeriesNumber": 15,
      "SeriesTime": "162617.125000",
      "SliceLocation": -82.808796706389,
      "SliceThickness": 2.0,
      "SmallestImagePixelValue": 0,
      "SoftwareVersions": "syngo MR B19",
      "SpacingBetweenSlices": 2.0000000336909,
      "SpecificCharacterSet": "ISO_IR 100",
      "StudyID": "1",
      "StudyTime": "144633.296000",
      "TransmitCoilName": "Body",
      "VariableFlipAngleFlag": "N",
      "WindowCenterWidthExplanation": "Algo1",
      "dBdt": 0.0},
    "slices": {}
  },
  "time": {
    "samples": {
      "AcquisitionNumber": [1, 2, 3, 4, 5, 6, 7, 8, 9, 10, 11, 12, 13, 14, 15, 16, 17, 18, 19, 20, 21, 22, 23, 24, 25, 26, 27, 28, 29, 30, 31, 32, 33, 34, 35, 36, 37, 38, 39, 40, 41, 42, 43, 44, 45, 46, 47, 48, 49, 50, 51, 52, 53, 54, 55, 56, 57, 58, 59, 60, 61, 62, 63, 64, 65, 66, 67, 68, 69, 70, 71, 72, 73, 74, 75, 76, 77, 78, 79, 80, 81, 82, 83, 84, 85, 86, 87, 88, 89, 90, 91, 92, 93, 94, 95, 96, 97, 98, 99, 100, 101, 102, 103, 104, 105, 106, 107, 108, 109, 110, 111, 112, 113, 114, 115, 116, 117, 118, 119, 120, 121, 122, 123, 124, 125, 126, 127, 128, 129, 130, 131, 132, 133, 134, 135, 136, 137, 138, 139, 140, 141, 142, 143, 144, 145, 146, 147, 148, 149, 150, 151, 152, 153, 154, 155, 156, 157, 158, 159, 160, 161, 162, 163, 164, 165, 166, 167, 168, 169, 170, 171, 172, 173, 174, 175, 176, 177, 178, 179, 180, 181, 182, 183, 184, 185, 186, 187, 188, 189, 190, 191, 192, 193, 194, 195, 196, 197, 198, 199, 200, 201, 202, 203, 204, 205, 206, 207, 208, 209, 210, 211, 212, 213, 214, 215, 216, 217, 218, 219, 220, 221, 222, 223, 224, 225, 226, 227, 228, 229, 230, 231, 232, 233, 234, 235, 236, 237, 238, 239, 240, 241, 242, 243, 244, 245, 246, 247, 248, 249, 250, 251, 252, 253, 254, 255, 256, 257, 258, 259, 260, 261, 262, 263, 264, 265, 266, 267, 268, 269, 270, 271, 272, 273, 274, 275, 276, 277, 278, 279, 280, 281, 282, 283, 284, 285, 286, 287, 288, 289, 290, 291, 292, 293, 294, 295, 296, 297, 298, 299, 300, 301, 302, 303, 304, 305, 306, 307, 308, 309, 310, 311, 312, 313, 314, 315, 316, 317, 318, 319, 320, 321, 322, 323, 324, 325, 326, 327, 328, 329, 330, 331, 332, 333, 334, 335, 336, 337, 338, 339, 340, 341, 342, 343, 344, 345, 346, 347, 348, 349, 350, 351, 352, 353, 354, 355, 356, 357, 358, 359, 360, 361, 362, 363, 364, 365, 366, 367, 368, 369, 370, 371, 372, 373, 374, 375, 376, 377, 378, 379, 380, 381, 382, 383, 384, 385, 386, 387, 388, 389, 390, 391, 392, 393, 394, 395, 396, 397, 398, 399, 400, 401, 402, 403, 404, 405, 406, 407, 408, 409, 410, 411, 412, 413, 414, 415, 416, 417, 418, 419, 420, 421, 422, 423, 424, 425, 426, 427, 428, 429, 430, 431, 432, 433, 434, 435, 436, 437, 438, 439, 440, 441, 442, 443, 444, 445, 446, 447, 448, 449, 450, 451, 452, 453, 454, 455, 456, 457, 458, 459, 460, 461, 462, 463, 464, 465, 466, 467, 468, 469, 470, 471, 472, 473, 474, 475, 476, 477, 478, 479, 480, 481, 482, 483, 484, 485, 486, 487, 488, 489, 490, 491, 492, 493, 494, 495, 496, 497, 498, 499, 500, 501, 502, 503, 504, 505, 506, 507, 508, 509, 510, 511, 512, 513, 514, 515, 516, 517, 518, 519, 520, 521, 522, 523, 524, 525, 526, 527, 528, 529, 530, 531, 532, 533, 534, 535, 536, 537, 538, 539, 540, 541, 542, 543, 544, 545, 546, 547, 548, 549, 550, 551, 552, 553, 554, 555, 556, 557, 558, 559, 560, 561, 562, 563, 564, 565, 566, 567, 568, 569, 570, 571, 572, 573, 574, 575, 576, 577, 578, 579, 580, 581],
      "AcquisitionTime": ["155634.337500", "155635.125000", "155635.912500", "155636.700000", "155637.490000", "155638.277500", "155639.065000", "155639.852500", "155640.642500", "155641.430000", "155642.217500", "155643.007500", "155643.795000", "155644.582500", "155645.370000", "155646.160000", "155646.947500", "155647.735000", "155648.522500", "155649.312500", "155650.100000", "155650.887500", "155651.675000", "155652.465000", "155653.252500", "155654.040000", "155654.827500", "155655.617500", "155656.405000", "155657.192500", "155657.980000", "155658.770000", "155659.557500", "155700.345000", "155701.135000", "155701.922500", "155702.710000", "155703.497500", "155704.287500", "155705.075000", "155705.862500", "155706.650000", "155707.440000", "155708.227500", "155709.015000", "155709.802500", "155710.592500", "155711.380000", "155712.167500", "155712.955000", "155713.745000", "155714.532500", "155715.320000", "155716.107500", "155716.897500", "155717.685000", "155718.472500", "155719.262500", "155720.050000", "155720.837500", "155721.625000", "155722.415000", "155723.202500", "155723.990000", "155724.777500", "155725.567500", "155726.355000", "155727.142500", "155727.930000", "155728.720000", "155729.507500", "155730.295000", "155731.082500", "155731.872500", "155732.660000", "155733.447500", "155734.235000", "155735.025000", "155735.812500", "155736.600000", "155737.390000", "155738.177500", "155738.965000", "155739.752500", "155740.542500", "155741.330000", "155742.117500", "155742.905000", "155743.695000", "155744.482500", "155745.270000", "155746.057500", "155746.847500", "155747.635000", "155748.422500", "155749.210000", "155750.000000", "155750.787500", "155751.575000", "155752.362500", "155753.152500", "155753.940000", "155754.727500", "155755.517500", "155756.305000", "155757.092500", "155757.880000", "155758.670000", "155759.457500", "155800.245000", "155801.032500", "155801.822500", "155802.610000", "155803.397500", "155804.185000", "155804.975000", "155805.762500", "155806.550000", "155807.337500", "155808.127500", "155808.915000", "155809.702500", "155810.490000", "155811.280000", "155812.067500", "155812.855000", "155813.645000", "155814.432500", "155815.220000", "155816.007500", "155816.797500", "155817.585000", "155818.372500", "155819.160000", "155819.950000", "155820.737500", "155821.525000", "155822.312500", "155823.102500", "155823.890000", "155824.677500", "155825.465000", "155826.255000", "155827.042500", "155827.830000", "155828.620000", "155829.407500", "155830.195000", "155830.982500", "155831.772500", "155832.560000", "155833.347500", "155834.135000", "155834.925000", "155835.712500", "155836.500000", "155837.287500", "155838.077500", "155838.865000", "155839.652500", "155840.440000", "155841.230000", "155842.017500", "155842.805000", "155843.592500", "155844.382500", "155845.170000", "155845.957500", "155846.747500", "155847.535000", "155848.322500", "155849.110000", "155849.900000", "155850.687500", "155851.475000", "155852.262500", "155853.052500", "155853.840000", "155854.627500", "155855.415000", "155856.205000", "155856.992500", "155857.780000", "155858.567500", "155859.357500", "155900.145000", "155900.932500", "155901.720000", "155902.510000", "155903.297500", "155904.085000", "155904.875000", "155905.662500", "155906.450000", "155907.237500", "155908.027500", "155908.815000", "155909.602500", "155910.390000", "155911.180000", "155911.967500", "155912.755000", "155913.542500", "155914.332500", "155915.120000", "155915.907500", "155916.695000", "155917.485000", "155918.272500", "155919.060000", "155919.847500", "155920.637500", "155921.425000", "155922.212500", "155923.002500", "155923.790000", "155924.577500", "155925.365000", "155926.155000", "155926.942500", "155927.730000", "155928.517500", "155929.307500", "155930.095000", "155930.882500", "155931.670000", "155932.460000", "155933.247500", "155934.035000", "155934.822500", "155935.612500", "155936.400000", "155937.187500", "155937.975000", "155938.765000", "155939.552500", "155940.340000", "155941.130000", "155941.917500", "155942.705000", "155943.492500", "155944.282500", "155945.070000", "155945.857500", "155946.645000", "155947.435000", "155948.222500", "155949.010000", "155949.797500", "155950.587500", "155951.375000", "155952.162500", "155952.950000", "155953.740000", "155954.527500", "155955.315000", "155956.102500", "155956.892500", "155957.680000", "155958.467500", "155959.257500", "160000.045000", "160000.832500", "160001.620000", "160002.410000", "160003.197500", "160003.985000", "160004.772500", "160005.562500", "160006.350000", "160007.137500", "160007.925000", "160008.715000", "160009.502500", "160010.290000", "160011.077500", "160011.867500", "160012.655000", "160013.442500", "160014.230000", "160015.020000", "160015.807500", "160016.595000", "160017.385000", "160018.172500", "160018.960000", "160019.747500", "160020.537500", "160021.325000", "160022.112500", "160022.900000", "160023.690000", "160024.477500", "160025.265000", "160026.052500", "160026.842500", "160027.630000", "160028.417500", "160029.205000", "160029.995000", "160030.782500", "160031.570000", "160032.357500", "160033.147500", "160033.935000", "160034.722500", "160035.512500", "160036.300000", "160037.087500", "160037.875000", "160038.665000", "160039.452500", "160040.240000", "160041.027500", "160041.817500", "160042.605000", "160043.392500", "160044.180000", "160044.970000", "160045.757500", "160046.545000", "160047.332500", "160048.122500", "160048.910000", "160049.697500", "160050.485000", "160051.275000", "160052.062500", "160052.850000", "160053.640000", "160054.427500", "160055.215000", "160056.002500", "160056.792500", "160057.580000", "160058.367500", "160059.155000", "160059.945000", "160100.732500", "160101.520000", "160102.307500", "160103.097500", "160103.885000", "160104.672500", "160105.460000", "160106.250000", "160107.037500", "160107.825000", "160108.612500", "160109.402500", "160110.190000", "160110.977500", "160111.767500", "160112.555000", "160113.342500", "160114.130000", "160114.920000", "160115.707500", "160116.495000", "160117.282500", "160118.072500", "160118.860000", "160119.647500", "160120.435000", "160121.225000", "160122.012500", "160122.800000", "160123.587500", "160124.377500", "160125.165000", "160125.952500", "160126.740000", "160127.530000", "160128.317500", "160129.105000", "160129.895000", "160130.682500", "160131.470000", "160132.257500", "160133.047500", "160133.835000", "160134.622500", "160135.410000", "160136.200000", "160136.987500", "160137.775000", "160138.562500", "160139.352500", "160140.140000", "160140.927500", "160141.715000", "160142.505000", "160143.292500", "160144.080000", "160144.870000", "160145.657500", "160146.445000", "160147.232500", "160148.022500", "160148.810000", "160149.597500", "160150.385000", "160151.175000", "160151.962500", "160152.750000", "160153.537500", "160154.327500", "160155.115000", "160155.902500", "160156.690000", "160157.480000", "160158.267500", "160159.055000", "160159.842500", "160200.632500", "160201.420000", "160202.207500", "160202.997500", "160203.785000", "160204.572500", "160205.360000", "160206.150000", "160206.937500", "160207.725000", "160208.512500", "160209.302500", "160210.090000", "160210.877500", "160211.665000", "160212.455000", "160213.242500", "160214.030000", "160214.817500", "160215.607500", "160216.395000", "160217.182500", "160217.970000", "160218.760000", "160219.547500", "160220.335000", "160221.125000", "160221.912500", "160222.700000", "160223.487500", "160224.277500", "160225.065000", "160225.852500", "160226.640000", "160227.430000", "160228.217500", "160229.005000", "160229.792500", "160230.582500", "160231.370000", "160232.157500", "160232.945000", "160233.735000", "160234.522500", "160235.310000", "160236.097500", "160236.887500", "160237.675000", "160238.462500", "160239.252500", "160240.040000", "160240.827500", "160241.615000", "160242.405000", "160243.192500", "160243.980000", "160244.767500", "160245.557500", "160246.345000", "160247.132500", "160247.920000", "160248.710000", "160249.497500", "160250.285000", "160251.072500", "160251.862500", "160252.650000", "160253.437500", "160254.225000", "160255.015000", "160255.802500", "160256.590000", "160257.380000", "160258.167500", "160258.955000", "160259.742500", "160300.532500", "160301.320000", "160302.107500", "160302.895000", "160303.685000", "160304.472500", "160305.260000", "160306.047500", "160306.837500", "160307.625000", "160308.412500", "160309.200000", "160309.990000", "160310.777500", "160311.565000", "160312.352500", "160313.142500", "160313.930000", "160314.717500", "160315.507500", "160316.295000", "160317.082500", "160317.870000", "160318.660000", "160319.447500", "160320.235000", "160321.022500", "160321.812500", "160322.600000", "160323.387500", "160324.175000", "160324.965000", "160325.752500", "160326.540000", "160327.327500", "160328.117500", "160328.905000", "160329.692500", "160330.480000", "160331.270000", "160332.057500", "160332.845000", "160333.635000", "160334.422500", "160335.210000", "160335.997500", "160336.787500", "160337.575000", "160338.362500", "160339.150000", "160339.940000", "160340.727500", "160341.515000", "160342.302500", "160343.092500", "160343.880000", "160344.667500", "160345.455000", "160346.245000", "160347.032500", "160347.820000", "160348.607500", "160349.397500", "160350.185000", "160350.972500", "160351.762500", "160352.550000", "160353.337500", "160354.125000", "160354.915000", "160355.702500", "160356.490000", "160357.277500", "160358.067500", "160358.855000", "160359.642500", "160400.430000", "160401.220000", "160402.007500", "160402.795000", "160403.582500", "160404.372500", "160405.160000", "160405.947500", "160406.735000", "160407.525000", "160408.312500", "160409.100000", "160409.890000", "160410.677500", "160411.465000"],
      "ContentTime": ["162617.125000", "162617.125000", "162617.140000", "162617.140000", "162617.140000", "162617.140000", "162637.109000", "162637.109000", "162637.109000", "162637.109000", "162637.125000", "162637.125000", "162637.125000", "162637.125000", "162637.140000", "162737.109000", "162737.109000", "162737.109000", "162737.109000", "162737.125000", "162737.125000", "162737.125000", "162737.125000", "162737.125000", "162737.125000", "162737.125000", "162737.140000", "162737.140000", "162737.140000", "162737.140000", "162737.140000", "162737.140000", "162737.140000", "162737.156000", "162737.156000", "162737.156000", "162737.156000", "162737.156000", "162737.156000", "162737.156000", "162737.171000", "162737.171000", "162737.171000", "162837.109000", "162837.109000", "162837.109000", "162837.109000", "162837.125000", "162837.125000", "162837.125000", "162837.125000", "162837.125000", "162837.125000", "162837.125000", "162837.140000", "162837.140000", "162837.156000", "162837.156000", "162837.156000", "162837.156000", "162837.156000", "162837.156000", "162837.156000", "162837.171000", "162837.171000", "162837.171000", "162837.171000", "162837.171000", "162837.171000", "162837.171000", "162937.109000", "162937.109000", "162937.109000", "162937.109000", "162937.109000", "162937.125000", "162937.125000", "162937.125000", "162937.125000", "162937.125000", "162937.125000", "162937.125000", "162937.140000", "162937.140000", "162937.140000", "162937.140000", "162937.140000", "162937.140000", "162937.140000", "162937.156000", "162937.156000", "162937.156000", "162937.156000", "162937.171000", "162937.171000", "162937.171000", "162937.171000", "162937.171000", "163037.109000", "163037.109000", "163037.109000", "163037.109000", "163037.125000", "163037.125000", "163037.125000", "163037.125000", "163037.125000", "163037.125000", "163037.125000", "163037.140000", "163037.140000", "163037.140000", "163037.140000", "163037.140000", "163037.140000", "163037.140000", "163037.156000", "163037.156000", "163037.156000", "163037.156000", "163037.156000", "163037.156000", "163037.156000", "163037.171000", "163037.171000", "163037.171000", "163137.109000", "163137.109000", "163137.109000", "163137.109000", "163137.125000", "163137.125000", "163137.125000", "163137.125000", "163137.125000", "163137.125000", "163137.125000", "163137.140000", "163137.140000", "163137.140000", "163137.140000", "163137.140000", "163137.140000", "163137.140000", "163137.156000", "163137.156000", "163137.156000", "163137.156000", "163137.156000", "163137.156000", "163137.156000", "163137.171000", "163137.171000", "163237.109000", "163237.109000", "163237.109000", "163237.109000", "163237.125000", "163237.125000", "163237.125000", "163237.125000", "163237.125000", "163237.125000", "163237.125000", "163237.140000", "163237.140000", "163237.140000", "163237.140000", "163237.140000", "163237.140000", "163237.140000", "163237.156000", "163237.156000", "163237.156000", "163237.156000", "163237.156000", "163237.156000", "163237.156000", "163237.171000", "163237.171000", "163337.109000", "163337.109000", "163337.109000", "163337.109000", "163337.125000", "163337.125000", "163337.125000", "163337.125000", "163337.125000", "163337.125000", "163337.125000", "163337.140000", "163337.140000", "163337.140000", "163337.140000", "163337.140000", "163337.140000", "163337.140000", "163337.156000", "163337.156000", "163337.156000", "163337.156000", "163337.156000", "163337.156000", "163337.171000", "163337.171000", "163337.171000", "163337.171000", "163437.109000", "163437.109000", "163437.109000", "163437.109000", "163437.125000", "163437.125000", "163437.125000", "163437.125000", "163437.125000", "163437.125000", "163437.125000", "163437.125000", "163437.140000", "163437.140000", "163437.140000", "163437.140000", "163437.140000", "163437.140000", "163437.156000", "163437.156000", "163437.156000", "163437.156000", "163437.156000", "163437.156000", "163437.156000", "163437.156000", "163437.171000", "163537.109000", "163537.109000", "163537.109000", "163537.109000", "163537.125000", "163537.125000", "163537.125000", "163537.125000", "163537.125000", "163537.125000", "163537.125000", "163537.140000", "163537.140000", "163537.140000", "163537.140000", "163537.140000", "163537.140000", "163537.140000", "163537.156000", "163537.156000", "163537.156000", "163537.156000", "163537.156000", "163537.156000", "163537.171000", "163537.171000", "163537.171000", "163537.171000", "163637.109000", "163637.109000", "163637.109000", "163637.109000", "163637.125000", "163637.125000", "163637.125000", "163637.125000", "163637.125000", "163637.125000", "163637.125000", "163637.140000", "163637.140000", "163637.140000", "163637.140000", "163637.140000", "163637.140000", "163637.140000", "163637.156000", "163637.156000", "163637.156000", "163637.156000", "163637.156000", "163637.156000", "163637.156000", "163637.171000", "163637.171000", "163737.109000", "163737.109000", "163737.109000", "163737.125000", "163737.125000", "163737.125000", "163737.125000", "163737.125000", "163737.125000", "163737.125000", "163737.140000", "163737.140000", "163737.140000", "163737.140000", "163737.140000", "163737.140000", "163737.156000", "163737.156000", "163737.156000", "163737.156000", "163737.171000", "163737.171000", "163737.171000", "163737.171000", "163737.171000", "163737.171000", "163737.171000", "163737.187000", "163837.109000", "163837.109000", "163837.109000", "163837.125000", "163837.125000", "163837.125000", "163837.125000", "163837.125000", "163837.140000", "163837.140000", "163837.140000", "163837.140000", "163837.140000", "163837.140000", "163837.140000", "163837.156000", "163837.156000", "163837.156000", "163837.156000", "163837.156000", "163837.156000", "163837.156000", "163837.171000", "163837.171000", "163837.171000", "163837.171000", "163837.171000", "163937.109000", "163937.109000", "163937.109000", "163937.125000", "163937.125000", "163937.125000", "163937.125000", "163937.125000", "163937.125000", "163937.140000", "163937.140000", "163937.140000", "163937.140000", "163937.140000", "163937.140000", "163937.140000", "163937.156000", "163937.156000", "163937.156000", "163937.156000", "163937.156000", "163937.156000", "163937.156000", "163937.156000", "163937.171000", "163937.171000", "163937.171000", "163937.171000", "164037.109000", "164037.109000", "164037.125000", "164037.125000", "164037.125000", "164037.125000", "164037.125000", "164037.125000", "164037.125000", "164037.140000", "164037.140000", "164037.140000", "164037.140000", "164037.140000", "164037.140000", "164037.140000", "164037.140000", "164037.156000", "164037.156000", "164037.156000", "164037.156000", "164037.156000", "164037.156000", "164037.171000", "164037.171000", "164037.171000", "164037.171000", "164137.109000", "164137.140000", "164137.140000", "164137.140000", "164137.140000", "164137.140000", "164137.156000", "164137.156000", "164137.156000", "164137.156000", "164137.156000", "164137.156000", "164137.156000", "164137.171000", "164137.171000", "164137.171000", "164137.171000", "164137.171000", "164137.171000", "164137.171000", "164137.187000", "164137.187000", "164137.187000", "164137.187000", "164137.187000", "164137.187000", "164137.187000", "164237.109000", "164237.109000", "164237.109000", "164237.125000", "164237.125000", "164237.125000", "164237.125000", "164237.125000", "164237.125000", "164237.125000", "164237.140000", "164237.140000", "164237.140000", "164237.140000", "164237.140000", "164237.140000", "164237.156000", "164237.156000", "164237.156000", "164237.156000", "164237.156000", "164237.171000", "164237.171000", "164237.171000", "164237.171000", "164237.171000", "164237.171000", "164237.171000", "164337.109000", "164337.109000", "164337.109000", "164337.125000", "164337.125000", "164337.125000", "164337.125000", "164337.125000", "164337.125000", "164337.125000", "164337.140000", "164337.140000", "164337.140000", "164337.140000", "164337.140000", "164337.140000", "164337.140000", "164337.156000", "164337.156000", "164337.156000", "164337.156000", "164337.156000", "164337.156000", "164337.171000", "164337.171000", "164337.171000", "164337.171000", "164437.109000", "164437.109000", "164437.109000", "164437.125000", "164437.125000", "164437.125000", "164437.125000", "164437.125000", "164437.125000", "164437.125000", "164437.140000", "164437.140000", "164437.140000", "164437.140000", "164437.140000", "164437.140000", "164437.140000", "164437.156000", "164437.156000", "164437.156000", "164437.156000", "164437.156000", "164437.156000", "164437.171000", "164437.171000", "164437.171000", "164437.171000", "164437.171000", "164537.125000", "164537.125000", "164537.125000", "164537.125000", "164537.125000", "164537.125000", "164537.125000", "164537.140000", "164537.140000", "164537.140000", "164537.140000", "164537.140000", "164537.140000", "164537.140000", "164537.156000", "164537.156000", "164537.156000", "164537.156000", "164537.156000", "164537.156000", "164537.156000", "164537.171000", "164537.171000", "164537.171000", "164537.171000", "164537.171000", "164537.171000", "164537.171000", "164637.125000", "164637.125000", "164637.125000", "164637.125000", "164637.125000", "164637.125000", "164637.140000", "164637.140000", "164637.140000", "164637.140000", "164637.140000", "164637.140000", "164637.140000", "164637.156000", "164637.156000", "164637.156000", "164637.156000", "164637.156000", "164637.156000", "164637.156000", "164637.171000", "164637.171000", "164637.171000", "164637.171000", "164637.171000", "164637.171000", "164637.171000", "164710.968000", "164710.968000", "164710.968000", "164710.968000", "164710.968000", "164710.968000", "164710.968000", "164710.984000", "164710.984000", "164710.984000", "164710.984000", "164710.984000", "164711.000000", "164711.000000", "164711.000000", "164711.000000"],
