{
  "AcquisitionMatrixPE": 104,
  "AcquisitionNumber": 1,
  "AcquisitionTime": "15:48:12.765000",
  "BandwidthPerPixelPhaseEncode": 13.935,
  "BaseResolution": 104,
  "CoilString": "C:HEA;HEP",
  "ConversionSoftware": "dcm2niix",
  "ConversionSoftwareVersion": "v1.0.20210317",
  "DerivedVendorReportedEchoSpacing": 0.000690017,
  "DeviceSerialNumber": "35450",
  "DwellTime": 2.5e-06,
  "EchoTime": 0.0348,
  "EffectiveEchoSpacing": 0.000690017,
  "FlipAngle": 55,
  "ImageComments": "Unaliased MB8/PE3",
  "ImageOrientationPatientDICOM": [0.999054, 0.00257886, 0.0433987, 3.85984e-08, 0.998239, -0.0593187],
  "ImageType": [
    "ORIGINAL",
    "PRIMARY",
    "M",
    "MB",
    "ND",
    "MOSAIC"
],
  "ImagingFrequency": 123.235,
  "InPlanePhaseEncodingDirectionDICOM": "COL",
  "InstitutionAddress": "Univeristy Ave. 197,Newark,North East,US,07102-1814",
  "InstitutionName": "RUBIC",
  "InstitutionalDepartmentName": "Department",
  "MRAcquisitionType": "2D",
  "MagneticFieldStrength": 3,
  "Manufacturer": "Siemens",
  "ManufacturersModelName": "TrioTim",
  "Modality": "MR",
  "MultibandAccelerationFactor": 8,
  "PartialFourier": 0.875,
  "PatientPosition": "HFS",
  "PercentPhaseFOV": 100,
  "PercentSampling": 100,
  "PhaseEncodingDirection": "j-",
  "PhaseEncodingSteps": 91,
  "PhaseResolution": 1,
  "PixelBandwidth": 1923,
  "ProcedureStepDescription": "Cole^Michael",
  "ProtocolName": "cmrr_mbep2d_bold_2mm_MB8_Task_8x",
  "PulseSequenceDetails": "%CustomerSeq%\\cmrr_mbep2d_bold",
  "ReceiveCoilName": "32Ch_Head",
  "ReconMatrixPE": 104,
  "RepetitionTime": 0.785,
  "SAR": 0.1303,
  "ScanOptions": "PFP\\FS",
  "ScanningSequence": "EP",
  "SequenceName": "epfid2d1_104",
  "SequenceVariant": "SK\\SS",
  "SeriesDescription": "cmrr_mbep2d_bold_2mm_MB8_Task_8x",
  "SeriesNumber": 16,
  "ShimSetting": [2153, -430, -7320, 664, 165, -322, 291, -77],
  "SliceThickness": 2,
  "SliceTiming": [0, 0.4375, 0.0875, 0.525, 0.175, 0.6125, 0.2625, 0.7, 0.35, 0, 0.4375, 0.0875, 0.525, 0.175, 0.6125, 0.2625, 0.7, 0.35, 0, 0.4375, 0.0875, 0.525, 0.175, 0.6125, 0.2625, 0.7, 0.35, 0, 0.4375, 0.0875, 0.525, 0.175, 0.6125, 0.2625, 0.7, 0.35, 0, 0.4375, 0.0875, 0.525, 0.175, 0.6125, 0.2625, 0.7, 0.35, 0, 0.4375, 0.0875, 0.525, 0.175, 0.6125, 0.2625, 0.7, 0.35, 0, 0.4375, 0.0875, 0.525, 0.175, 0.6125, 0.2625, 0.7, 0.35, 0, 0.4375, 0.0875, 0.525, 0.175, 0.6125, 0.2625, 0.7, 0.35],
  "SoftwareVersions": "syngo MR B19",
  "SpacingBetweenSlices": 2,
  "StationName": "MRC35450",
  "TaskName": "cpro",
  "TotalReadoutTime": 0.0710717,
  "TxRefAmp": 325.804,
  "dcmmeta_affine": [
    [-1.998108983039856, 7.719675920725422e-08, 0.08695053309202194, 101.9706039428711],
    [-0.005157719366252422, 1.9964781999588013, -0.11852531880140305, -78.15131378173828],
    [0.08679742366075516, 0.11863748729228973, 1.9945905208587646, -88.44955444335938],
    [0.0, 0.0, 0.0, 1.0]
],
  "dcmmeta_reorient_transform": [
    [0.0, -1.0, 0.0, 103.0],
    [1.0, 0.0, 0.0, 0.0],
    [0.0, 0.0, 1.0, 0.0],
    [0.0, 0.0, 0.0, 1.0]
],
  "dcmmeta_shape": [104, 104, 72, 581],
  "dcmmeta_slice_dim": 2,
  "dcmmeta_version": 0.6,
  "global": {
    "const": {
      "AcquisitionMatrix": [104, 0, 0, 104],
      "AngioFlag": "N",
      "BitsAllocated": 16,
      "BitsStored": 12,
      "Columns": 936,
      "EchoNumbers": 1,
      "EchoTime": 34.8,
      "EchoTrainLength": 1,
      "FlipAngle": 55.0,
      "HighBit": 11,
      "ImageOrientationPatient": [0.99905450361009, 0.00257885971658, 0.04339871310253, 3.8598379e-08, 0.99823909291692, -0.0593187438539],
      "ImagePositionPatient": [-933.18398761667, -960.16647303446, -62.984425557516],
      "ImageType": [
        "ORIGINAL",
        "PRIMARY",
        "M",
        "MB",
        "ND",
        "MOSAIC"
],
      "ImagedNucleus": "1H",
      "ImagingFrequency": 123.234762,
      "InPlanePhaseEncodingDirection": "COL",
      "MRAcquisitionType": "2D",
      "MagneticFieldStrength": 3.0,
      "Manufacturer": "SIEMENS",
      "ManufacturerModelName": "TrioTim",
      "Modality": "MR",
      "NumberOfAverages": 1.0,
      "NumberOfPhaseEncodingSteps": 91,
      "PercentPhaseFieldOfView": 100.0,
      "PercentSampling": 100.0,
      "PerformedProcedureStepStartTime": "142449.140000",
      "PhotometricInterpretation": "MONOCHROME2",
      "PixelBandwidth": 1923.0,
      "PixelRepresentation": 0,
      "PixelSpacing": [2.0, 2.0],
      "ProtocolName": "cmrr_mbep2d_bold_2mm_MB8_Task_8x",
      "RepetitionTime": 785.0,
      "Rows": 936,
      "SAR": 0.13029956258107,
      "SamplesPerPixel": 1,
      "ScanOptions": [
        "PFP",
        "FS"
],
      "ScanningSequence": "EP",
      "SequenceName": "epfid2d1_104",
      "SequenceVariant": [
        "SK",
        "SS"
],
      "SeriesDescription": "cmrr_mbep2d_bold_2mm_MB8_Task_8x",
      "SeriesNumber": 16,
      "SeriesTime": "163303.703000",
      "SliceLocation": -79.145665498125,
      "SliceThickness": 2.0,
      "SmallestImagePixelValue": 0,
      "SoftwareVersions": "syngo MR B19",
      "SpacingBetweenSlices": 1.9999999678613,
      "SpecificCharacterSet": "ISO_IR 100",
      "StudyID": "1",
      "StudyTime": "142449.125000",
      "TransmitCoilName": "Body",
      "VariableFlipAngleFlag": "N",
      "WindowCenterWidthExplanation": "Algo1",
      "dBdt": 0.0},
    "slices": {}
  },
  "time": {
    "samples": {
      "AcquisitionNumber": [1, 2, 3, 4, 5, 6, 7, 8, 9, 10, 11, 12, 13, 14, 15, 16, 17, 18, 19, 20, 21, 22, 23, 24, 25, 26, 27, 28, 29, 30, 31, 32, 33, 34, 35, 36, 37, 38, 39, 40, 41, 42, 43, 44, 45, 46, 47, 48, 49, 50, 51, 52, 53, 54, 55, 56, 57, 58, 59, 60, 61, 62, 63, 64, 65, 66, 67, 68, 69, 70, 71, 72, 73, 74, 75, 76, 77, 78, 79, 80, 81, 82, 83, 84, 85, 86, 87, 88, 89, 90, 91, 92, 93, 94, 95, 96, 97, 98, 99, 100, 101, 102, 103, 104, 105, 106, 107, 108, 109, 110, 111, 112, 113, 114, 115, 116, 117, 118, 119, 120, 121, 122, 123, 124, 125, 126, 127, 128, 129, 130, 131, 132, 133, 134, 135, 136, 137, 138, 139, 140, 141, 142, 143, 144, 145, 146, 147, 148, 149, 150, 151, 152, 153, 154, 155, 156, 157, 158, 159, 160, 161, 162, 163, 164, 165, 166, 167, 168, 169, 170, 171, 172, 173, 174, 175, 176, 177, 178, 179, 180, 181, 182, 183, 184, 185, 186, 187, 188, 189, 190, 191, 192, 193, 194, 195, 196, 197, 198, 199, 200, 201, 202, 203, 204, 205, 206, 207, 208, 209, 210, 211, 212, 213, 214, 215, 216, 217, 218, 219, 220, 221, 222, 223, 224, 225, 226, 227, 228, 229, 230, 231, 232, 233, 234, 235, 236, 237, 238, 239, 240, 241, 242, 243, 244, 245, 246, 247, 248, 249, 250, 251, 252, 253, 254, 255, 256, 257, 258, 259, 260, 261, 262, 263, 264, 265, 266, 267, 268, 269, 270, 271, 272, 273, 274, 275, 276, 277, 278, 279, 280, 281, 282, 283, 284, 285, 286, 287, 288, 289, 290, 291, 292, 293, 294, 295, 296, 297, 298, 299, 300, 301, 302, 303, 304, 305, 306, 307, 308, 309, 310, 311, 312, 313, 314, 315, 316, 317, 318, 319, 320, 321, 322, 323, 324, 325, 326, 327, 328, 329, 330, 331, 332, 333, 334, 335, 336, 337, 338, 339, 340, 341, 342, 343, 344, 345, 346, 347, 348, 349, 350, 351, 352, 353, 354, 355, 356, 357, 358, 359, 360, 361, 362, 363, 364, 365, 366, 367, 368, 369, 370, 371, 372, 373, 374, 375, 376, 377, 378, 379, 380, 381, 382, 383, 384, 385, 386, 387, 388, 389, 390, 391, 392, 393, 394, 395, 396, 397, 398, 399, 400, 401, 402, 403, 404, 405, 406, 407, 408, 409, 410, 411, 412, 413, 414, 415, 416, 417, 418, 419, 420, 421, 422, 423, 424, 425, 426, 427, 428, 429, 430, 431, 432, 433, 434, 435, 436, 437, 438, 439, 440, 441, 442, 443, 444, 445, 446, 447, 448, 449, 450, 451, 452, 453, 454, 455, 456, 457, 458, 459, 460, 461, 462, 463, 464, 465, 466, 467, 468, 469, 470, 471, 472, 473, 474, 475, 476, 477, 478, 479, 480, 481, 482, 483, 484, 485, 486, 487, 488, 489, 490, 491, 492, 493, 494, 495, 496, 497, 498, 499, 500, 501, 502, 503, 504, 505, 506, 507, 508, 509, 510, 511, 512, 513, 514, 515, 516, 517, 518, 519, 520, 521, 522, 523, 524, 525, 526, 527, 528, 529, 530, 531, 532, 533, 534, 535, 536, 537, 538, 539, 540, 541, 542, 543, 544, 545, 546, 547, 548, 549, 550, 551, 552, 553, 554, 555, 556, 557, 558, 559, 560, 561, 562, 563, 564, 565, 566, 567, 568, 569, 570, 571, 572, 573, 574, 575, 576, 577, 578, 579, 580, 581],
      "AcquisitionTime": ["154812.765000", "154813.552500", "154814.340000", "154815.130000", "154815.917500", "154816.705000", "154817.492500", "154818.282500", "154819.070000", "154819.857500", "154820.645000", "154821.435000", "154822.222500", "154823.010000", "154823.800000", "154824.587500", "154825.375000", "154826.162500", "154826.952500", "154827.740000", "154828.527500", "154829.315000", "154830.105000", "154830.892500", "154831.680000", "154832.467500", "154833.257500", "154834.045000", "154834.832500", "154835.620000", "154836.410000", "154837.197500", "154837.985000", "154838.772500", "154839.562500", "154840.350000", "154841.137500", "154841.927500", "154842.715000", "154843.502500", "154844.290000", "154845.080000", "154845.867500", "154846.655000", "154847.442500", "154848.232500", "154849.020000", "154849.807500", "154850.595000", "154851.385000", "154852.172500", "154852.960000", "154853.747500", "154854.537500", "154855.325000", "154856.112500", "154856.900000", "154857.690000", "154858.477500", "154859.265000", "154900.055000", "154900.842500", "154901.630000", "154902.417500", "154903.207500", "154903.995000", "154904.782500", "154905.570000", "154906.360000", "154907.147500", "154907.935000", "154908.722500", "154909.512500", "154910.300000", "154911.087500", "154911.875000", "154912.665000", "154913.452500", "154914.240000", "154915.027500", "154915.817500", "154916.605000", "154917.392500", "154918.182500", "154918.970000", "154919.757500", "154920.545000", "154921.335000", "154922.122500", "154922.910000", "154923.697500", "154924.487500", "154925.275000", "154926.062500", "154926.850000", "154927.640000", "154928.427500", "154929.215000", "154930.002500", "154930.792500", "154931.580000", "154932.367500", "154933.155000", "154933.945000", "154934.732500", "154935.520000", "154936.310000", "154937.097500", "154937.885000", "154938.672500", "154939.462500", "154940.250000", "154941.037500", "154941.825000", "154942.615000", "154943.402500", "154944.190000", "154944.977500", "154945.767500", "154946.555000", "154947.342500", "154948.130000", "154948.920000", "154949.707500", "154950.495000", "154951.282500", "154952.072500", "154952.860000", "154953.647500", "154954.437500", "154955.225000", "154956.012500", "154956.800000", "154957.590000", "154958.377500", "154959.165000", "154959.952500", "155000.742500", "155001.530000", "155002.317500", "155003.105000", "155003.895000", "155004.682500", "155005.470000", "155006.257500", "155007.047500", "155007.835000", "155008.622500", "155009.412500", "155010.200000", "155010.987500", "155011.775000", "155012.565000", "155013.352500", "155014.140000", "155014.927500", "155015.717500", "155016.505000", "155017.292500", "155018.080000", "155018.870000", "155019.657500", "155020.445000", "155021.232500", "155022.022500", "155022.810000", "155023.597500", "155024.385000", "155025.175000", "155025.962500", "155026.750000", "155027.540000", "155028.327500", "155029.115000", "155029.902500", "155030.692500", "155031.480000", "155032.267500", "155033.055000", "155033.845000", "155034.632500", "155035.420000", "155036.207500", "155036.997500", "155037.785000", "155038.572500", "155039.360000", "155040.150000", "155040.937500", "155041.725000", "155042.512500", "155043.302500", "155044.090000", "155044.877500", "155045.667500", "155046.455000", "155047.242500", "155048.030000", "155048.820000", "155049.607500", "155050.395000", "155051.182500", "155051.972500", "155052.760000", "155053.547500", "155054.335000", "155055.125000", "155055.912500", "155056.700000", "155057.487500", "155058.277500", "155059.065000", "155059.852500", "155100.640000", "155101.430000", "155102.217500", "155103.005000", "155103.795000", "155104.582500", "155105.370000", "155106.157500", "155106.947500", "155107.735000", "155108.522500", "155109.310000", "155110.100000", "155110.887500", "155111.675000", "155112.462500", "155113.252500", "155114.040000", "155114.827500", "155115.615000", "155116.405000", "155117.192500", "155117.980000", "155118.767500", "155119.557500", "155120.345000", "155121.132500", "155121.922500", "155122.710000", "155123.497500", "155124.285000", "155125.075000", "155125.862500", "155126.650000", "155127.437500", "155128.227500", "155129.015000", "155129.802500", "155130.590000", "155131.380000", "155132.167500", "155132.955000", "155133.742500", "155134.532500", "155135.320000", "155136.107500", "155136.895000", "155137.685000", "155138.472500", "155139.260000", "155140.050000", "155140.837500", "155141.625000", "155142.412500", "155143.202500", "155143.990000", "155144.777500", "155145.565000", "155146.355000", "155147.142500", "155147.930000", "155148.717500", "155149.507500", "155150.295000", "155151.082500", "155151.870000", "155152.660000", "155153.447500", "155154.235000", "155155.022500", "155155.812500", "155156.600000", "155157.387500", "155158.177500", "155158.965000", "155159.752500", "155200.540000", "155201.330000", "155202.117500", "155202.905000", "155203.692500", "155204.482500", "155205.270000", "155206.057500", "155206.845000", "155207.635000", "155208.422500", "155209.210000", "155209.997500", "155210.787500", "155211.575000", "155212.362500", "155213.150000", "155213.940000", "155214.727500", "155215.515000", "155216.305000", "155217.092500", "155217.880000", "155218.667500", "155219.457500", "155220.245000", "155221.032500", "155221.820000", "155222.610000", "155223.397500", "155224.185000", "155224.972500", "155225.762500", "155226.550000", "155227.337500", "155228.125000", "155228.915000", "155229.702500", "155230.490000", "155231.277500", "155232.067500", "155232.855000", "155233.642500", "155234.432500", "155235.220000", "155236.007500", "155236.795000", "155237.585000", "155238.372500", "155239.160000", "155239.947500", "155240.737500", "155241.525000", "155242.312500", "155243.100000", "155243.890000", "155244.677500", "155245.465000", "155246.252500", "155247.042500", "155247.830000", "155248.617500", "155249.405000", "155250.195000", "155250.982500", "155251.770000", "155252.560000", "155253.347500", "155254.135000", "155254.922500", "155255.712500", "155256.500000", "155257.287500", "155258.075000", "155258.865000", "155259.652500", "155300.440000", "155301.227500", "155302.017500", "155302.805000", "155303.592500", "155304.380000", "155305.170000", "155305.957500", "155306.745000", "155307.532500", "155308.322500", "155309.110000", "155309.897500", "155310.687500", "155311.475000", "155312.262500", "155313.050000", "155313.840000", "155314.627500", "155315.415000", "155316.202500", "155316.992500", "155317.780000", "155318.567500", "155319.355000", "155320.145000", "155320.932500", "155321.720000", "155322.507500", "155323.297500", "155324.085000", "155324.872500", "155325.662500", "155326.450000", "155327.237500", "155328.025000", "155328.815000", "155329.602500", "155330.390000", "155331.177500", "155331.967500", "155332.755000", "155333.542500", "155334.330000", "155335.120000", "155335.907500", "155336.695000", "155337.482500", "155338.272500", "155339.060000", "155339.847500", "155340.635000", "155341.425000", "155342.212500", "155343.000000", "155343.790000", "155344.577500", "155345.365000", "155346.152500", "155346.942500", "155347.730000", "155348.517500", "155349.305000", "155350.095000", "155350.882500", "155351.670000", "155352.457500", "155353.247500", "155354.035000", "155354.822500", "155355.610000", "155356.400000", "155357.187500", "155357.975000", "155358.762500", "155359.552500", "155400.340000", "155401.127500", "155401.917500", "155402.705000", "155403.492500", "155404.280000", "155405.070000", "155405.857500", "155406.645000", "155407.432500", "155408.222500", "155409.010000", "155409.797500", "155410.585000", "155411.375000", "155412.162500", "155412.950000", "155413.737500", "155414.527500", "155415.315000", "155416.102500", "155416.890000", "155417.680000", "155418.467500", "155419.255000", "155420.045000", "155420.832500", "155421.620000", "155422.407500", "155423.197500", "155423.985000", "155424.772500", "155425.560000", "155426.350000", "155427.137500", "155427.925000", "155428.712500", "155429.502500", "155430.290000", "155431.077500", "155431.865000", "155432.655000", "155433.442500", "155434.230000", "155435.017500", "155435.807500", "155436.595000", "155437.382500", "155438.172500", "155438.960000", "155439.747500", "155440.535000", "155441.325000", "155442.112500", "155442.900000", "155443.687500", "155444.477500", "155445.265000", "155446.052500", "155446.840000", "155447.630000", "155448.417500", "155449.205000", "155449.992500", "155450.782500", "155451.570000", "155452.357500", "155453.145000", "155453.935000", "155454.722500", "155455.510000", "155456.300000", "155457.087500", "155457.875000", "155458.662500", "155459.452500", "155500.240000", "155501.027500", "155501.815000", "155502.605000", "155503.392500", "155504.180000", "155504.967500", "155505.757500", "155506.545000", "155507.332500", "155508.120000", "155508.910000", "155509.697500", "155510.485000", "155511.272500", "155512.062500", "155512.850000", "155513.637500", "155514.427500", "155515.215000", "155516.002500", "155516.790000", "155517.580000", "155518.367500", "155519.155000", "155519.942500", "155520.732500", "155521.520000", "155522.307500", "155523.095000", "155523.885000", "155524.672500", "155525.460000", "155526.247500", "155527.037500", "155527.825000", "155528.612500", "155529.400000", "155530.190000", "155530.977500", "155531.765000", "155532.555000", "155533.342500", "155534.130000", "155534.917500", "155535.707500", "155536.495000", "155537.282500", "155538.070000", "155538.860000", "155539.647500", "155540.435000", "155541.222500", "155542.012500", "155542.800000", "155543.587500", "155544.375000", "155545.165000", "155545.952500", "155546.740000", "155547.527500", "155548.317500", "155549.105000", "155549.892500"],
      "ContentTime": ["163303.703000", "163303.703000", "163303.703000", "163303.703000", "163303.718000", "163303.718000", "163303.718000", "163303.718000", "163303.718000", "163403.687000", "163403.687000", "163403.687000", "163403.687000", "163403.687000", "163403.687000", "163403.703000", "163403.703000", "163403.703000", "163403.703000", "163403.703000", "163403.703000", "163403.718000", "163403.718000", "163403.718000", "163403.718000", "163403.718000", "163403.718000", "163403.734000", "163403.734000", "163403.734000", "163403.734000", "163403.734000", "163403.734000", "163403.734000", "163403.750000", "163403.750000", "163403.750000", "163503.687000", "163503.687000", "163503.687000", "163503.687000", "163503.687000", "163503.687000", "163503.703000", "163503.703000", "163503.703000", "163503.703000", "163503.703000", "163503.703000", "163503.703000", "163503.718000", "163503.718000", "163503.718000", "163503.718000", "163503.718000", "163503.718000", "163503.718000", "163503.734000", "163503.734000", "163503.734000", "163503.734000", "163503.734000", "163503.734000", "163503.734000", "163603.687000", "163603.687000", "163603.687000", "163603.687000", "163603.687000", "163603.687000", "163603.703000", "163603.703000", "163603.703000", "163603.703000", "163603.703000", "163603.703000", "163603.703000", "163603.718000", "163603.718000", "163603.718000", "163603.718000", "163603.718000", "163603.718000", "163603.718000", "163603.734000", "163603.734000", "163603.734000", "163603.734000", "163603.734000", "163603.734000", "163603.734000", "163603.750000", "163703.687000", "163703.687000", "163703.687000", "163703.687000", "163703.703000", "163703.703000", "163703.703000", "163703.703000", "163703.703000", "163703.703000", "163703.703000", "163703.718000", "163703.718000", "163703.718000", "163703.718000", "163703.718000", "163703.718000", "163703.718000", "163703.734000", "163703.734000", "163703.734000", "163703.734000", "163703.734000", "163703.734000", "163703.750000", "163703.750000", "163703.750000", "163803.687000", "163803.687000", "163803.687000", "163803.687000", "163803.687000", "163803.687000", "163803.703000", "163803.703000", "163803.703000", "163803.703000", "163803.703000", "163803.703000", "163803.703000", "163803.718000", "163803.718000", "163803.718000", "163803.718000", "163803.718000", "163803.718000", "163803.718000", "163803.734000", "163803.734000", "163803.734000", "163803.734000", "163803.734000", "163803.734000", "163803.734000", "163803.750000", "163823.687000", "163823.687000", "163823.687000", "163823.687000", "163823.687000", "163823.687000", "163823.703000", "163823.703000", "163823.703000", "163923.687000", "163923.687000", "163923.687000", "163923.687000", "163923.687000", "163923.687000", "163923.703000", "163923.703000", "163923.703000", "163923.703000", "163923.703000", "163923.703000", "163923.703000", "163923.718000", "163923.718000", "163923.718000", "163923.718000", "163923.718000", "163923.718000", "163923.718000", "163923.734000", "163923.734000", "163923.734000", "163923.734000", "163923.734000", "163923.734000", "163923.734000", "164023.687000", "164023.687000", "164023.687000", "164023.687000", "164023.687000", "164023.687000", "164023.703000", "164023.703000", "164023.703000", "164023.703000", "164023.703000", "164023.703000", "164023.703000", "164023.718000", "164023.718000", "164023.718000", "164023.718000", "164023.718000", "164023.718000", "164023.718000", "164023.734000", "164023.734000", "164023.734000", "164023.734000", "164023.750000", "164023.750000", "164023.750000", "164023.750000", "164123.687000", "164123.687000", "164123.687000", "164123.687000", "164123.687000", "164123.687000", "164123.703000", "164123.703000", "164123.703000", "164123.703000", "164123.703000", "164123.703000", "164123.703000", "164123.718000", "164123.718000", "164123.718000", "164123.718000", "164123.718000", "164123.718000", "164123.718000", "164123.734000", "164123.734000", "164123.734000", "164123.734000", "164123.734000", "164123.734000", "164123.734000", "164223.687000", "164223.687000", "164223.687000", "164223.687000", "164223.687000", "164223.687000", "164223.703000", "164223.703000", "164223.703000", "164223.703000", "164223.703000", "164223.703000", "164223.703000", "164223.718000", "164223.718000", "164223.718000", "164223.718000", "164223.718000", "164223.718000", "164223.718000", "164223.734000", "164223.734000", "164223.734000", "164223.734000", "164223.734000", "164223.734000", "164223.750000", "164323.687000", "164323.687000", "164323.687000", "164323.687000", "164323.687000", "164323.687000", "164323.703000", "164323.703000", "164323.703000", "164323.703000", "164323.703000", "164323.703000", "164323.703000", "164323.718000", "164323.718000", "164323.718000", "164323.718000", "164323.718000", "164323.718000", "164323.718000", "164323.734000", "164323.734000", "164323.734000", "164323.734000", "164323.734000", "164323.734000", "164323.750000", "164323.750000", "164423.687000", "164423.687000", "164423.687000", "164423.687000", "164423.687000", "164423.687000", "164423.703000", "164423.703000", "164423.703000", "164423.703000", "164423.703000", "164423.703000", "164423.703000", "164423.718000", "164423.718000", "164423.718000", "164423.718000", "164423.718000", "164423.718000", "164423.718000", "164423.734000", "164423.734000", "164423.734000", "164423.734000", "164423.734000", "164423.734000", "164423.734000", "164523.687000", "164523.703000", "164523.703000", "164523.703000", "164523.703000", "164523.703000", "164523.703000", "164523.718000", "164523.718000", "164523.718000", "164523.718000", "164523.718000", "164523.718000", "164523.718000", "164523.734000", "164523.734000", "164523.734000", "164523.734000", "164523.734000", "164523.734000", "164523.734000", "164523.750000", "164523.750000", "164523.750000", "164523.750000", "164523.750000", "164523.750000", "164523.765000", "164623.687000", "164623.703000", "164623.703000", "164623.703000", "164623.703000", "164623.703000", "164623.703000", "164623.718000", "164623.718000", "164623.718000", "164623.718000", "164623.718000", "164623.718000", "164623.734000", "164623.734000", "164623.734000", "164623.734000", "164623.734000", "164623.734000", "164623.734000", "164623.750000", "164623.750000", "164623.750000", "164623.750000", "164623.765000", "164623.765000", "164623.765000", "164623.765000", "164723.687000", "164723.703000", "164723.703000", "164723.703000", "164723.703000", "164723.703000", "164723.703000", "164723.718000", "164723.718000", "164723.718000", "164723.718000", "164723.718000", "164723.718000", "164723.718000", "164723.734000", "164723.734000", "164723.734000", "164723.734000", "164723.734000", "164723.734000", "164723.734000", "164723.750000", "164723.750000", "164723.750000", "164723.750000", "164723.750000", "164723.750000", "164723.750000", "164823.687000", "164823.703000", "164823.703000", "164823.703000", "164823.703000", "164823.703000", "164823.718000", "164823.718000", "164823.718000", "164823.718000", "164823.718000", "164823.734000", "164823.734000", "164823.734000", "164823.734000", "164823.734000", "164823.734000", "164823.734000", "164823.750000", "164823.750000", "164823.750000", "164823.750000", "164823.750000", "164823.750000", "164823.750000", "164823.750000", "164823.765000", "164823.765000", "164923.687000", "164923.703000", "164923.703000", "164923.703000", "164923.703000", "164923.703000", "164923.703000", "164923.718000", "164923.718000", "164923.718000", "164923.718000", "164923.718000", "164923.718000", "164923.718000", "164923.734000", "164923.734000", "164923.734000", "164923.734000", "164923.734000", "164923.750000", "164923.750000", "164923.750000", "164923.750000", "164923.750000", "164923.750000", "164923.750000", "164923.765000", "165023.687000", "165023.687000", "165023.687000", "165023.687000", "165023.703000", "165023.703000", "165023.703000", "165023.703000", "165023.703000", "165023.703000", "165023.718000", "165023.718000", "165023.718000", "165023.718000", "165023.718000", "165023.718000", "165023.718000", "165023.734000", "165023.734000", "165023.734000", "165023.734000", "165023.734000", "165023.734000", "165023.734000", "165023.750000", "165023.750000", "165023.750000", "165023.750000", "165123.687000", "165123.687000", "165123.687000", "165123.687000", "165123.703000", "165123.703000", "165123.703000", "165123.703000", "165123.703000", "165123.703000", "165123.703000", "165123.718000", "165123.718000", "165123.718000", "165123.718000", "165123.718000", "165123.718000", "165123.718000", "165123.734000", "165123.734000", "165123.734000", "165123.734000", "165123.734000", "165123.750000", "165123.750000", "165123.750000", "165123.750000", "165123.750000", "165223.687000", "165223.687000", "165223.687000", "165223.687000", "165223.703000", "165223.703000", "165223.703000", "165223.703000", "165223.703000", "165223.703000", "165223.703000", "165223.718000", "165223.718000", "165223.718000", "165223.718000", "165223.718000", "165223.718000", "165223.734000", "165223.734000", "165223.734000", "165223.734000", "165223.734000", "165223.734000", "165223.734000", "165223.750000", "165223.750000", "165223.750000", "165223.750000", "165323.687000", "165323.687000", "165323.687000", "165323.687000", "165323.703000", "165323.703000", "165323.703000", "165323.703000", "165323.703000", "165323.703000", "165323.703000", "165323.718000", "165323.718000", "165323.718000", "165323.718000", "165323.718000", "165323.718000", "165323.718000", "165323.734000", "165323.734000", "165323.734000", "165323.734000", "165323.734000", "165323.734000", "165323.734000", "165323.750000", "165323.750000", "165345.093000", "165345.093000", "165345.109000", "165345.109000", "165345.109000", "165345.109000", "165345.109000", "165345.109000", "165345.109000", "165345.125000", "165345.125000"],
      "DataSetTrailingPadding": [
        "\u0000\u0000\u0000\u0000\u0000\u0000\u0000\u0000\u0000\u0000\u0000\u0000\u0000\u0000\u0000\u0000",
        "\u0000\u0000\u0000\u0000\u0000\u0000\u0000\u0000\u0000\u0000\u0000\u0000\u0000\u0000\u0000\u0000",
        "\u0000\u0000\u0000\u0000\u0000\u0000\u0000\u0000\u0000\u0000\u0000\u0000\u0000\u0000",
        "\u0000\u0000\u0000\u0000\u0000\u0000\u0000\u0000\u0000\u0000\u0000\u0000\u0000\u0000",
        "\u0000\u0000\u0000\u0000\u0000\u0000\u0000\u0000\u0000\u0000\u0000\u0000\u0000\u0000\u0000\u0000",
        "\u0000\u0000\u0000\u0000\u0000\u0000\u0000\u0000\u0000\u0000\u0000\u0000\u0000\u0000",
        "\u0000\u0000\u0000\u0000\u0000\u0000\u0000\u0000\u0000\u0000\u0000\u0000\u0000\u0000\u0000\u0000",
        "\u0000\u0000\u0000\u0000\u0000\u0000\u0000\u0000\u0000\u0000\u0000\u0000\u0000\u0000\u0000\u0000",
        "\u0000\u0000\u0000\u0000\u0000\u0000\u0000\u0000\u0000\u0000\u0000\u0000\u0000\u0000",
        "\u0000\u0000\u0000\u0000\u0000\u0000\u0000\u0000\u0000\u0000\u0000\u0000",
        "\u0000\u0000\u0000\u0000\u0000\u0000\u0000\u0000\u0000\u0000",
        "\u0000\u0000\u0000\u0000\u0000\u0000\u0000\u0000\u0000\u0000",
        "\u0000\u0000\u0000\u0000\u0000\u0000\u0000\u0000\u0000\u0000\u0000\u0000",
        "\u0000\u0000\u0000\u0000\u0000\u0000\u0000\u0000\u0000\u0000",
        "\u0000\u0000\u0000\u0000\u0000\u0000\u0000\u0000\u0000\u0000\u0000\u0000\u0000\u0000",
        "\u0000\u0000\u0000\u0000\u0000\u0000\u0000\u0000\u0000\u0000\u0000\u0000",
        "\u0000\u0000\u0000\u0000\u0000\u0000\u0000\u0000\u0000\u0000",
        "\u0000\u0000\u0000\u0000\u0000\u0000\u0000\u0000\u0000\u0000\u0000\u0000",
        "\u0000\u0000\u0000\u0000\u0000\u0000\u0000\u0000\u0000\u0000",
        "\u0000\u0000\u0000\u0000\u0000\u0000\u0000\u0000\u0000\u0000",
        "\u0000\u0000\u0000\u0000\u0000\u0000\u0000\u0000\u0000\u0000\u0000\u0000",
        "\u0000\u0000\u0000\u0000\u0000\u0000\u0000\u0000\u0000\u0000",
