{
  "AcquisitionMatrixPE": 104,
  "AcquisitionNumber": 1,
  "AcquisitionTime": "16:28:33.730000",
  "BandwidthPerPixelPhaseEncode": 13.935,
  "BaseResolution": 104,
  "CoilString": "C:HEA;HEP",
  "ConversionSoftware": "dcm2niix",
  "ConversionSoftwareVersion": "v1.0.20210317",
  "DerivedVendorReportedEchoSpacing": 0.000690017,
  "DeviceSerialNumber": "35450",
  "DwellTime": 2.5e-06,
  "EchoTime": 0.0348,
  "EffectiveEchoSpacing": 0.000690017,
  "FlipAngle": 55,
  "ImageComments": "Unaliased MB8/PE3",
  "ImageOrientationPatientDICOM": [0.999054, 0.00257886, 0.0433987, 3.85984e-08, 0.998239, -0.0593187],
  "ImageType": [
    "ORIGINAL",
    "PRIMARY",
    "M",
    "MB",
    "ND",
    "MOSAIC"
],
  "ImagingFrequency": 123.235,
  "InPlanePhaseEncodingDirectionDICOM": "COL",
  "InstitutionAddress": "Univeristy Ave. 197,Newark,North East,US,07102-1814",
  "InstitutionName": "RUBIC",
  "InstitutionalDepartmentName": "Department",
  "MRAcquisitionType": "2D",
  "MagneticFieldStrength": 3,
  "Manufacturer": "Siemens",
  "ManufacturersModelName": "TrioTim",
  "Modality": "MR",
  "MultibandAccelerationFactor": 8,
  "PartialFourier": 0.875,
  "PatientPosition": "HFS",
  "PercentPhaseFOV": 100,
  "PercentSampling": 100,
  "PhaseEncodingDirection": "j-",
  "PhaseEncodingSteps": 91,
  "PhaseResolution": 1,
  "PixelBandwidth": 1923,
  "ProcedureStepDescription": "Cole^Michael",
  "ProtocolName": "cmrr_mbep2d_bold_2mm_MB8_Task_8x",
  "PulseSequenceDetails": "%CustomerSeq%\\cmrr_mbep2d_bold",
  "ReceiveCoilName": "32Ch_Head",
  "ReconMatrixPE": 104,
  "RepetitionTime": 0.785,
  "SAR": 0.1303,
  "ScanOptions": "PFP\\FS",
  "ScanningSequence": "EP",
  "SequenceName": "epfid2d1_104",
  "SequenceVariant": "SK\\SS",
  "SeriesDescription": "cmrr_mbep2d_bold_2mm_MB8_Task_8x",
  "SeriesNumber": 26,
  "ShimSetting": [2153, -430, -7320, 664, 165, -322, 291, -77],
  "SliceThickness": 2,
  "SliceTiming": [0, 0.4375, 0.0875, 0.525, 0.175, 0.6125, 0.2625, 0.7, 0.35, 0, 0.4375, 0.0875, 0.525, 0.175, 0.6125, 0.2625, 0.7, 0.35, 0, 0.4375, 0.0875, 0.525, 0.175, 0.6125, 0.2625, 0.7, 0.35, 0, 0.4375, 0.0875, 0.525, 0.175, 0.6125, 0.2625, 0.7, 0.35, 0, 0.4375, 0.0875, 0.525, 0.175, 0.6125, 0.2625, 0.7, 0.35, 0, 0.4375, 0.0875, 0.525, 0.175, 0.6125, 0.2625, 0.7, 0.35, 0, 0.4375, 0.0875, 0.525, 0.175, 0.6125, 0.2625, 0.7, 0.35, 0, 0.4375, 0.0875, 0.525, 0.175, 0.6125, 0.2625, 0.7, 0.35],
  "SoftwareVersions": "syngo MR B19",
  "SpacingBetweenSlices": 2,
  "StationName": "MRC35450",
  "TaskName": "cpro",
  "TotalReadoutTime": 0.0710717,
  "TxRefAmp": 325.804,
  "dcmmeta_affine": [
    [-1.998108983039856, 7.719675920725422e-08, 0.08695053309202194, 101.9706039428711],
    [-0.005157719366252422, 1.9964781999588013, -0.11852531880140305, -78.15131378173828],
    [0.08679742366075516, 0.11863748729228973, 1.9945905208587646, -88.44955444335938],
    [0.0, 0.0, 0.0, 1.0]
],
  "dcmmeta_reorient_transform": [
    [0.0, -1.0, 0.0, 103.0],
    [1.0, 0.0, 0.0, 0.0],
    [0.0, 0.0, 1.0, 0.0],
    [0.0, 0.0, 0.0, 1.0]
],
  "dcmmeta_shape": [104, 104, 72, 581],
  "dcmmeta_slice_dim": 2,
  "dcmmeta_version": 0.6,
  "global": {
    "const": {
      "AcquisitionMatrix": [104, 0, 0, 104],
      "AngioFlag": "N",
      "BitsAllocated": 16,
      "BitsStored": 12,
      "Columns": 936,
      "EchoNumbers": 1,
      "EchoTime": 34.8,
      "EchoTrainLength": 1,
      "FlipAngle": 55.0,
      "HighBit": 11,
      "ImageOrientationPatient": [0.99905450361009, 0.00257885971658, 0.04339871310253, 3.8598379e-08, 0.99823909291692, -0.0593187438539],
      "ImagePositionPatient": [-933.18398761667, -960.16647303446, -62.984425557516],
      "ImageType": [
        "ORIGINAL",
        "PRIMARY",
        "M",
        "MB",
        "ND",
        "MOSAIC"
],
      "ImagedNucleus": "1H",
      "ImagingFrequency": 123.234762,
      "InPlanePhaseEncodingDirection": "COL",
      "MRAcquisitionType": "2D",
      "MagneticFieldStrength": 3.0,
      "Manufacturer": "SIEMENS",
      "ManufacturerModelName": "TrioTim",
      "Modality": "MR",
      "NumberOfAverages": 1.0,
      "NumberOfPhaseEncodingSteps": 91,
      "PercentPhaseFieldOfView": 100.0,
      "PercentSampling": 100.0,
      "PerformedProcedureStepStartTime": "142449.140000",
      "PhotometricInterpretation": "MONOCHROME2",
      "PixelBandwidth": 1923.0,
      "PixelRepresentation": 0,
      "PixelSpacing": [2.0, 2.0],
      "ProtocolName": "cmrr_mbep2d_bold_2mm_MB8_Task_8x",
      "RepetitionTime": 785.0,
      "Rows": 936,
      "SAR": 0.13029956258107,
      "SamplesPerPixel": 1,
      "ScanOptions": [
        "PFP",
        "FS"
],
      "ScanningSequence": "EP",
      "SequenceName": "epfid2d1_104",
      "SequenceVariant": [
        "SK",
        "SS"
],
      "SeriesDescription": "cmrr_mbep2d_bold_2mm_MB8_Task_8x",
      "SeriesNumber": 26,
      "SeriesTime": "181744.890000",
      "SliceLocation": -79.145665498125,
      "SliceThickness": 2.0,
      "SmallestImagePixelValue": 0,
      "SoftwareVersions": "syngo MR B19",
      "SpacingBetweenSlices": 1.9999999678613,
      "SpecificCharacterSet": "ISO_IR 100",
      "StudyID": "1",
      "StudyTime": "142449.125000",
      "TransmitCoilName": "Body",
      "VariableFlipAngleFlag": "N",
      "WindowCenterWidthExplanation": "Algo1",
      "dBdt": 0.0},
    "slices": {}
  },
  "time": {
    "samples": {
      "AcquisitionNumber": [1, 2, 3, 4, 5, 6, 7, 8, 9, 10, 11, 12, 13, 14, 15, 16, 17, 18, 19, 20, 21, 22, 23, 24, 25, 26, 27, 28, 29, 30, 31, 32, 33, 34, 35, 36, 37, 38, 39, 40, 41, 42, 43, 44, 45, 46, 47, 48, 49, 50, 51, 52, 53, 54, 55, 56, 57, 58, 59, 60, 61, 62, 63, 64, 65, 66, 67, 68, 69, 70, 71, 72, 73, 74, 75, 76, 77, 78, 79, 80, 81, 82, 83, 84, 85, 86, 87, 88, 89, 90, 91, 92, 93, 94, 95, 96, 97, 98, 99, 100, 101, 102, 103, 104, 105, 106, 107, 108, 109, 110, 111, 112, 113, 114, 115, 116, 117, 118, 119, 120, 121, 122, 123, 124, 125, 126, 127, 128, 129, 130, 131, 132, 133, 134, 135, 136, 137, 138, 139, 140, 141, 142, 143, 144, 145, 146, 147, 148, 149, 150, 151, 152, 153, 154, 155, 156, 157, 158, 159, 160, 161, 162, 163, 164, 165, 166, 167, 168, 169, 170, 171, 172, 173, 174, 175, 176, 177, 178, 179, 180, 181, 182, 183, 184, 185, 186, 187, 188, 189, 190, 191, 192, 193, 194, 195, 196, 197, 198, 199, 200, 201, 202, 203, 204, 205, 206, 207, 208, 209, 210, 211, 212, 213, 214, 215, 216, 217, 218, 219, 220, 221, 222, 223, 224, 225, 226, 227, 228, 229, 230, 231, 232, 233, 234, 235, 236, 237, 238, 239, 240, 241, 242, 243, 244, 245, 246, 247, 248, 249, 250, 251, 252, 253, 254, 255, 256, 257, 258, 259, 260, 261, 262, 263, 264, 265, 266, 267, 268, 269, 270, 271, 272, 273, 274, 275, 276, 277, 278, 279, 280, 281, 282, 283, 284, 285, 286, 287, 288, 289, 290, 291, 292, 293, 294, 295, 296, 297, 298, 299, 300, 301, 302, 303, 304, 305, 306, 307, 308, 309, 310, 311, 312, 313, 314, 315, 316, 317, 318, 319, 320, 321, 322, 323, 324, 325, 326, 327, 328, 329, 330, 331, 332, 333, 334, 335, 336, 337, 338, 339, 340, 341, 342, 343, 344, 345, 346, 347, 348, 349, 350, 351, 352, 353, 354, 355, 356, 357, 358, 359, 360, 361, 362, 363, 364, 365, 366, 367, 368, 369, 370, 371, 372, 373, 374, 375, 376, 377, 378, 379, 380, 381, 382, 383, 384, 385, 386, 387, 388, 389, 390, 391, 392, 393, 394, 395, 396, 397, 398, 399, 400, 401, 402, 403, 404, 405, 406, 407, 408, 409, 410, 411, 412, 413, 414, 415, 416, 417, 418, 419, 420, 421, 422, 423, 424, 425, 426, 427, 428, 429, 430, 431, 432, 433, 434, 435, 436, 437, 438, 439, 440, 441, 442, 443, 444, 445, 446, 447, 448, 449, 450, 451, 452, 453, 454, 455, 456, 457, 458, 459, 460, 461, 462, 463, 464, 465, 466, 467, 468, 469, 470, 471, 472, 473, 474, 475, 476, 477, 478, 479, 480, 481, 482, 483, 484, 485, 486, 487, 488, 489, 490, 491, 492, 493, 494, 495, 496, 497, 498, 499, 500, 501, 502, 503, 504, 505, 506, 507, 508, 509, 510, 511, 512, 513, 514, 515, 516, 517, 518, 519, 520, 521, 522, 523, 524, 525, 526, 527, 528, 529, 530, 531, 532, 533, 534, 535, 536, 537, 538, 539, 540, 541, 542, 543, 544, 545, 546, 547, 548, 549, 550, 551, 552, 553, 554, 555, 556, 557, 558, 559, 560, 561, 562, 563, 564, 565, 566, 567, 568, 569, 570, 571, 572, 573, 574, 575, 576, 577, 578, 579, 580, 581],
      "AcquisitionTime": ["162833.730000", "162834.520000", "162835.307500", "162836.095000", "162836.882500", "162837.672500", "162838.460000", "162839.247500", "162840.035000", "162840.825000", "162841.612500", "162842.400000", "162843.187500", "162843.977500", "162844.765000", "162845.552500", "162846.340000", "162847.130000", "162847.917500", "162848.705000", "162849.492500", "162850.282500", "162851.070000", "162851.857500", "162852.647500", "162853.435000", "162854.222500", "162855.010000", "162855.800000", "162856.587500", "162857.375000", "162858.162500", "162858.952500", "162859.740000", "162900.527500", "162901.315000", "162902.105000", "162902.892500", "162903.680000", "162904.467500", "162905.257500", "162906.045000", "162906.832500", "162907.620000", "162908.410000", "162909.197500", "162909.985000", "162910.775000", "162911.562500", "162912.350000", "162913.137500", "162913.927500", "162914.715000", "162915.502500", "162916.290000", "162917.080000", "162917.867500", "162918.655000", "162919.442500", "162920.232500", "162921.020000", "162921.807500", "162922.595000", "162923.385000", "162924.172500", "162924.960000", "162925.750000", "162926.537500", "162927.325000", "162928.112500", "162928.902500", "162929.690000", "162930.477500", "162931.265000", "162932.055000", "162932.842500", "162933.630000", "162934.417500", "162935.207500", "162935.995000", "162936.782500", "162937.570000", "162938.360000", "162939.147500", "162939.935000", "162940.722500", "162941.512500", "162942.300000", "162943.087500", "162943.877500", "162944.665000", "162945.452500", "162946.240000", "162947.030000", "162947.817500", "162948.605000", "162949.392500", "162950.182500", "162950.970000", "162951.757500", "162952.545000", "162953.335000", "162954.122500", "162954.910000", "162955.697500", "162956.487500", "162957.275000", "162958.062500", "162958.850000", "162959.640000", "163000.427500", "163001.215000", "163002.005000", "163002.792500", "163003.580000", "163004.367500", "163005.157500", "163005.945000", "163006.732500", "163007.520000", "163008.310000", "163009.097500", "163009.885000", "163010.672500", "163011.462500", "163012.250000", "163013.037500", "163013.825000", "163014.615000", "163015.402500", "163016.190000", "163016.977500", "163017.767500", "163018.555000", "163019.342500", "163020.132500", "163020.920000", "163021.707500", "163022.495000", "163023.285000", "163024.072500", "163024.860000", "163025.647500", "163026.437500", "163027.225000", "163028.012500", "163028.800000", "163029.590000", "163030.377500", "163031.165000", "163031.952500", "163032.742500", "163033.530000", "163034.317500", "163035.105000", "163035.895000", "163036.682500", "163037.470000", "163038.260000", "163039.047500", "163039.835000", "163040.622500", "163041.412500", "163042.200000", "163042.987500", "163043.775000", "163044.565000", "163045.352500", "163046.140000", "163046.927500", "163047.717500", "163048.505000", "163049.292500", "163050.080000", "163050.870000", "163051.657500", "163052.445000", "163053.232500", "163054.022500", "163054.810000", "163055.597500", "163056.387500", "163057.175000", "163057.962500", "163058.750000", "163059.540000", "163100.327500", "163101.115000", "163101.902500", "163102.692500", "163103.480000", "163104.267500", "163105.055000", "163105.845000", "163106.632500", "163107.420000", "163108.207500", "163108.997500", "163109.785000", "163110.572500", "163111.360000", "163112.150000", "163112.937500", "163113.725000", "163114.515000", "163115.302500", "163116.090000", "163116.877500", "163117.667500", "163118.455000", "163119.242500", "163120.030000", "163120.820000", "163121.607500", "163122.395000", "163123.182500", "163123.972500", "163124.760000", "163125.547500", "163126.335000", "163127.125000", "163127.912500", "163128.700000", "163129.487500", "163130.277500", "163131.065000", "163131.852500", "163132.642500", "163133.430000", "163134.217500", "163135.005000", "163135.795000", "163136.582500", "163137.370000", "163138.157500", "163138.947500", "163139.735000", "163140.522500", "163141.310000", "163142.100000", "163142.887500", "163143.675000", "163144.462500", "163145.252500", "163146.040000", "163146.827500", "163147.615000", "163148.405000", "163149.192500", "163149.980000", "163150.770000", "163151.557500", "163152.345000", "163153.132500", "163153.922500", "163154.710000", "163155.497500", "163156.285000", "163157.075000", "163157.862500", "163158.650000", "163159.437500", "163200.227500", "163201.015000", "163201.802500", "163202.590000", "163203.380000", "163204.167500", "163204.955000", "163205.742500", "163206.532500", "163207.320000", "163208.107500", "163208.897500", "163209.685000", "163210.472500", "163211.260000", "163212.050000", "163212.837500", "163213.625000", "163214.412500", "163215.202500", "163215.990000", "163216.777500", "163217.565000", "163218.355000", "163219.142500", "163219.930000", "163220.717500", "163221.507500", "163222.295000", "163223.082500", "163223.870000", "163224.660000", "163225.447500", "163226.235000", "163227.025000", "163227.812500", "163228.600000", "163229.387500", "163230.177500", "163230.965000", "163231.752500", "163232.540000", "163233.330000", "163234.117500", "163234.905000", "163235.692500", "163236.482500", "163237.270000", "163238.057500", "163238.845000", "163239.635000", "163240.422500", "163241.210000", "163242.000000", "163242.787500", "163243.575000", "163244.362500", "163245.152500", "163245.940000", "163246.727500", "163247.515000", "163248.305000", "163249.092500", "163249.880000", "163250.667500", "163251.457500", "163252.245000", "163253.032500", "163253.820000", "163254.610000", "163255.397500", "163256.185000", "163256.972500", "163257.762500", "163258.550000", "163259.337500", "163300.127500", "163300.915000", "163301.702500", "163302.490000", "163303.280000", "163304.067500", "163304.855000", "163305.642500", "163306.432500", "163307.220000", "163308.007500", "163308.795000", "163309.585000", "163310.372500", "163311.160000", "163311.947500", "163312.737500", "163313.525000", "163314.312500", "163315.100000", "163315.890000", "163316.677500", "163317.465000", "163318.255000", "163319.042500", "163319.830000", "163320.617500", "163321.407500", "163322.195000", "163322.982500", "163323.770000", "163324.560000", "163325.347500", "163326.135000", "163326.922500", "163327.712500", "163328.500000", "163329.287500", "163330.075000", "163330.865000", "163331.652500", "163332.440000", "163333.227500", "163334.017500", "163334.805000", "163335.592500", "163336.382500", "163337.170000", "163337.957500", "163338.745000", "163339.535000", "163340.322500", "163341.110000", "163341.897500", "163342.687500", "163343.475000", "163344.262500", "163345.050000", "163345.840000", "163346.627500", "163347.415000", "163348.202500", "163348.992500", "163349.780000", "163350.567500", "163351.355000", "163352.145000", "163352.932500", "163353.720000", "163354.510000", "163355.297500", "163356.085000", "163356.872500", "163357.662500", "163358.450000", "163359.237500", "163400.025000", "163400.815000", "163401.602500", "163402.390000", "163403.177500", "163403.967500", "163404.755000", "163405.542500", "163406.330000", "163407.120000", "163407.907500", "163408.695000", "163409.482500", "163410.272500", "163411.060000", "163411.847500", "163412.637500", "163413.425000", "163414.212500", "163415.000000", "163415.790000", "163416.577500", "163417.365000", "163418.152500", "163418.942500", "163419.730000", "163420.517500", "163421.305000", "163422.095000", "163422.882500", "163423.670000", "163424.457500", "163425.247500", "163426.035000", "163426.822500", "163427.610000", "163428.400000", "163429.187500", "163429.975000", "163430.765000", "163431.552500", "163432.340000", "163433.127500", "163433.917500", "163434.705000", "163435.492500", "163436.280000", "163437.070000", "163437.857500", "163438.645000", "163439.432500", "163440.222500", "163441.010000", "163441.797500", "163442.585000", "163443.375000", "163444.162500", "163444.950000", "163445.737500", "163446.527500", "163447.315000", "163448.102500", "163448.892500", "163449.680000", "163450.467500", "163451.255000", "163452.045000", "163452.832500", "163453.620000", "163454.407500", "163455.197500", "163455.985000", "163456.772500", "163457.560000", "163458.350000", "163459.137500", "163459.925000", "163500.712500", "163501.502500", "163502.290000", "163503.077500", "163503.865000", "163504.655000", "163505.442500", "163506.230000", "163507.020000", "163507.807500", "163508.595000", "163509.382500", "163510.172500", "163510.960000", "163511.747500", "163512.535000", "163513.325000", "163514.112500", "163514.900000", "163515.687500", "163516.477500", "163517.265000", "163518.052500", "163518.840000", "163519.630000", "163520.417500", "163521.205000", "163521.992500", "163522.782500", "163523.570000", "163524.357500", "163525.147500", "163525.935000", "163526.722500", "163527.510000", "163528.300000", "163529.087500", "163529.875000", "163530.662500", "163531.452500", "163532.240000", "163533.027500", "163533.815000", "163534.605000", "163535.392500", "163536.180000", "163536.967500", "163537.757500", "163538.545000", "163539.332500", "163540.120000", "163540.910000", "163541.697500", "163542.485000", "163543.275000", "163544.062500", "163544.850000", "163545.637500", "163546.427500", "163547.215000", "163548.002500", "163548.790000", "163549.580000", "163550.367500", "163551.155000", "163551.942500", "163552.732500", "163553.520000", "163554.307500", "163555.095000", "163555.885000", "163556.672500", "163557.460000", "163558.250000", "163559.037500", "163559.825000", "163600.612500", "163601.402500", "163602.190000", "163602.977500", "163603.765000", "163604.555000", "163605.342500", "163606.130000", "163606.917500", "163607.707500", "163608.495000", "163609.282500", "163610.070000", "163610.860000"],
      "ContentTime": ["181744.890000", "181744.890000", "181744.890000", "181744.890000", "181744.906000", "181744.906000", "181744.906000", "181744.906000", "181844.859000", "181844.859000", "181844.859000", "181844.859000", "181844.875000", "181844.875000", "181844.875000", "181844.875000", "181844.875000", "181844.875000", "181844.890000", "181844.890000", "181844.890000", "181844.890000", "181844.890000", "181844.890000", "181844.906000", "181844.906000", "181844.906000", "181844.906000", "181844.906000", "181844.906000", "181844.906000", "181844.921000", "181844.921000", "181844.921000", "181844.921000", "181844.921000", "181944.859000", "181944.859000", "181944.859000", "181944.859000", "181944.875000", "181944.875000", "181944.875000", "181944.875000", "181944.875000", "181944.875000", "181944.875000", "181944.890000", "181944.890000", "181944.890000", "181944.890000", "181944.890000", "181944.890000", "181944.906000", "181944.906000", "181944.906000", "181944.906000", "181944.906000", "181944.906000", "181944.921000", "181944.921000", "181944.921000", "181944.921000", "181944.921000", "182044.859000", "182044.859000", "182044.859000", "182044.859000", "182044.875000", "182044.875000", "182044.875000", "182044.875000", "182044.875000", "182044.875000", "182044.875000", "182044.890000", "182044.890000", "182044.890000", "182044.890000", "182044.890000", "182044.906000", "182044.906000", "182044.906000", "182044.906000", "182044.906000", "182044.921000", "182044.921000", "182044.921000", "182044.921000", "182044.921000", "182044.937000", "182044.937000", "182044.937000", "182144.859000", "182144.859000", "182144.859000", "182144.859000", "182144.875000", "182144.875000", "182144.875000", "182144.875000", "182144.875000", "182144.875000", "182144.875000", "182144.890000", "182144.890000", "182144.890000", "182144.890000", "182144.890000", "182144.890000", "182144.890000", "182144.906000", "182144.906000", "182144.906000", "182144.921000", "182144.921000", "182144.921000", "182144.921000", "182144.921000", "182144.921000", "182144.921000", "182244.859000", "182244.859000", "182244.859000", "182244.859000", "182244.875000", "182244.875000", "182244.875000", "182244.875000", "182244.875000", "182244.875000", "182244.875000", "182244.890000", "182244.890000", "182244.890000", "182244.890000", "182244.890000", "182244.890000", "182244.890000", "182244.906000", "182244.906000", "182244.906000", "182244.906000", "182244.906000", "182244.906000", "182244.906000", "182244.921000", "182244.921000", "182244.921000", "182344.859000", "182344.859000", "182344.859000", "182344.859000", "182344.875000", "182344.875000", "182344.875000", "182344.875000", "182344.875000", "182344.875000", "182344.875000", "182344.890000", "182344.890000", "182344.890000", "182344.890000", "182344.890000", "182344.890000", "182344.890000", "182344.906000", "182344.906000", "182344.906000", "182344.906000", "182344.906000", "182344.906000", "182344.906000", "182344.921000", "182344.921000", "182344.921000", "182444.859000", "182444.859000", "182444.859000", "182444.859000", "182444.875000", "182444.875000", "182444.875000", "182444.875000", "182444.875000", "182444.875000", "182444.875000", "182444.890000", "182444.890000", "182444.890000", "182444.890000", "182444.890000", "182444.890000", "182444.906000", "182444.906000", "182444.906000", "182444.906000", "182444.906000", "182444.906000", "182444.906000", "182444.921000", "182444.921000", "182444.921000", "182444.921000", "182444.921000", "182544.859000", "182544.859000", "182544.859000", "182544.859000", "182544.875000", "182544.875000", "182544.875000", "182544.875000", "182544.875000", "182544.890000", "182544.890000", "182544.890000", "182544.890000", "182544.890000", "182544.890000", "182544.890000", "182544.906000", "182544.906000", "182544.906000", "182544.906000", "182544.906000", "182544.906000", "182544.906000", "182544.921000", "182544.921000", "182544.921000", "182544.921000", "182544.921000", "182644.859000", "182644.859000", "182644.859000", "182644.859000", "182644.875000", "182644.875000", "182644.875000", "182644.875000", "182644.875000", "182644.875000", "182644.875000", "182644.890000", "182644.890000", "182644.890000", "182644.890000", "182644.890000", "182644.890000", "182644.906000", "182644.906000", "182644.906000", "182644.906000", "182644.906000", "182644.906000", "182644.921000", "182644.921000", "182644.921000", "182644.921000", "182644.921000", "182744.859000", "182744.859000", "182744.859000", "182744.859000", "182744.875000", "182744.875000", "182744.875000", "182744.875000", "182744.875000", "182744.890000", "182744.890000", "182744.890000", "182744.890000", "182744.890000", "182744.906000", "182744.906000", "182744.906000", "182744.906000", "182744.906000", "182744.906000", "182744.906000", "182744.921000", "182744.921000", "182744.921000", "182744.921000", "182744.921000", "182744.921000", "182744.921000", "182744.937000", "182824.859000", "182824.859000", "182824.859000", "182824.859000", "182824.875000", "182824.875000", "182824.875000", "182824.875000", "182824.875000", "182824.875000", "182824.875000", "182824.890000", "182824.890000", "182824.890000", "182824.890000", "182824.890000", "182824.890000", "182824.890000", "182824.906000", "182924.859000", "182924.859000", "182924.859000", "182924.859000", "182924.875000", "182924.875000", "182924.875000", "182924.875000", "182924.875000", "182924.875000", "182924.875000", "182924.890000", "182924.890000", "182924.890000", "182924.890000", "182924.890000", "182924.890000", "182924.890000", "182924.906000", "182924.906000", "182924.906000", "182924.906000", "182924.906000", "182924.921000", "182924.921000", "182924.921000", "182924.921000", "182924.921000", "183024.859000", "183024.859000", "183024.859000", "183024.859000", "183024.875000", "183024.875000", "183024.875000", "183024.875000", "183024.875000", "183024.875000", "183024.875000", "183024.890000", "183024.890000", "183024.890000", "183024.890000", "183024.890000", "183024.890000", "183024.890000", "183024.906000", "183024.906000", "183024.906000", "183024.906000", "183024.906000", "183024.906000", "183024.906000", "183024.921000", "183024.921000", "183024.921000", "183124.859000", "183124.859000", "183124.859000", "183124.859000", "183124.875000", "183124.875000", "183124.875000", "183124.875000", "183124.875000", "183124.890000", "183124.890000", "183124.890000", "183124.890000", "183124.890000", "183124.890000", "183124.890000", "183124.906000", "183124.906000", "183124.906000", "183124.906000", "183124.906000", "183124.921000", "183124.921000", "183124.921000", "183124.921000", "183124.921000", "183124.921000", "183124.921000", "183224.859000", "183224.859000", "183224.859000", "183224.859000", "183224.875000", "183224.875000", "183224.875000", "183224.875000", "183224.875000", "183224.890000", "183224.890000", "183224.890000", "183224.890000", "183224.890000", "183224.890000", "183224.890000", "183224.906000", "183224.906000", "183224.906000", "183224.906000", "183224.906000", "183224.906000", "183224.921000", "183224.921000", "183224.921000", "183224.921000", "183224.921000", "183224.921000", "183224.937000", "183324.859000", "183324.859000", "183324.859000", "183324.859000", "183324.875000", "183324.875000", "183324.875000", "183324.875000", "183324.875000", "183324.875000", "183324.875000", "183324.890000", "183324.890000", "183324.890000", "183324.890000", "183324.890000", "183324.890000", "183324.890000", "183324.906000", "183324.906000", "183324.906000", "183324.906000", "183324.906000", "183324.906000", "183324.921000", "183324.921000", "183324.921000", "183324.921000", "183424.859000", "183424.859000", "183424.859000", "183424.859000", "183424.875000", "183424.875000", "183424.875000", "183424.875000", "183424.875000", "183424.875000", "183424.875000", "183424.890000", "183424.890000", "183424.890000", "183424.890000", "183424.890000", "183424.890000", "183424.890000", "183424.906000", "183424.906000", "183424.906000", "183424.906000", "183424.906000", "183424.906000", "183424.921000", "183424.921000", "183424.921000", "183424.921000", "183524.859000", "183524.859000", "183524.859000", "183524.859000", "183524.875000", "183524.875000", "183524.875000", "183524.875000", "183524.875000", "183524.875000", "183524.875000", "183524.890000", "183524.890000", "183524.890000", "183524.890000", "183524.890000", "183524.890000", "183524.890000", "183524.906000", "183524.906000", "183524.906000", "183524.906000", "183524.906000", "183524.906000", "183524.906000", "183524.921000", "183524.921000", "183524.921000", "183524.921000", "183624.859000", "183624.859000", "183624.859000", "183624.859000", "183624.875000", "183624.875000", "183624.875000", "183624.875000", "183624.875000", "183624.875000", "183624.875000", "183624.890000", "183624.890000", "183624.890000", "183624.890000", "183624.890000", "183624.890000", "183624.890000", "183624.906000", "183624.906000", "183624.906000", "183624.906000", "183624.906000", "183624.906000", "183624.906000", "183624.921000", "183624.921000", "183624.921000", "183724.859000", "183724.859000", "183724.859000", "183724.859000", "183724.875000", "183724.875000", "183724.875000", "183724.875000", "183724.875000", "183724.875000", "183724.875000", "183724.890000", "183724.890000", "183724.890000", "183724.890000", "183724.890000", "183724.890000", "183724.890000", "183724.906000", "183724.906000", "183724.906000", "183724.906000", "183724.906000", "183724.906000", "183724.921000", "183724.921000", "183724.921000", "183724.921000", "183759.062000", "183759.062000", "183759.062000", "183759.062000", "183759.078000", "183759.078000", "183759.078000", "183759.078000", "183759.078000", "183759.093000", "183759.093000", "183759.093000", "183759.093000", "183759.109000", "183759.109000", "183759.109000", "183759.109000"],
      "DataSetTrailingPadding": [
        "\u0000\u0000\u0000\u0000\u0000\u0000\u0000\u0000\u0000\u0000\u0000\u0000\u0000\u0000\u0000\u0000",
        "\u0000\u0000\u0000\u0000\u0000\u0000\u0000\u0000\u0000\u0000\u0000\u0000\u0000\u0000\u0000\u0000\u0000\u0000",
        "\u0000\u0000\u0000\u0000\u0000\u0000\u0000\u0000\u0000\u0000\u0000\u0000\u0000\u0000\u0000\u0000",
        "\u0000\u0000\u0000\u0000\u0000\u0000\u0000\u0000\u0000\u0000\u0000\u0000\u0000\u0000",
        "\u0000\u0000\u0000\u0000\u0000\u0000\u0000\u0000\u0000\u0000\u0000\u0000\u0000\u0000\u0000\u0000",
        "\u0000\u0000\u0000\u0000\u0000\u0000\u0000\u0000\u0000\u0000\u0000\u0000\u0000\u0000\u0000\u0000\u0000\u0000",
        "\u0000\u0000\u0000\u0000\u0000\u0000\u0000\u0000\u0000\u0000\u0000\u0000\u0000\u0000",
        "\u0000\u0000\u0000\u0000\u0000\u0000\u0000\u0000\u0000\u0000\u0000\u0000\u0000\u0000\u0000\u0000",
        "\u0000\u0000\u0000\u0000\u0000\u0000\u0000\u0000\u0000\u0000\u0000\u0000\u0000\u0000",
        "\u0000\u0000\u0000\u0000\u0000\u0000\u0000\u0000\u0000\u0000",
        "\u0000\u0000\u0000\u0000\u0000\u0000\u0000\u0000\u0000\u0000\u0000\u0000",
        "\u0000\u0000\u0000\u0000\u0000\u0000\u0000\u0000\u0000\u0000",
        "\u0000\u0000\u0000\u0000\u0000\u0000\u0000\u0000\u0000\u0000\u0000\u0000",
        "\u0000\u0000\u0000\u0000\u0000\u0000\u0000\u0000\u0000\u0000\u0000\u0000",
        "\u0000\u0000\u0000\u0000\u0000\u0000\u0000\u0000\u0000\u0000",
        "\u0000\u0000\u0000\u0000\u0000\u0000\u0000\u0000\u0000\u0000\u0000\u0000",
        "\u0000\u0000\u0000\u0000\u0000\u0000\u0000\u0000\u0000\u0000",
        "\u0000\u0000\u0000\u0000\u0000\u0000\u0000\u0000\u0000\u0000",
        "\u0000\u0000\u0000\u0000\u0000\u0000\u0000\u0000\u0000\u0000\u0000\u0000",
        "\u0000\u0000\u0000\u0000\u0000\u0000\u0000\u0000\u0000\u0000",
        "\u0000\u0000\u0000\u0000\u0000\u0000\u0000\u0000\u0000\u0000\u0000\u0000",
        "\u0000\u0000\u0000\u0000\u0000\u0000\u0000\u0000\u0000\u0000\u0000\u0000",
