{
  "AcquisitionMatrixPE": 104,
  "AcquisitionNumber": 1,
  "AcquisitionTime": "16:36:39.730000",
  "BandwidthPerPixelPhaseEncode": 13.935,
  "BaseResolution": 104,
  "CoilString": "C:HEA;HEP",
  "ConversionSoftware": "dcm2niix",
  "ConversionSoftwareVersion": "v1.0.20210317",
  "DerivedVendorReportedEchoSpacing": 0.000690017,
  "DeviceSerialNumber": "35450",
  "DwellTime": 2.5e-06,
  "EchoTime": 0.0348,
  "EffectiveEchoSpacing": 0.000690017,
  "FlipAngle": 55,
  "ImageComments": "Unaliased MB8/PE3",
  "ImageOrientationPatientDICOM": [0.999054, 0.00257886, 0.0433987, 3.85984e-08, 0.998239, -0.0593187],
  "ImageType": [
    "ORIGINAL",
    "PRIMARY",
    "M",
    "MB",
    "ND",
    "MOSAIC"
],
  "ImagingFrequency": 123.235,
  "InPlanePhaseEncodingDirectionDICOM": "COL",
  "InstitutionAddress": "Univeristy Ave. 197,Newark,North East,US,07102-1814",
  "InstitutionName": "RUBIC",
  "InstitutionalDepartmentName": "Department",
  "MRAcquisitionType": "2D",
  "MagneticFieldStrength": 3,
  "Manufacturer": "Siemens",
  "ManufacturersModelName": "TrioTim",
  "Modality": "MR",
  "MultibandAccelerationFactor": 8,
  "PartialFourier": 0.875,
  "PatientPosition": "HFS",
  "PercentPhaseFOV": 100,
  "PercentSampling": 100,
  "PhaseEncodingDirection": "j-",
  "PhaseEncodingSteps": 91,
  "PhaseResolution": 1,
  "PixelBandwidth": 1923,
  "ProcedureStepDescription": "Cole^Michael",
  "ProtocolName": "cmrr_mbep2d_bold_2mm_MB8_Task_8x",
  "PulseSequenceDetails": "%CustomerSeq%\\cmrr_mbep2d_bold",
  "ReceiveCoilName": "32Ch_Head",
  "ReconMatrixPE": 104,
  "RepetitionTime": 0.785,
  "SAR": 0.1303,
  "ScanOptions": "PFP\\FS",
  "ScanningSequence": "EP",
  "SequenceName": "epfid2d1_104",
  "SequenceVariant": "SK\\SS",
  "SeriesDescription": "cmrr_mbep2d_bold_2mm_MB8_Task_8x",
  "SeriesNumber": 28,
  "ShimSetting": [2153, -430, -7320, 664, 165, -322, 291, -77],
  "SliceThickness": 2,
  "SliceTiming": [0, 0.4375, 0.0875, 0.525, 0.175, 0.6125, 0.2625, 0.7, 0.35, 0, 0.4375, 0.0875, 0.525, 0.175, 0.6125, 0.2625, 0.7, 0.35, 0, 0.4375, 0.0875, 0.525, 0.175, 0.6125, 0.2625, 0.7, 0.35, 0, 0.4375, 0.0875, 0.525, 0.175, 0.6125, 0.2625, 0.7, 0.35, 0, 0.4375, 0.0875, 0.525, 0.175, 0.6125, 0.2625, 0.7, 0.35, 0, 0.4375, 0.0875, 0.525, 0.175, 0.6125, 0.2625, 0.7, 0.35, 0, 0.4375, 0.0875, 0.525, 0.175, 0.6125, 0.2625, 0.7, 0.35, 0, 0.4375, 0.0875, 0.525, 0.175, 0.6125, 0.2625, 0.7, 0.35],
  "SoftwareVersions": "syngo MR B19",
  "SpacingBetweenSlices": 2,
  "StationName": "MRC35450",
  "TaskName": "cpro",
  "TotalReadoutTime": 0.0710717,
  "TxRefAmp": 325.804,
  "dcmmeta_affine": [
    [-1.998108983039856, 7.719675920725422e-08, 0.08695053309202194, 101.9706039428711],
    [-0.005157719366252422, 1.9964781999588013, -0.11852531880140305, -78.15131378173828],
    [0.08679742366075516, 0.11863748729228973, 1.9945905208587646, -88.44955444335938],
    [0.0, 0.0, 0.0, 1.0]
],
  "dcmmeta_reorient_transform": [
    [0.0, -1.0, 0.0, 103.0],
    [1.0, 0.0, 0.0, 0.0],
    [0.0, 0.0, 1.0, 0.0],
    [0.0, 0.0, 0.0, 1.0]
],
  "dcmmeta_shape": [104, 104, 72, 581],
  "dcmmeta_slice_dim": 2,
  "dcmmeta_version": 0.6,
  "global": {
    "const": {
      "AcquisitionMatrix": [104, 0, 0, 104],
      "AngioFlag": "N",
      "BitsAllocated": 16,
      "BitsStored": 12,
      "Columns": 936,
      "EchoNumbers": 1,
      "EchoTime": 34.8,
      "EchoTrainLength": 1,
      "FlipAngle": 55.0,
      "HighBit": 11,
      "ImageOrientationPatient": [0.99905450361009, 0.00257885971658, 0.04339871310253, 3.8598379e-08, 0.99823909291692, -0.0593187438539],
      "ImagePositionPatient": [-933.18398761667, -960.16647303446, -62.984425557516],
      "ImageType": [
        "ORIGINAL",
        "PRIMARY",
        "M",
        "MB",
        "ND",
        "MOSAIC"
],
      "ImagedNucleus": "1H",
      "ImagingFrequency": 123.234762,
      "InPlanePhaseEncodingDirection": "COL",
      "MRAcquisitionType": "2D",
      "MagneticFieldStrength": 3.0,
      "Manufacturer": "SIEMENS",
      "ManufacturerModelName": "TrioTim",
      "Modality": "MR",
      "NumberOfAverages": 1.0,
      "NumberOfPhaseEncodingSteps": 91,
      "PercentPhaseFieldOfView": 100.0,
      "PercentSampling": 100.0,
      "PerformedProcedureStepStartTime": "142449.140000",
      "PhotometricInterpretation": "MONOCHROME2",
      "PixelBandwidth": 1923.0,
      "PixelRepresentation": 0,
      "PixelSpacing": [2.0, 2.0],
      "ProtocolName": "cmrr_mbep2d_bold_2mm_MB8_Task_8x",
      "RepetitionTime": 785.0,
      "Rows": 936,
      "SAR": 0.13029956258107,
      "SamplesPerPixel": 1,
      "ScanOptions": [
        "PFP",
        "FS"
],
      "ScanningSequence": "EP",
      "SequenceName": "epfid2d1_104",
      "SequenceVariant": [
        "SK",
        "SS"
],
      "SeriesDescription": "cmrr_mbep2d_bold_2mm_MB8_Task_8x",
      "SeriesNumber": 28,
      "SeriesTime": "183828.281000",
      "SliceLocation": -79.145665498125,
      "SliceThickness": 2.0,
      "SmallestImagePixelValue": 0,
      "SoftwareVersions": "syngo MR B19",
      "SpacingBetweenSlices": 1.9999999678613,
      "SpecificCharacterSet": "ISO_IR 100",
      "StudyID": "1",
      "StudyTime": "142449.125000",
      "TransmitCoilName": "Body",
      "VariableFlipAngleFlag": "N",
      "WindowCenterWidthExplanation": "Algo1",
      "dBdt": 0.0},
    "slices": {}
  },
  "time": {
    "samples": {
      "AcquisitionNumber": [1, 2, 3, 4, 5, 6, 7, 8, 9, 10, 11, 12, 13, 14, 15, 16, 17, 18, 19, 20, 21, 22, 23, 24, 25, 26, 27, 28, 29, 30, 31, 32, 33, 34, 35, 36, 37, 38, 39, 40, 41, 42, 43, 44, 45, 46, 47, 48, 49, 50, 51, 52, 53, 54, 55, 56, 57, 58, 59, 60, 61, 62, 63, 64, 65, 66, 67, 68, 69, 70, 71, 72, 73, 74, 75, 76, 77, 78, 79, 80, 81, 82, 83, 84, 85, 86, 87, 88, 89, 90, 91, 92, 93, 94, 95, 96, 97, 98, 99, 100, 101, 102, 103, 104, 105, 106, 107, 108, 109, 110, 111, 112, 113, 114, 115, 116, 117, 118, 119, 120, 121, 122, 123, 124, 125, 126, 127, 128, 129, 130, 131, 132, 133, 134, 135, 136, 137, 138, 139, 140, 141, 142, 143, 144, 145, 146, 147, 148, 149, 150, 151, 152, 153, 154, 155, 156, 157, 158, 159, 160, 161, 162, 163, 164, 165, 166, 167, 168, 169, 170, 171, 172, 173, 174, 175, 176, 177, 178, 179, 180, 181, 182, 183, 184, 185, 186, 187, 188, 189, 190, 191, 192, 193, 194, 195, 196, 197, 198, 199, 200, 201, 202, 203, 204, 205, 206, 207, 208, 209, 210, 211, 212, 213, 214, 215, 216, 217, 218, 219, 220, 221, 222, 223, 224, 225, 226, 227, 228, 229, 230, 231, 232, 233, 234, 235, 236, 237, 238, 239, 240, 241, 242, 243, 244, 245, 246, 247, 248, 249, 250, 251, 252, 253, 254, 255, 256, 257, 258, 259, 260, 261, 262, 263, 264, 265, 266, 267, 268, 269, 270, 271, 272, 273, 274, 275, 276, 277, 278, 279, 280, 281, 282, 283, 284, 285, 286, 287, 288, 289, 290, 291, 292, 293, 294, 295, 296, 297, 298, 299, 300, 301, 302, 303, 304, 305, 306, 307, 308, 309, 310, 311, 312, 313, 314, 315, 316, 317, 318, 319, 320, 321, 322, 323, 324, 325, 326, 327, 328, 329, 330, 331, 332, 333, 334, 335, 336, 337, 338, 339, 340, 341, 342, 343, 344, 345, 346, 347, 348, 349, 350, 351, 352, 353, 354, 355, 356, 357, 358, 359, 360, 361, 362, 363, 364, 365, 366, 367, 368, 369, 370, 371, 372, 373, 374, 375, 376, 377, 378, 379, 380, 381, 382, 383, 384, 385, 386, 387, 388, 389, 390, 391, 392, 393, 394, 395, 396, 397, 398, 399, 400, 401, 402, 403, 404, 405, 406, 407, 408, 409, 410, 411, 412, 413, 414, 415, 416, 417, 418, 419, 420, 421, 422, 423, 424, 425, 426, 427, 428, 429, 430, 431, 432, 433, 434, 435, 436, 437, 438, 439, 440, 441, 442, 443, 444, 445, 446, 447, 448, 449, 450, 451, 452, 453, 454, 455, 456, 457, 458, 459, 460, 461, 462, 463, 464, 465, 466, 467, 468, 469, 470, 471, 472, 473, 474, 475, 476, 477, 478, 479, 480, 481, 482, 483, 484, 485, 486, 487, 488, 489, 490, 491, 492, 493, 494, 495, 496, 497, 498, 499, 500, 501, 502, 503, 504, 505, 506, 507, 508, 509, 510, 511, 512, 513, 514, 515, 516, 517, 518, 519, 520, 521, 522, 523, 524, 525, 526, 527, 528, 529, 530, 531, 532, 533, 534, 535, 536, 537, 538, 539, 540, 541, 542, 543, 544, 545, 546, 547, 548, 549, 550, 551, 552, 553, 554, 555, 556, 557, 558, 559, 560, 561, 562, 563, 564, 565, 566, 567, 568, 569, 570, 571, 572, 573, 574, 575, 576, 577, 578, 579, 580, 581],
      "AcquisitionTime": ["163639.730000", "163640.517500", "163641.305000", "163642.092500", "163642.882500", "163643.670000", "163644.457500", "163645.245000", "163646.035000", "163646.822500", "163647.610000", "163648.400000", "163649.187500", "163649.975000", "163650.762500", "163651.552500", "163652.340000", "163653.127500", "163653.915000", "163654.705000", "163655.492500", "163656.280000", "163657.067500", "163657.857500", "163658.645000", "163659.432500", "163700.220000", "163701.010000", "163701.797500", "163702.585000", "163703.372500", "163704.162500", "163704.950000", "163705.737500", "163706.527500", "163707.315000", "163708.102500", "163708.890000", "163709.680000", "163710.467500", "163711.255000", "163712.042500", "163712.832500", "163713.620000", "163714.407500", "163715.195000", "163715.985000", "163716.772500", "163717.560000", "163718.347500", "163719.137500", "163719.925000", "163720.712500", "163721.500000", "163722.290000", "163723.077500", "163723.865000", "163724.655000", "163725.442500", "163726.230000", "163727.017500", "163727.807500", "163728.595000", "163729.382500", "163730.170000", "163730.960000", "163731.747500", "163732.535000", "163733.322500", "163734.112500", "163734.900000", "163735.687500", "163736.475000", "163737.265000", "163738.052500", "163738.840000", "163739.630000", "163740.417500", "163741.205000", "163741.992500", "163742.782500", "163743.570000", "163744.357500", "163745.145000", "163745.935000", "163746.722500", "163747.510000", "163748.297500", "163749.087500", "163749.875000", "163750.662500", "163751.450000", "163752.240000", "163753.027500", "163753.815000", "163754.602500", "163755.392500", "163756.180000", "163756.967500", "163757.757500", "163758.545000", "163759.332500", "163800.120000", "163800.910000", "163801.697500", "163802.485000", "163803.272500", "163804.062500", "163804.850000", "163805.637500", "163806.425000", "163807.215000", "163808.002500", "163808.790000", "163809.577500", "163810.367500", "163811.155000", "163811.942500", "163812.730000", "163813.520000", "163814.307500", "163815.095000", "163815.885000", "163816.672500", "163817.460000", "163818.247500", "163819.037500", "163819.825000", "163820.612500", "163821.400000", "163822.190000", "163822.977500", "163823.765000", "163824.552500", "163825.342500", "163826.130000", "163826.917500", "163827.705000", "163828.495000", "163829.282500", "163830.070000", "163830.857500", "163831.647500", "163832.435000", "163833.222500", "163834.012500", "163834.800000", "163835.587500", "163836.375000", "163837.165000", "163837.952500", "163838.740000", "163839.527500", "163840.317500", "163841.105000", "163841.892500", "163842.680000", "163843.470000", "163844.257500", "163845.045000", "163845.832500", "163846.622500", "163847.410000", "163848.197500", "163848.985000", "163849.775000", "163850.562500", "163851.350000", "163852.140000", "163852.927500", "163853.715000", "163854.502500", "163855.292500", "163856.080000", "163856.867500", "163857.655000", "163858.445000", "163859.232500", "163900.020000", "163900.807500", "163901.597500", "163902.385000", "163903.172500", "163903.960000", "163904.750000", "163905.537500", "163906.325000", "163907.112500", "163907.902500", "163908.690000", "163909.477500", "163910.267500", "163911.055000", "163911.842500", "163912.630000", "163913.420000", "163914.207500", "163914.995000", "163915.782500", "163916.572500", "163917.360000", "163918.147500", "163918.935000", "163919.725000", "163920.512500", "163921.300000", "163922.087500", "163922.877500", "163923.665000", "163924.452500", "163925.240000", "163926.030000", "163926.817500", "163927.605000", "163928.395000", "163929.182500", "163929.970000", "163930.757500", "163931.547500", "163932.335000", "163933.122500", "163933.910000", "163934.700000", "163935.487500", "163936.275000", "163937.062500", "163937.852500", "163938.640000", "163939.427500", "163940.215000", "163941.005000", "163941.792500", "163942.580000", "163943.367500", "163944.157500", "163944.945000", "163945.732500", "163946.522500", "163947.310000", "163948.097500", "163948.885000", "163949.675000", "163950.462500", "163951.250000", "163952.037500", "163952.827500", "163953.615000", "163954.402500", "163955.190000", "163955.980000", "163956.767500", "163957.555000", "163958.342500", "163959.132500", "163959.920000", "164000.707500", "164001.495000", "164002.285000", "164003.072500", "164003.860000", "164004.650000", "164005.437500", "164006.225000", "164007.012500", "164007.802500", "164008.590000", "164009.377500", "164010.165000", "164010.955000", "164011.742500", "164012.530000", "164013.317500", "164014.107500", "164014.895000", "164015.682500", "164016.470000", "164017.260000", "164018.047500", "164018.835000", "164019.622500", "164020.412500", "164021.200000", "164021.987500", "164022.777500", "164023.565000", "164024.352500", "164025.140000", "164025.930000", "164026.717500", "164027.505000", "164028.292500", "164029.082500", "164029.870000", "164030.657500", "164031.445000", "164032.235000", "164033.022500", "164033.810000", "164034.597500", "164035.387500", "164036.175000", "164036.962500", "164037.750000", "164038.540000", "164039.327500", "164040.115000", "164040.905000", "164041.692500", "164042.480000", "164043.267500", "164044.057500", "164044.845000", "164045.632500", "164046.420000", "164047.210000", "164047.997500", "164048.785000", "164049.572500", "164050.362500", "164051.150000", "164051.937500", "164052.725000", "164053.515000", "164054.302500", "164055.090000", "164055.880000", "164056.667500", "164057.455000", "164058.242500", "164059.032500", "164059.820000", "164100.607500", "164101.395000", "164102.185000", "164102.972500", "164103.760000", "164104.547500", "164105.337500", "164106.125000", "164106.912500", "164107.700000", "164108.490000", "164109.277500", "164110.065000", "164110.852500", "164111.642500", "164112.430000", "164113.217500", "164114.007500", "164114.795000", "164115.582500", "164116.370000", "164117.160000", "164117.947500", "164118.735000", "164119.522500", "164120.312500", "164121.100000", "164121.887500", "164122.675000", "164123.465000", "164124.252500", "164125.040000", "164125.827500", "164126.617500", "164127.405000", "164128.192500", "164128.980000", "164129.770000", "164130.557500", "164131.345000", "164132.135000", "164132.922500", "164133.710000", "164134.497500", "164135.287500", "164136.075000", "164136.862500", "164137.650000", "164138.440000", "164139.227500", "164140.015000", "164140.802500", "164141.592500", "164142.380000", "164143.167500", "164143.955000", "164144.745000", "164145.532500", "164146.320000", "164147.107500", "164147.897500", "164148.685000", "164149.472500", "164150.262500", "164151.050000", "164151.837500", "164152.625000", "164153.415000", "164154.202500", "164154.990000", "164155.777500", "164156.567500", "164157.355000", "164158.142500", "164158.930000", "164159.720000", "164200.507500", "164201.295000", "164202.082500", "164202.872500", "164203.660000", "164204.447500", "164205.235000", "164206.025000", "164206.812500", "164207.600000", "164208.390000", "164209.177500", "164209.965000", "164210.752500", "164211.542500", "164212.330000", "164213.117500", "164213.905000", "164214.695000", "164215.482500", "164216.270000", "164217.057500", "164217.847500", "164218.635000", "164219.422500", "164220.210000", "164221.000000", "164221.787500", "164222.575000", "164223.362500", "164224.152500", "164224.940000", "164225.727500", "164226.517500", "164227.305000", "164228.092500", "164228.880000", "164229.670000", "164230.457500", "164231.245000", "164232.032500", "164232.822500", "164233.610000", "164234.397500", "164235.185000", "164235.975000", "164236.762500", "164237.550000", "164238.337500", "164239.127500", "164239.915000", "164240.702500", "164241.490000", "164242.280000", "164243.067500", "164243.855000", "164244.645000", "164245.432500", "164246.220000", "164247.007500", "164247.797500", "164248.585000", "164249.372500", "164250.160000", "164250.950000", "164251.737500", "164252.525000", "164253.312500", "164254.102500", "164254.890000", "164255.677500", "164256.465000", "164257.255000", "164258.042500", "164258.830000", "164259.617500", "164300.407500", "164301.195000", "164301.982500", "164302.772500", "164303.560000", "164304.347500", "164305.135000", "164305.925000", "164306.712500", "164307.500000", "164308.287500", "164309.077500", "164309.865000", "164310.652500", "164311.440000", "164312.230000", "164313.017500", "164313.805000", "164314.592500", "164315.382500", "164316.170000", "164316.957500", "164317.745000", "164318.535000", "164319.322500", "164320.110000", "164320.900000", "164321.687500", "164322.475000", "164323.262500", "164324.052500", "164324.840000", "164325.627500", "164326.415000", "164327.205000", "164327.992500", "164328.780000", "164329.567500", "164330.357500", "164331.145000", "164331.932500", "164332.720000", "164333.510000", "164334.297500", "164335.085000", "164335.872500", "164336.662500", "164337.450000", "164338.237500", "164339.027500", "164339.815000", "164340.602500", "164341.390000", "164342.180000", "164342.967500", "164343.755000", "164344.542500", "164345.332500", "164346.120000", "164346.907500", "164347.695000", "164348.485000", "164349.272500", "164350.060000", "164350.847500", "164351.637500", "164352.425000", "164353.212500", "164354.000000", "164354.790000", "164355.577500", "164356.365000", "164357.155000", "164357.942500", "164358.730000", "164359.517500", "164400.307500", "164401.095000", "164401.882500", "164402.670000", "164403.460000", "164404.247500", "164405.035000", "164405.822500", "164406.612500", "164407.400000", "164408.187500", "164408.975000", "164409.765000", "164410.552500", "164411.340000", "164412.130000", "164412.917500", "164413.705000", "164414.492500", "164415.282500", "164416.070000", "164416.857500"],
      "ContentTime": ["183828.296000", "183828.296000", "183828.296000", "183828.296000", "183828.296000", "183828.296000", "183928.265000", "183928.265000", "183928.265000", "183928.265000", "183928.281000", "183928.281000", "183928.281000", "183928.281000", "183928.281000", "183928.281000", "183928.281000", "183928.296000", "183928.296000", "183928.296000", "183928.296000", "183928.296000", "183928.296000", "183928.296000", "183928.312000", "183928.312000", "183928.312000", "183928.312000", "183928.312000", "183928.312000", "183928.312000", "183928.312000", "183928.328000", "183928.328000", "184028.265000", "184028.265000", "184028.265000", "184028.265000", "184028.281000", "184028.281000", "184028.281000", "184028.281000", "184028.281000", "184028.281000", "184028.281000", "184028.296000", "184028.296000", "184028.296000", "184028.296000", "184028.296000", "184028.296000", "184028.312000", "184028.312000", "184028.312000", "184028.312000", "184028.312000", "184028.312000", "184028.312000", "184028.328000", "184028.328000", "184028.328000", "184028.328000", "184128.265000", "184128.265000", "184128.265000", "184128.265000", "184128.281000", "184128.281000", "184128.281000", "184128.281000", "184128.281000", "184128.281000", "184128.281000", "184128.296000", "184128.296000", "184128.296000", "184128.296000", "184128.296000", "184128.312000", "184128.312000", "184128.312000", "184128.312000", "184128.312000", "184128.312000", "184128.312000", "184128.328000", "184128.328000", "184128.328000", "184128.328000", "184128.328000", "184128.328000", "184228.265000", "184228.265000", "184228.265000", "184228.265000", "184228.281000", "184228.281000", "184228.281000", "184228.281000", "184228.281000", "184228.281000", "184228.281000", "184228.296000", "184228.296000", "184228.296000", "184228.296000", "184228.296000", "184228.296000", "184228.296000", "184228.312000", "184228.312000", "184228.312000", "184228.312000", "184228.312000", "184228.328000", "184228.328000", "184228.328000", "184228.328000", "184228.328000", "184328.265000", "184328.265000", "184328.265000", "184328.265000", "184328.281000", "184328.281000", "184328.281000", "184328.281000", "184328.281000", "184328.281000", "184328.281000", "184328.296000", "184328.296000", "184328.296000", "184328.296000", "184328.296000", "184328.296000", "184328.296000", "184328.312000", "184328.312000", "184328.312000", "184328.312000", "184328.312000", "184328.328000", "184328.328000", "184328.328000", "184328.328000", "184328.328000", "184428.265000", "184428.265000", "184428.265000", "184428.265000", "184428.281000", "184428.281000", "184428.281000", "184428.281000", "184428.281000", "184428.281000", "184428.281000", "184428.296000", "184428.296000", "184428.296000", "184428.296000", "184428.296000", "184428.296000", "184428.296000", "184428.312000", "184428.312000", "184428.312000", "184428.312000", "184428.312000", "184428.312000", "184428.328000", "184428.328000", "184428.328000", "184428.328000", "184528.265000", "184528.265000", "184528.265000", "184528.265000", "184528.281000", "184528.281000", "184528.281000", "184528.281000", "184528.281000", "184528.281000", "184528.281000", "184528.296000", "184528.296000", "184528.296000", "184528.296000", "184528.296000", "184528.296000", "184528.296000", "184528.312000", "184528.312000", "184528.312000", "184528.312000", "184528.312000", "184528.312000", "184528.312000", "184528.328000", "184528.328000", "184528.328000", "184528.328000", "184628.265000", "184628.265000", "184628.265000", "184628.265000", "184628.281000", "184628.281000", "184628.281000", "184628.281000", "184628.281000", "184628.281000", "184628.281000", "184628.296000", "184628.296000", "184628.296000", "184628.296000", "184628.296000", "184628.296000", "184628.296000", "184628.312000", "184628.312000", "184628.312000", "184628.312000", "184628.312000", "184628.312000", "184628.328000", "184628.328000", "184628.328000", "184628.328000", "184728.265000", "184728.265000", "184728.265000", "184728.265000", "184728.281000", "184728.281000", "184728.281000", "184728.281000", "184728.281000", "184728.281000", "184728.296000", "184728.296000", "184728.296000", "184728.296000", "184728.296000", "184728.296000", "184728.296000", "184728.312000", "184728.312000", "184728.312000", "184728.312000", "184728.312000", "184728.312000", "184728.328000", "184728.328000", "184728.328000", "184728.328000", "184728.328000", "184808.265000", "184808.265000", "184808.265000", "184808.265000", "184808.281000", "184808.281000", "184808.281000", "184808.281000", "184808.281000", "184808.281000", "184808.281000", "184808.296000", "184808.296000", "184808.296000", "184808.296000", "184808.296000", "184808.296000", "184808.296000", "184808.312000", "184908.265000", "184908.265000", "184908.265000", "184908.265000", "184908.281000", "184908.281000", "184908.281000", "184908.281000", "184908.281000", "184908.281000", "184908.281000", "184908.296000", "184908.296000", "184908.296000", "184908.312000", "184908.312000", "184908.312000", "184908.312000", "184908.328000", "184908.328000", "184908.328000", "184908.328000", "184908.328000", "184908.328000", "184908.328000", "184908.343000", "184908.343000", "184908.343000", "185008.265000", "185008.265000", "185008.265000", "185008.265000", "185008.281000", "185008.281000", "185008.281000", "185008.281000", "185008.281000", "185008.281000", "185008.281000", "185008.296000", "185008.296000", "185008.296000", "185008.296000", "185008.296000", "185008.296000", "185008.296000", "185008.312000", "185008.312000", "185008.312000", "185008.312000", "185008.312000", "185008.312000", "185008.328000", "185008.328000", "185008.328000", "185008.328000", "185108.265000", "185108.265000", "185108.281000", "185108.281000", "185108.281000", "185108.281000", "185108.281000", "185108.281000", "185108.296000", "185108.296000", "185108.296000", "185108.296000", "185108.296000", "185108.296000", "185108.296000", "185108.312000", "185108.312000", "185108.312000", "185108.312000", "185108.312000", "185108.312000", "185108.312000", "185108.328000", "185108.328000", "185108.328000", "185108.328000", "185108.328000", "185108.328000", "185208.265000", "185208.265000", "185208.265000", "185208.265000", "185208.281000", "185208.281000", "185208.281000", "185208.281000", "185208.281000", "185208.281000", "185208.281000", "185208.296000", "185208.296000", "185208.296000", "185208.296000", "185208.296000", "185208.296000", "185208.296000", "185208.312000", "185208.312000", "185208.312000", "185208.312000", "185208.312000", "185208.312000", "185208.312000", "185208.328000", "185208.328000", "185208.328000", "185208.328000", "185308.265000", "185308.265000", "185308.265000", "185308.265000", "185308.281000", "185308.281000", "185308.281000", "185308.281000", "185308.281000", "185308.296000", "185308.296000", "185308.296000", "185308.296000", "185308.296000", "185308.296000", "185308.312000", "185308.312000", "185308.312000", "185308.312000", "185308.312000", "185308.312000", "185308.312000", "185308.328000", "185308.328000", "185308.328000", "185308.328000", "185308.328000", "185308.328000", "185408.265000", "185408.265000", "185408.265000", "185408.265000", "185408.281000", "185408.281000", "185408.281000", "185408.281000", "185408.281000", "185408.281000", "185408.281000", "185408.296000", "185408.296000", "185408.296000", "185408.296000", "185408.296000", "185408.296000", "185408.296000", "185408.312000", "185408.312000", "185408.312000", "185408.312000", "185408.312000", "185408.312000", "185408.312000", "185408.328000", "185408.328000", "185408.328000", "185508.265000", "185508.265000", "185508.265000", "185508.265000", "185508.281000", "185508.281000", "185508.281000", "185508.281000", "185508.281000", "185508.281000", "185508.281000", "185508.296000", "185508.296000", "185508.296000", "185508.296000", "185508.296000", "185508.296000", "185508.296000", "185508.312000", "185508.312000", "185508.312000", "185508.312000", "185508.312000", "185508.312000", "185508.312000", "185508.328000", "185508.328000", "185508.328000", "185608.265000", "185608.265000", "185608.265000", "185608.265000", "185608.281000", "185608.281000", "185608.281000", "185608.281000", "185608.281000", "185608.281000", "185608.281000", "185608.296000", "185608.296000", "185608.296000", "185608.296000", "185608.296000", "185608.296000", "185608.296000", "185608.312000", "185608.312000", "185608.312000", "185608.312000", "185608.312000", "185608.312000", "185608.312000", "185608.328000", "185608.328000", "185608.328000", "185708.265000", "185708.265000", "185708.265000", "185708.265000", "185708.281000", "185708.281000", "185708.281000", "185708.281000", "185708.281000", "185708.281000", "185708.281000", "185708.296000", "185708.296000", "185708.296000", "185708.296000", "185708.312000", "185708.312000", "185708.312000", "185708.312000", "185708.312000", "185708.312000", "185708.312000", "185708.328000", "185708.328000", "185708.328000", "185708.328000", "185708.328000", "185708.328000", "185808.265000", "185808.265000", "185808.265000", "185808.265000", "185808.281000", "185808.281000", "185808.281000", "185808.281000", "185808.281000", "185808.281000", "185808.281000", "185808.296000", "185808.296000", "185808.296000", "185808.296000", "185808.296000", "185808.296000", "185808.296000", "185808.312000", "185808.312000", "185808.312000", "185808.312000", "185808.312000", "185808.328000", "185808.328000", "185808.328000", "185808.328000", "185808.328000", "185808.328000", "185849.937000", "185849.937000", "185849.937000", "185849.937000", "185849.953000", "185849.953000", "185849.953000", "185849.953000", "185849.953000", "185849.953000", "185849.968000", "185849.968000", "185849.968000", "185849.968000", "185849.968000", "185849.968000", "185849.968000", "185849.984000", "185849.984000", "185849.984000"],
      "DataSetTrailingPadding": [
        "\u0000\u0000\u0000\u0000\u0000\u0000\u0000\u0000\u0000\u0000\u0000\u0000\u0000\u0000\u0000\u0000\u0000\u0000",
        "\u0000\u0000\u0000\u0000\u0000\u0000\u0000\u0000\u0000\u0000\u0000\u0000\u0000\u0000",
        "\u0000\u0000\u0000\u0000\u0000\u0000\u0000\u0000\u0000\u0000\u0000\u0000\u0000\u0000\u0000\u0000",
        "\u0000\u0000\u0000\u0000\u0000\u0000\u0000\u0000\u0000\u0000\u0000\u0000\u0000\u0000",
        "\u0000\u0000\u0000\u0000\u0000\u0000\u0000\u0000\u0000\u0000\u0000\u0000\u0000\u0000",
        "\u0000\u0000\u0000\u0000\u0000\u0000\u0000\u0000\u0000\u0000\u0000\u0000\u0000\u0000\u0000\u0000\u0000\u0000",
        "\u0000\u0000\u0000\u0000\u0000\u0000\u0000\u0000\u0000\u0000\u0000\u0000\u0000\u0000",
        "\u0000\u0000\u0000\u0000\u0000\u0000\u0000\u0000\u0000\u0000\u0000\u0000\u0000\u0000\u0000\u0000",
        "\u0000\u0000\u0000\u0000\u0000\u0000\u0000\u0000\u0000\u0000\u0000\u0000\u0000\u0000\u0000\u0000",
        "\u0000\u0000\u0000\u0000\u0000\u0000\u0000\u0000\u0000\u0000",
        "\u0000\u0000\u0000\u0000\u0000\u0000\u0000\u0000\u0000\u0000\u0000\u0000",
        "\u0000\u0000\u0000\u0000\u0000\u0000\u0000\u0000\u0000\u0000\u0000\u0000",
        "\u0000\u0000\u0000\u0000\u0000\u0000\u0000\u0000\u0000\u0000",
        "\u0000\u0000\u0000\u0000\u0000\u0000\u0000\u0000\u0000\u0000\u0000\u0000",
        "\u0000\u0000\u0000\u0000\u0000\u0000\u0000\u0000\u0000\u0000",
        "\u0000\u0000\u0000\u0000\u0000\u0000\u0000\u0000\u0000\u0000",
        "\u0000\u0000\u0000\u0000\u0000\u0000\u0000\u0000\u0000\u0000\u0000\u0000",
        "\u0000\u0000\u0000\u0000\u0000\u0000\u0000\u0000\u0000\u0000",
        "\u0000\u0000\u0000\u0000\u0000\u0000\u0000\u0000\u0000\u0000\u0000\u0000",
        "\u0000\u0000\u0000\u0000\u0000\u0000\u0000\u0000\u0000\u0000\u0000\u0000",
        "\u0000\u0000\u0000\u0000\u0000\u0000\u0000\u0000\u0000\u0000",
        "\u0000\u0000\u0000\u0000\u0000\u0000\u0000\u0000\u0000\u0000\u0000\u0000",
