{
  "AcquisitionMatrixPE": 104,
  "AcquisitionNumber": 1,
  "AcquisitionTime": "15:40:14.190000",
  "BandwidthPerPixelPhaseEncode": 13.935,
  "BaseResolution": 104,
  "CoilString": "C:HEA;HEP",
  "ConversionSoftware": "dcm2niix",
  "ConversionSoftwareVersion": "v1.0.20210317",
  "DerivedVendorReportedEchoSpacing": 0.000690017,
  "DeviceSerialNumber": "35450",
  "DwellTime": 2.5e-06,
  "EchoTime": 0.0348,
  "EffectiveEchoSpacing": 0.000690017,
  "FlipAngle": 55,
  "ImageComments": "Unaliased MB8/PE3",
  "ImageOrientationPatientDICOM": [0.999054, 0.00257886, 0.0433987, 3.85984e-08, 0.998239, -0.0593187],
  "ImageType": [
    "ORIGINAL",
    "PRIMARY",
    "M",
    "MB",
    "ND",
    "MOSAIC"
],
  "ImagingFrequency": 123.235,
  "InPlanePhaseEncodingDirectionDICOM": "COL",
  "InstitutionAddress": "Univeristy Ave. 197,Newark,North East,US,07102-1814",
  "InstitutionName": "RUBIC",
  "InstitutionalDepartmentName": "Department",
  "MRAcquisitionType": "2D",
  "MagneticFieldStrength": 3,
  "Manufacturer": "Siemens",
  "ManufacturersModelName": "TrioTim",
  "Modality": "MR",
  "MultibandAccelerationFactor": 8,
  "PartialFourier": 0.875,
  "PatientPosition": "HFS",
  "PercentPhaseFOV": 100,
  "PercentSampling": 100,
  "PhaseEncodingDirection": "j-",
  "PhaseEncodingSteps": 91,
  "PhaseResolution": 1,
  "PixelBandwidth": 1923,
  "ProcedureStepDescription": "Cole^Michael",
  "ProtocolName": "cmrr_mbep2d_bold_2mm_MB8_Task_8x",
  "PulseSequenceDetails": "%CustomerSeq%\\cmrr_mbep2d_bold",
  "ReceiveCoilName": "32Ch_Head",
  "ReconMatrixPE": 104,
  "RepetitionTime": 0.785,
  "SAR": 0.128114,
  "ScanOptions": "PFP\\FS",
  "ScanningSequence": "EP",
  "SequenceName": "epfid2d1_104",
  "SequenceVariant": "SK\\SS",
  "SeriesDescription": "cmrr_mbep2d_bold_2mm_MB8_Task_8x",
  "SeriesNumber": 14,
  "ShimSetting": [2153, -430, -7320, 664, 165, -322, 291, -77],
  "SliceThickness": 2,
  "SliceTiming": [0, 0.4375, 0.0875, 0.525, 0.175, 0.6125, 0.2625, 0.7, 0.35, 0, 0.4375, 0.0875, 0.525, 0.175, 0.6125, 0.2625, 0.7, 0.35, 0, 0.4375, 0.0875, 0.525, 0.175, 0.6125, 0.2625, 0.7, 0.35, 0, 0.4375, 0.0875, 0.525, 0.175, 0.6125, 0.2625, 0.7, 0.35, 0, 0.4375, 0.0875, 0.525, 0.175, 0.6125, 0.2625, 0.7, 0.35, 0, 0.4375, 0.0875, 0.525, 0.175, 0.6125, 0.2625, 0.7, 0.35, 0, 0.4375, 0.0875, 0.525, 0.175, 0.6125, 0.2625, 0.7, 0.35, 0, 0.4375, 0.0875, 0.525, 0.175, 0.6125, 0.2625, 0.7, 0.35],
  "SoftwareVersions": "syngo MR B19",
  "SpacingBetweenSlices": 2,
  "StationName": "MRC35450",
  "TaskName": "cpro",
  "TotalReadoutTime": 0.0710717,
  "TxRefAmp": 325.804,
  "dcmmeta_affine": [
    [-1.998108983039856, 7.719675920725422e-08, 0.08695053309202194, 101.9706039428711],
    [-0.005157719366252422, 1.9964781999588013, -0.11852531880140305, -78.15131378173828],
    [0.08679742366075516, 0.11863748729228973, 1.9945905208587646, -88.44955444335938],
    [0.0, 0.0, 0.0, 1.0]
],
  "dcmmeta_reorient_transform": [
    [0.0, -1.0, 0.0, 103.0],
    [1.0, 0.0, 0.0, 0.0],
    [0.0, 0.0, 1.0, 0.0],
    [0.0, 0.0, 0.0, 1.0]
],
  "dcmmeta_shape": [104, 104, 72, 581],
  "dcmmeta_slice_dim": 2,
  "dcmmeta_version": 0.6,
  "global": {
    "const": {
      "AcquisitionMatrix": [104, 0, 0, 104],
      "AngioFlag": "N",
      "BitsAllocated": 16,
      "BitsStored": 12,
      "Columns": 936,
      "EchoNumbers": 1,
      "EchoTime": 34.8,
      "EchoTrainLength": 1,
      "FlipAngle": 55.0,
      "HighBit": 11,
      "ImageOrientationPatient": [0.99905450361009, 0.00257885971658, 0.04339871310253, 3.8598379e-08, 0.99823909291692, -0.0593187438539],
      "ImagePositionPatient": [-933.18398761667, -960.16647303446, -62.984425557516],
      "ImageType": [
        "ORIGINAL",
        "PRIMARY",
        "M",
        "MB",
        "ND",
        "MOSAIC"
],
      "ImagedNucleus": "1H",
      "ImagingFrequency": 123.234762,
      "InPlanePhaseEncodingDirection": "COL",
      "MRAcquisitionType": "2D",
      "MagneticFieldStrength": 3.0,
      "Manufacturer": "SIEMENS",
      "ManufacturerModelName": "TrioTim",
      "Modality": "MR",
      "NumberOfAverages": 1.0,
      "NumberOfPhaseEncodingSteps": 91,
      "PercentPhaseFieldOfView": 100.0,
      "PercentSampling": 100.0,
      "PerformedProcedureStepStartTime": "142449.140000",
      "PhotometricInterpretation": "MONOCHROME2",
      "PixelBandwidth": 1923.0,
      "PixelRepresentation": 0,
      "PixelSpacing": [2.0, 2.0],
      "ProtocolName": "cmrr_mbep2d_bold_2mm_MB8_Task_8x",
      "RepetitionTime": 785.0,
      "Rows": 936,
      "SAR": 0.12811376015408,
      "SamplesPerPixel": 1,
      "ScanOptions": [
        "PFP",
        "FS"
],
      "ScanningSequence": "EP",
      "SequenceName": "epfid2d1_104",
      "SequenceVariant": [
        "SK",
        "SS"
],
      "SeriesDescription": "cmrr_mbep2d_bold_2mm_MB8_Task_8x",
      "SeriesNumber": 14,
      "SeriesTime": "161128.281000",
      "SliceLocation": -79.145665498125,
      "SliceThickness": 2.0,
      "SmallestImagePixelValue": 0,
      "SoftwareVersions": "syngo MR B19",
      "SpacingBetweenSlices": 1.9999999678613,
      "SpecificCharacterSet": "ISO_IR 100",
      "StudyID": "1",
      "StudyTime": "142449.125000",
      "TransmitCoilName": "Body",
      "VariableFlipAngleFlag": "N",
      "WindowCenterWidthExplanation": "Algo1",
      "dBdt": 0.0},
    "slices": {}
  },
  "time": {
    "samples": {
      "AcquisitionNumber": [1, 2, 3, 4, 5, 6, 7, 8, 9, 10, 11, 12, 13, 14, 15, 16, 17, 18, 19, 20, 21, 22, 23, 24, 25, 26, 27, 28, 29, 30, 31, 32, 33, 34, 35, 36, 37, 38, 39, 40, 41, 42, 43, 44, 45, 46, 47, 48, 49, 50, 51, 52, 53, 54, 55, 56, 57, 58, 59, 60, 61, 62, 63, 64, 65, 66, 67, 68, 69, 70, 71, 72, 73, 74, 75, 76, 77, 78, 79, 80, 81, 82, 83, 84, 85, 86, 87, 88, 89, 90, 91, 92, 93, 94, 95, 96, 97, 98, 99, 100, 101, 102, 103, 104, 105, 106, 107, 108, 109, 110, 111, 112, 113, 114, 115, 116, 117, 118, 119, 120, 121, 122, 123, 124, 125, 126, 127, 128, 129, 130, 131, 132, 133, 134, 135, 136, 137, 138, 139, 140, 141, 142, 143, 144, 145, 146, 147, 148, 149, 150, 151, 152, 153, 154, 155, 156, 157, 158, 159, 160, 161, 162, 163, 164, 165, 166, 167, 168, 169, 170, 171, 172, 173, 174, 175, 176, 177, 178, 179, 180, 181, 182, 183, 184, 185, 186, 187, 188, 189, 190, 191, 192, 193, 194, 195, 196, 197, 198, 199, 200, 201, 202, 203, 204, 205, 206, 207, 208, 209, 210, 211, 212, 213, 214, 215, 216, 217, 218, 219, 220, 221, 222, 223, 224, 225, 226, 227, 228, 229, 230, 231, 232, 233, 234, 235, 236, 237, 238, 239, 240, 241, 242, 243, 244, 245, 246, 247, 248, 249, 250, 251, 252, 253, 254, 255, 256, 257, 258, 259, 260, 261, 262, 263, 264, 265, 266, 267, 268, 269, 270, 271, 272, 273, 274, 275, 276, 277, 278, 279, 280, 281, 282, 283, 284, 285, 286, 287, 288, 289, 290, 291, 292, 293, 294, 295, 296, 297, 298, 299, 300, 301, 302, 303, 304, 305, 306, 307, 308, 309, 310, 311, 312, 313, 314, 315, 316, 317, 318, 319, 320, 321, 322, 323, 324, 325, 326, 327, 328, 329, 330, 331, 332, 333, 334, 335, 336, 337, 338, 339, 340, 341, 342, 343, 344, 345, 346, 347, 348, 349, 350, 351, 352, 353, 354, 355, 356, 357, 358, 359, 360, 361, 362, 363, 364, 365, 366, 367, 368, 369, 370, 371, 372, 373, 374, 375, 376, 377, 378, 379, 380, 381, 382, 383, 384, 385, 386, 387, 388, 389, 390, 391, 392, 393, 394, 395, 396, 397, 398, 399, 400, 401, 402, 403, 404, 405, 406, 407, 408, 409, 410, 411, 412, 413, 414, 415, 416, 417, 418, 419, 420, 421, 422, 423, 424, 425, 426, 427, 428, 429, 430, 431, 432, 433, 434, 435, 436, 437, 438, 439, 440, 441, 442, 443, 444, 445, 446, 447, 448, 449, 450, 451, 452, 453, 454, 455, 456, 457, 458, 459, 460, 461, 462, 463, 464, 465, 466, 467, 468, 469, 470, 471, 472, 473, 474, 475, 476, 477, 478, 479, 480, 481, 482, 483, 484, 485, 486, 487, 488, 489, 490, 491, 492, 493, 494, 495, 496, 497, 498, 499, 500, 501, 502, 503, 504, 505, 506, 507, 508, 509, 510, 511, 512, 513, 514, 515, 516, 517, 518, 519, 520, 521, 522, 523, 524, 525, 526, 527, 528, 529, 530, 531, 532, 533, 534, 535, 536, 537, 538, 539, 540, 541, 542, 543, 544, 545, 546, 547, 548, 549, 550, 551, 552, 553, 554, 555, 556, 557, 558, 559, 560, 561, 562, 563, 564, 565, 566, 567, 568, 569, 570, 571, 572, 573, 574, 575, 576, 577, 578, 579, 580, 581],
      "AcquisitionTime": ["154014.190000", "154014.977500", "154015.765000", "154016.552500", "154017.342500", "154018.130000", "154018.917500", "154019.705000", "154020.495000", "154021.282500", "154022.070000", "154022.857500", "154023.647500", "154024.435000", "154025.222500", "154026.010000", "154026.800000", "154027.587500", "154028.375000", "154029.165000", "154029.952500", "154030.740000", "154031.527500", "154032.317500", "154033.105000", "154033.892500", "154034.680000", "154035.470000", "154036.257500", "154037.045000", "154037.832500", "154038.622500", "154039.410000", "154040.197500", "154040.985000", "154041.775000", "154042.562500", "154043.350000", "154044.137500", "154044.927500", "154045.715000", "154046.502500", "154047.292500", "154048.080000", "154048.867500", "154049.655000", "154050.445000", "154051.232500", "154052.020000", "154052.807500", "154053.597500", "154054.385000", "154055.172500", "154055.960000", "154056.750000", "154057.537500", "154058.325000", "154059.112500", "154059.902500", "154100.690000", "154101.477500", "154102.265000", "154103.055000", "154103.842500", "154104.630000", "154105.420000", "154106.207500", "154106.995000", "154107.782500", "154108.572500", "154109.360000", "154110.147500", "154110.935000", "154111.725000", "154112.512500", "154113.300000", "154114.087500", "154114.877500", "154115.665000", "154116.452500", "154117.240000", "154118.030000", "154118.817500", "154119.605000", "154120.392500", "154121.182500", "154121.970000", "154122.757500", "154123.547500", "154124.335000", "154125.122500", "154125.910000", "154126.700000", "154127.487500", "154128.275000", "154129.062500", "154129.852500", "154130.640000", "154131.427500", "154132.215000", "154133.005000", "154133.792500", "154134.580000", "154135.367500", "154136.157500", "154136.945000", "154137.732500", "154138.520000", "154139.310000", "154140.097500", "154140.885000", "154141.675000", "154142.462500", "154143.250000", "154144.037500", "154144.827500", "154145.615000", "154146.402500", "154147.190000", "154147.980000", "154148.767500", "154149.555000", "154150.342500", "154151.132500", "154151.920000", "154152.707500", "154153.495000", "154154.285000", "154155.072500", "154155.860000", "154156.647500", "154157.437500", "154158.225000", "154159.012500", "154159.802500", "154200.590000", "154201.377500", "154202.165000", "154202.955000", "154203.742500", "154204.530000", "154205.317500", "154206.107500", "154206.895000", "154207.682500", "154208.470000", "154209.260000", "154210.047500", "154210.835000", "154211.622500", "154212.412500", "154213.200000", "154213.987500", "154214.777500", "154215.565000", "154216.352500", "154217.140000", "154217.930000", "154218.717500", "154219.505000", "154220.292500", "154221.082500", "154221.870000", "154222.657500", "154223.445000", "154224.235000", "154225.022500", "154225.810000", "154226.597500", "154227.387500", "154228.175000", "154228.962500", "154229.750000", "154230.540000", "154231.327500", "154232.115000", "154232.905000", "154233.692500", "154234.480000", "154235.267500", "154236.057500", "154236.845000", "154237.632500", "154238.420000", "154239.210000", "154239.997500", "154240.785000", "154241.572500", "154242.362500", "154243.150000", "154243.937500", "154244.725000", "154245.515000", "154246.302500", "154247.090000", "154247.877500", "154248.667500", "154249.455000", "154250.242500", "154251.032500", "154251.820000", "154252.607500", "154253.395000", "154254.185000", "154254.972500", "154255.760000", "154256.547500", "154257.337500", "154258.125000", "154258.912500", "154259.700000", "154300.490000", "154301.277500", "154302.065000", "154302.852500", "154303.642500", "154304.430000", "154305.217500", "154306.005000", "154306.795000", "154307.582500", "154308.370000", "154309.160000", "154309.947500", "154310.735000", "154311.522500", "154312.312500", "154313.100000", "154313.887500", "154314.675000", "154315.465000", "154316.252500", "154317.040000", "154317.827500", "154318.617500", "154319.405000", "154320.192500", "154320.980000", "154321.770000", "154322.557500", "154323.345000", "154324.132500", "154324.922500", "154325.710000", "154326.497500", "154327.287500", "154328.075000", "154328.862500", "154329.650000", "154330.440000", "154331.227500", "154332.015000", "154332.802500", "154333.592500", "154334.380000", "154335.167500", "154335.955000", "154336.745000", "154337.532500", "154338.320000", "154339.107500", "154339.897500", "154340.685000", "154341.472500", "154342.260000", "154343.050000", "154343.837500", "154344.625000", "154345.415000", "154346.202500", "154346.990000", "154347.777500", "154348.567500", "154349.355000", "154350.142500", "154350.930000", "154351.720000", "154352.507500", "154353.295000", "154354.082500", "154354.872500", "154355.660000", "154356.447500", "154357.235000", "154358.025000", "154358.812500", "154359.600000", "154400.387500", "154401.177500", "154401.965000", "154402.752500", "154403.542500", "154404.330000", "154405.117500", "154405.905000", "154406.695000", "154407.482500", "154408.270000", "154409.057500", "154409.847500", "154410.635000", "154411.422500", "154412.210000", "154413.000000", "154413.787500", "154414.575000", "154415.362500", "154416.152500", "154416.940000", "154417.727500", "154418.515000", "154419.305000", "154420.092500", "154420.880000", "154421.670000", "154422.457500", "154423.245000", "154424.032500", "154424.822500", "154425.610000", "154426.397500", "154427.185000", "154427.975000", "154428.762500", "154429.550000", "154430.337500", "154431.127500", "154431.915000", "154432.702500", "154433.490000", "154434.280000", "154435.067500", "154435.855000", "154436.642500", "154437.432500", "154438.220000", "154439.007500", "154439.797500", "154440.585000", "154441.372500", "154442.160000", "154442.950000", "154443.737500", "154444.525000", "154445.312500", "154446.102500", "154446.890000", "154447.677500", "154448.465000", "154449.255000", "154450.042500", "154450.830000", "154451.617500", "154452.407500", "154453.195000", "154453.982500", "154454.770000", "154455.560000", "154456.347500", "154457.135000", "154457.925000", "154458.712500", "154459.500000", "154500.287500", "154501.077500", "154501.865000", "154502.652500", "154503.440000", "154504.230000", "154505.017500", "154505.805000", "154506.592500", "154507.382500", "154508.170000", "154508.957500", "154509.745000", "154510.535000", "154511.322500", "154512.110000", "154512.897500", "154513.687500", "154514.475000", "154515.262500", "154516.052500", "154516.840000", "154517.627500", "154518.415000", "154519.205000", "154519.992500", "154520.780000", "154521.567500", "154522.357500", "154523.145000", "154523.932500", "154524.720000", "154525.510000", "154526.297500", "154527.085000", "154527.872500", "154528.662500", "154529.450000", "154530.237500", "154531.027500", "154531.815000", "154532.602500", "154533.390000", "154534.180000", "154534.967500", "154535.755000", "154536.542500", "154537.332500", "154538.120000", "154538.907500", "154539.695000", "154540.485000", "154541.272500", "154542.060000", "154542.847500", "154543.637500", "154544.425000", "154545.212500", "154546.000000", "154546.790000", "154547.577500", "154548.365000", "154549.155000", "154549.942500", "154550.730000", "154551.517500", "154552.307500", "154553.095000", "154553.882500", "154554.670000", "154555.460000", "154556.247500", "154557.035000", "154557.822500", "154558.612500", "154559.400000", "154600.187500", "154600.975000", "154601.765000", "154602.552500", "154603.340000", "154604.127500", "154604.917500", "154605.705000", "154606.492500", "154607.282500", "154608.070000", "154608.857500", "154609.645000", "154610.435000", "154611.222500", "154612.010000", "154612.797500", "154613.587500", "154614.375000", "154615.162500", "154615.950000", "154616.740000", "154617.527500", "154618.315000", "154619.102500", "154619.892500", "154620.680000", "154621.467500", "154622.255000", "154623.045000", "154623.832500", "154624.620000", "154625.410000", "154626.197500", "154626.985000", "154627.772500", "154628.562500", "154629.350000", "154630.137500", "154630.925000", "154631.715000", "154632.502500", "154633.290000", "154634.077500", "154634.867500", "154635.655000", "154636.442500", "154637.230000", "154638.020000", "154638.807500", "154639.595000", "154640.382500", "154641.172500", "154641.960000", "154642.747500", "154643.537500", "154644.325000", "154645.112500", "154645.900000", "154646.690000", "154647.477500", "154648.265000", "154649.052500", "154649.842500", "154650.630000", "154651.417500", "154652.205000", "154652.995000", "154653.782500", "154654.570000", "154655.357500", "154656.147500", "154656.935000", "154657.722500", "154658.510000", "154659.300000", "154700.087500", "154700.875000", "154701.665000", "154702.452500", "154703.240000", "154704.027500", "154704.817500", "154705.605000", "154706.392500", "154707.180000", "154707.970000", "154708.757500", "154709.545000", "154710.332500", "154711.122500", "154711.910000", "154712.697500", "154713.485000", "154714.275000", "154715.062500", "154715.850000", "154716.637500", "154717.427500", "154718.215000", "154719.002500", "154719.792500", "154720.580000", "154721.367500", "154722.155000", "154722.945000", "154723.732500", "154724.520000", "154725.307500", "154726.097500", "154726.885000", "154727.672500", "154728.460000", "154729.250000", "154730.037500", "154730.825000", "154731.612500", "154732.402500", "154733.190000", "154733.977500", "154734.765000", "154735.555000", "154736.342500", "154737.130000", "154737.920000", "154738.707500", "154739.495000", "154740.282500", "154741.072500", "154741.860000", "154742.647500", "154743.435000", "154744.225000", "154745.012500", "154745.800000", "154746.587500", "154747.377500", "154748.165000", "154748.952500", "154749.740000", "154750.530000", "154751.317500"],
      "ContentTime": ["161128.281000", "161128.281000", "161128.296000", "161128.296000", "161128.296000", "161128.296000", "161228.265000", "161228.265000", "161228.265000", "161228.265000", "161228.281000", "161228.281000", "161228.281000", "161228.281000", "161228.281000", "161228.281000", "161228.281000", "161228.296000", "161228.296000", "161228.296000", "161228.296000", "161228.296000", "161228.296000", "161228.312000", "161228.312000", "161228.312000", "161228.312000", "161228.312000", "161228.312000", "161228.312000", "161228.328000", "161228.328000", "161228.328000", "161228.328000", "161328.265000", "161328.265000", "161328.265000", "161328.265000", "161328.281000", "161328.281000", "161328.281000", "161328.281000", "161328.281000", "161328.281000", "161328.281000", "161328.296000", "161328.296000", "161328.296000", "161328.296000", "161328.296000", "161328.296000", "161328.296000", "161328.312000", "161328.312000", "161328.312000", "161328.312000", "161328.312000", "161328.312000", "161328.312000", "161328.328000", "161328.328000", "161428.265000", "161428.265000", "161428.265000", "161428.265000", "161428.281000", "161428.281000", "161428.281000", "161428.281000", "161428.281000", "161428.281000", "161428.281000", "161428.296000", "161428.296000", "161428.296000", "161428.296000", "161428.296000", "161428.296000", "161428.296000", "161428.312000", "161428.312000", "161428.312000", "161428.312000", "161428.312000", "161428.312000", "161428.312000", "161428.328000", "161428.328000", "161428.328000", "161528.265000", "161528.265000", "161528.265000", "161528.265000", "161528.281000", "161528.281000", "161528.281000", "161528.281000", "161528.281000", "161528.281000", "161528.281000", "161528.296000", "161528.296000", "161528.296000", "161528.296000", "161528.296000", "161528.296000", "161528.296000", "161528.312000", "161528.312000", "161528.312000", "161528.312000", "161528.312000", "161528.312000", "161528.312000", "161528.328000", "161528.328000", "161628.265000", "161628.265000", "161628.265000", "161628.265000", "161628.281000", "161628.281000", "161628.281000", "161628.281000", "161628.281000", "161628.281000", "161628.281000", "161628.296000", "161628.296000", "161628.296000", "161628.296000", "161628.296000", "161628.296000", "161628.296000", "161628.312000", "161628.312000", "161628.312000", "161628.312000", "161628.312000", "161628.328000", "161628.328000", "161628.328000", "161628.328000", "161728.265000", "161728.265000", "161728.265000", "161728.281000", "161728.281000", "161728.281000", "161728.281000", "161728.281000", "161728.281000", "161728.281000", "161728.296000", "161728.296000", "161728.296000", "161728.296000", "161728.296000", "161728.296000", "161728.312000", "161728.312000", "161728.312000", "161728.312000", "161728.312000", "161728.312000", "161728.312000", "161728.328000", "161728.328000", "161728.328000", "161728.328000", "161728.328000", "161808.265000", "161808.265000", "161808.265000", "161808.265000", "161808.281000", "161808.281000", "161808.281000", "161808.281000", "161808.281000", "161808.281000", "161808.281000", "161808.296000", "161808.296000", "161808.296000", "161808.296000", "161808.296000", "161808.296000", "161808.296000", "161908.265000", "161908.265000", "161908.265000", "161908.265000", "161908.281000", "161908.281000", "161908.281000", "161908.281000", "161908.281000", "161908.281000", "161908.281000", "161908.296000", "161908.296000", "161908.296000", "161908.296000", "161908.296000", "161908.296000", "161908.296000", "161908.312000", "161908.312000", "161908.312000", "161908.312000", "161908.312000", "161908.312000", "161908.312000", "161908.328000", "161908.328000", "162008.265000", "162008.265000", "162008.265000", "162008.265000", "162008.281000", "162008.281000", "162008.281000", "162008.281000", "162008.296000", "162008.296000", "162008.296000", "162008.296000", "162008.296000", "162008.296000", "162008.296000", "162008.312000", "162008.312000", "162008.312000", "162008.312000", "162008.312000", "162008.312000", "162008.312000", "162008.328000", "162008.328000", "162008.328000", "162008.328000", "162008.328000", "162008.343000", "162108.265000", "162108.265000", "162108.265000", "162108.265000", "162108.265000", "162108.265000", "162108.281000", "162108.281000", "162108.281000", "162108.281000", "162108.281000", "162108.281000", "162108.281000", "162108.296000", "162108.296000", "162108.296000", "162108.296000", "162108.296000", "162108.296000", "162108.296000", "162108.312000", "162108.312000", "162108.312000", "162108.312000", "162108.312000", "162108.312000", "162108.312000", "162208.265000", "162208.265000", "162208.265000", "162208.265000", "162208.265000", "162208.265000", "162208.281000", "162208.281000", "162208.281000", "162208.281000", "162208.281000", "162208.281000", "162208.281000", "162208.296000", "162208.296000", "162208.296000", "162208.296000", "162208.296000", "162208.296000", "162208.296000", "162208.312000", "162208.312000", "162208.312000", "162208.312000", "162208.312000", "162208.312000", "162208.312000", "162208.328000", "162308.265000", "162308.265000", "162308.265000", "162308.265000", "162308.265000", "162308.265000", "162308.281000", "162308.281000", "162308.281000", "162308.281000", "162308.281000", "162308.281000", "162308.281000", "162308.296000", "162308.296000", "162308.296000", "162308.296000", "162308.296000", "162308.296000", "162308.296000", "162308.312000", "162308.312000", "162308.312000", "162308.312000", "162308.312000", "162308.312000", "162308.312000", "162408.265000", "162408.265000", "162408.265000", "162408.265000", "162408.265000", "162408.265000", "162408.281000", "162408.281000", "162408.281000", "162408.281000", "162408.281000", "162408.296000", "162408.296000", "162408.296000", "162408.312000", "162408.312000", "162408.312000", "162408.312000", "162408.312000", "162408.312000", "162408.312000", "162408.328000", "162408.328000", "162408.328000", "162408.328000", "162408.328000", "162408.328000", "162508.265000", "162508.265000", "162508.265000", "162508.265000", "162508.265000", "162508.265000", "162508.281000", "162508.281000", "162508.281000", "162508.281000", "162508.281000", "162508.281000", "162508.281000", "162508.296000", "162508.296000", "162508.296000", "162508.296000", "162508.296000", "162508.296000", "162508.296000", "162508.312000", "162508.312000", "162508.312000", "162508.312000", "162508.328000", "162508.328000", "162508.328000", "162508.328000", "162608.265000", "162608.265000", "162608.265000", "162608.265000", "162608.265000", "162608.265000", "162608.281000", "162608.281000", "162608.281000", "162608.281000", "162608.281000", "162608.281000", "162608.281000", "162608.296000", "162608.296000", "162608.296000", "162608.296000", "162608.296000", "162608.296000", "162608.296000", "162608.312000", "162608.312000", "162608.312000", "162608.312000", "162608.312000", "162608.312000", "162608.312000", "162708.265000", "162708.265000", "162708.265000", "162708.265000", "162708.265000", "162708.265000", "162708.281000", "162708.281000", "162708.281000", "162708.281000", "162708.281000", "162708.281000", "162708.281000", "162708.296000", "162708.296000", "162708.296000", "162708.296000", "162708.296000", "162708.312000", "162708.312000", "162708.312000", "162708.312000", "162708.312000", "162708.312000", "162708.312000", "162708.312000", "162708.328000", "162808.265000", "162808.265000", "162808.265000", "162808.265000", "162808.265000", "162808.265000", "162808.281000", "162808.281000", "162808.281000", "162808.281000", "162808.281000", "162808.281000", "162808.281000", "162808.296000", "162808.296000", "162808.296000", "162808.296000", "162808.296000", "162808.296000", "162808.296000", "162808.312000", "162808.312000", "162808.312000", "162808.312000", "162808.312000", "162808.312000", "162808.328000", "162808.328000", "162908.265000", "162908.265000", "162908.265000", "162908.265000", "162908.265000", "162908.265000", "162908.281000", "162908.281000", "162908.281000", "162908.281000", "162908.281000", "162908.281000", "162908.281000", "162908.296000", "162908.296000", "162908.296000", "162908.296000", "162908.296000", "162908.296000", "162908.312000", "162908.312000", "162908.312000", "162908.312000", "162908.312000", "162908.312000", "162908.312000", "162908.328000", "163008.265000", "163008.265000", "163008.265000", "163008.265000", "163008.265000", "163008.265000", "163008.281000", "163008.281000", "163008.281000", "163008.281000", "163008.281000", "163008.281000", "163008.281000", "163008.296000", "163008.296000", "163008.296000", "163008.296000", "163008.296000", "163008.296000", "163008.296000", "163008.312000", "163008.312000", "163008.312000", "163008.312000", "163008.312000", "163008.312000", "163008.312000", "163008.328000", "163108.265000", "163108.265000", "163108.265000", "163108.265000", "163108.265000", "163108.265000", "163108.281000", "163108.281000", "163108.281000", "163108.281000", "163108.281000", "163108.281000", "163108.281000", "163108.296000", "163108.296000", "163108.296000", "163108.296000", "163108.296000", "163108.296000", "163108.296000", "163108.312000", "163108.312000", "163108.312000", "163108.312000", "163108.312000", "163108.312000", "163108.312000", "163208.265000", "163208.265000", "163208.265000", "163208.265000", "163208.265000", "163208.265000", "163208.281000", "163208.281000", "163208.281000", "163208.281000", "163208.281000", "163208.281000", "163208.281000", "163208.296000", "163208.296000", "163208.296000", "163208.296000", "163208.296000", "163208.312000", "163208.312000", "163208.312000", "163208.312000", "163208.312000", "163208.312000", "163208.312000", "163208.328000", "163208.328000", "163226.156000", "163226.171000", "163226.171000", "163226.171000", "163226.171000", "163226.171000", "163226.171000", "163226.171000", "163226.187000"],
      "DataSetTrailingPadding": [
        "\u0000\u0000\u0000\u0000\u0000\u0000\u0000\u0000\u0000\u0000\u0000\u0000\u0000\u0000\u0000\u0000",
        "\u0000\u0000\u0000\u0000\u0000\u0000\u0000\u0000\u0000\u0000\u0000\u0000\u0000\u0000",
        "\u0000\u0000\u0000\u0000\u0000\u0000\u0000\u0000\u0000\u0000\u0000\u0000\u0000\u0000\u0000\u0000",
        "\u0000\u0000\u0000\u0000\u0000\u0000\u0000\u0000\u0000\u0000\u0000\u0000\u0000\u0000",
        "\u0000\u0000\u0000\u0000\u0000\u0000\u0000\u0000\u0000\u0000\u0000\u0000\u0000\u0000",
        "\u0000\u0000\u0000\u0000\u0000\u0000\u0000\u0000\u0000\u0000\u0000\u0000\u0000\u0000\u0000\u0000\u0000\u0000",
        "\u0000\u0000\u0000\u0000\u0000\u0000\u0000\u0000\u0000\u0000\u0000\u0000\u0000\u0000",
        "\u0000\u0000\u0000\u0000\u0000\u0000\u0000\u0000\u0000\u0000\u0000\u0000\u0000\u0000\u0000\u0000",
        "\u0000\u0000\u0000\u0000\u0000\u0000\u0000\u0000\u0000\u0000\u0000\u0000\u0000\u0000\u0000\u0000",
        "\u0000\u0000\u0000\u0000\u0000\u0000\u0000\u0000\u0000\u0000",
        "\u0000\u0000\u0000\u0000\u0000\u0000\u0000\u0000\u0000\u0000\u0000\u0000",
        "\u0000\u0000\u0000\u0000\u0000\u0000\u0000\u0000\u0000\u0000",
        "\u0000\u0000\u0000\u0000\u0000\u0000\u0000\u0000\u0000\u0000",
        "\u0000\u0000\u0000\u0000\u0000\u0000\u0000\u0000\u0000\u0000\u0000\u0000",
        "\u0000\u0000\u0000\u0000\u0000\u0000\u0000\u0000\u0000\u0000",
        "\u0000\u0000\u0000\u0000\u0000\u0000\u0000\u0000\u0000\u0000\u0000\u0000",
        "\u0000\u0000\u0000\u0000\u0000\u0000\u0000\u0000\u0000\u0000\u0000\u0000",
        "\u0000\u0000\u0000\u0000\u0000\u0000\u0000\u0000\u0000\u0000",
        "\u0000\u0000\u0000\u0000\u0000\u0000\u0000\u0000\u0000\u0000\u0000\u0000",
        "\u0000\u0000\u0000\u0000\u0000\u0000\u0000\u0000\u0000\u0000\u0000\u0000",
        "\u0000\u0000\u0000\u0000\u0000\u0000\u0000\u0000\u0000\u0000",
        "\u0000\u0000\u0000\u0000\u0000\u0000\u0000\u0000\u0000\u0000\u0000\u0000",
