{
  "AcquisitionMatrixPE": 104,
  "AcquisitionNumber": 1,
  "AcquisitionTime": "17:05:49.730000",
  "BandwidthPerPixelPhaseEncode": 13.935,
  "BaseResolution": 104,
  "CoilString": "C:HEA;HEP",
  "ConversionSoftware": "dcm2niix",
  "ConversionSoftwareVersion": "v1.0.20210317",
  "DerivedVendorReportedEchoSpacing": 0.000690017,
  "DeviceSerialNumber": "35450",
  "DwellTime": 2.5e-06,
  "EchoTime": 0.0348,
  "EffectiveEchoSpacing": 0.000690017,
  "FlipAngle": 55,
  "ImageComments": "Unaliased MB8/PE3 (remote)",
  "ImageOrientationPatientDICOM": [1, 0, 0, 0, 0.999507, -0.0314108],
  "ImageType": [
    "ORIGINAL",
    "PRIMARY",
    "M",
    "MB",
    "ND",
    "MOSAIC"
],
  "ImagingFrequency": 123.234,
  "InPlanePhaseEncodingDirectionDICOM": "COL",
  "InstitutionAddress": "Univeristy Ave. 197,Newark,North East,US,07102-1814",
  "InstitutionName": "RUBIC",
  "InstitutionalDepartmentName": "Department",
  "MRAcquisitionType": "2D",
  "MagneticFieldStrength": 3,
  "Manufacturer": "Siemens",
  "ManufacturersModelName": "TrioTim",
  "Modality": "MR",
  "MultibandAccelerationFactor": 8,
  "PartialFourier": 0.875,
  "PatientPosition": "HFS",
  "PercentPhaseFOV": 100,
  "PercentSampling": 100,
  "PhaseEncodingDirection": "j-",
  "PhaseEncodingSteps": 91,
  "PhaseResolution": 1,
  "PixelBandwidth": 1923,
  "ProcedureStepDescription": "Cole^Michael",
  "ProtocolName": "cmrr_mbep2d_bold_2mm_MB8_Task_8x",
  "PulseSequenceDetails": "%CustomerSeq%\\cmrr_mbep2d_bold",
  "ReceiveCoilName": "32Ch_Head",
  "ReconMatrixPE": 104,
  "RepetitionTime": 0.785,
  "SAR": 0.115626,
  "ScanOptions": "PFP\\FS",
  "ScanningSequence": "EP",
  "SequenceName": "epfid2d1_104",
  "SequenceVariant": "SK\\SS",
  "SeriesDescription": "cmrr_mbep2d_bold_2mm_MB8_Task_8x",
  "SeriesNumber": 25,
  "ShimSetting": [2064, -282, -7292, 660, -156, -68, -38, 98],
  "SliceThickness": 2,
  "SliceTiming": [0, 0.4375, 0.0875, 0.525, 0.175, 0.6125, 0.2625, 0.7, 0.35, 0, 0.4375, 0.0875, 0.525, 0.175, 0.6125, 0.2625, 0.7, 0.35, 0, 0.4375, 0.0875, 0.525, 0.175, 0.6125, 0.2625, 0.7, 0.35, 0, 0.4375, 0.0875, 0.525, 0.175, 0.6125, 0.2625, 0.7, 0.35, 0, 0.4375, 0.0875, 0.525, 0.175, 0.6125, 0.2625, 0.7, 0.35, 0, 0.4375, 0.0875, 0.525, 0.175, 0.6125, 0.2625, 0.7, 0.35, 0, 0.4375, 0.0875, 0.525, 0.175, 0.6125, 0.2625, 0.7, 0.35, 0, 0.4375, 0.0875, 0.525, 0.175, 0.6125, 0.2625, 0.7, 0.35],
  "SoftwareVersions": "syngo MR B19",
  "SpacingBetweenSlices": 2,
  "StationName": "MRC35450",
  "TaskName": "cpro",
  "TotalReadoutTime": 0.0710717,
  "TxRefAmp": 320.613,
  "dcmmeta_affine": [
    [-2.0, 0.0, 0.0, 104.67796325683594],
    [0.0, 1.999013066291809, -0.06282151490449905, -70.57969665527344],
    [0.0, 0.06282151490449905, 1.999013066291809, -94.56122589111328],
    [0.0, 0.0, 0.0, 1.0]
],
  "dcmmeta_reorient_transform": [
    [0.0, -1.0, 0.0, 103.0],
    [1.0, 0.0, 0.0, 0.0],
    [0.0, 0.0, 1.0, 0.0],
    [0.0, 0.0, 0.0, 1.0]
],
  "dcmmeta_shape": [104, 104, 72, 581],
  "dcmmeta_slice_dim": 2,
  "dcmmeta_version": 0.6,
  "global": {
    "const": {
      "AcquisitionMatrix": [104, 0, 0, 104],
      "AngioFlag": "N",
      "BitsAllocated": 16,
      "BitsStored": 12,
      "Columns": 936,
      "EchoNumbers": 1,
      "EchoTime": 34.8,
      "EchoTrainLength": 1,
      "FlipAngle": 55.0,
      "HighBit": 11,
      "ImageOrientationPatient": [1.0, 0.0, 0.0, 0.0, 0.99950656036366, -0.0314107591441],
      "ImagePositionPatient": [-936.67796611786, -966.90811654409, -61.956859763375],
      "ImageType": [
        "ORIGINAL",
        "PRIMARY",
        "M",
        "MB",
        "ND",
        "MOSAIC"
],
      "ImagedNucleus": "1H",
      "ImagingFrequency": 123.234434,
      "InPlanePhaseEncodingDirection": "COL",
      "MRAcquisitionType": "2D",
      "MagneticFieldStrength": 3.0,
      "Manufacturer": "SIEMENS",
      "ManufacturerModelName": "TrioTim",
      "Modality": "MR",
      "NumberOfAverages": 1.0,
      "NumberOfPhaseEncodingSteps": 91,
      "PercentPhaseFieldOfView": 100.0,
      "PercentSampling": 100.0,
      "PerformedProcedureStepStartTime": "150516.296000",
      "PhotometricInterpretation": "MONOCHROME2",
      "PixelBandwidth": 1923.0,
      "PixelRepresentation": 0,
      "PixelSpacing": [2.0, 2.0],
      "ProtocolName": "cmrr_mbep2d_bold_2mm_MB8_Task_8x",
      "RepetitionTime": 785.0,
      "Rows": 936,
      "SAR": 0.11562550987373,
      "SamplesPerPixel": 1,
      "ScanOptions": [
        "PFP",
        "FS"
],
      "ScanningSequence": "EP",
      "SequenceName": "epfid2d1_104",
      "SequenceVariant": [
        "SK",
        "SS"
],
      "SeriesDescription": "cmrr_mbep2d_bold_2mm_MB8_Task_8x",
      "SeriesNumber": 25,
      "SeriesTime": "170605.343000",
      "SliceLocation": -92.29760575628,
      "SliceThickness": 2.0,
      "SmallestImagePixelValue": 0,
      "SoftwareVersions": "syngo MR B19",
      "SpacingBetweenSlices": 2.0000000006836,
      "SpecificCharacterSet": "ISO_IR 100",
      "StudyID": "1",
      "StudyTime": "150516.265000",
      "TransmitCoilName": "Body",
      "VariableFlipAngleFlag": "N",
      "WindowCenterWidthExplanation": "Algo1",
      "dBdt": 0.0},
    "slices": {}
  },
  "time": {
    "samples": {
      "AcquisitionNumber": [1, 2, 3, 4, 5, 6, 7, 8, 9, 10, 11, 12, 13, 14, 15, 16, 17, 18, 19, 20, 21, 22, 23, 24, 25, 26, 27, 28, 29, 30, 31, 32, 33, 34, 35, 36, 37, 38, 39, 40, 41, 42, 43, 44, 45, 46, 47, 48, 49, 50, 51, 52, 53, 54, 55, 56, 57, 58, 59, 60, 61, 62, 63, 64, 65, 66, 67, 68, 69, 70, 71, 72, 73, 74, 75, 76, 77, 78, 79, 80, 81, 82, 83, 84, 85, 86, 87, 88, 89, 90, 91, 92, 93, 94, 95, 96, 97, 98, 99, 100, 101, 102, 103, 104, 105, 106, 107, 108, 109, 110, 111, 112, 113, 114, 115, 116, 117, 118, 119, 120, 121, 122, 123, 124, 125, 126, 127, 128, 129, 130, 131, 132, 133, 134, 135, 136, 137, 138, 139, 140, 141, 142, 143, 144, 145, 146, 147, 148, 149, 150, 151, 152, 153, 154, 155, 156, 157, 158, 159, 160, 161, 162, 163, 164, 165, 166, 167, 168, 169, 170, 171, 172, 173, 174, 175, 176, 177, 178, 179, 180, 181, 182, 183, 184, 185, 186, 187, 188, 189, 190, 191, 192, 193, 194, 195, 196, 197, 198, 199, 200, 201, 202, 203, 204, 205, 206, 207, 208, 209, 210, 211, 212, 213, 214, 215, 216, 217, 218, 219, 220, 221, 222, 223, 224, 225, 226, 227, 228, 229, 230, 231, 232, 233, 234, 235, 236, 237, 238, 239, 240, 241, 242, 243, 244, 245, 246, 247, 248, 249, 250, 251, 252, 253, 254, 255, 256, 257, 258, 259, 260, 261, 262, 263, 264, 265, 266, 267, 268, 269, 270, 271, 272, 273, 274, 275, 276, 277, 278, 279, 280, 281, 282, 283, 284, 285, 286, 287, 288, 289, 290, 291, 292, 293, 294, 295, 296, 297, 298, 299, 300, 301, 302, 303, 304, 305, 306, 307, 308, 309, 310, 311, 312, 313, 314, 315, 316, 317, 318, 319, 320, 321, 322, 323, 324, 325, 326, 327, 328, 329, 330, 331, 332, 333, 334, 335, 336, 337, 338, 339, 340, 341, 342, 343, 344, 345, 346, 347, 348, 349, 350, 351, 352, 353, 354, 355, 356, 357, 358, 359, 360, 361, 362, 363, 364, 365, 366, 367, 368, 369, 370, 371, 372, 373, 374, 375, 376, 377, 378, 379, 380, 381, 382, 383, 384, 385, 386, 387, 388, 389, 390, 391, 392, 393, 394, 395, 396, 397, 398, 399, 400, 401, 402, 403, 404, 405, 406, 407, 408, 409, 410, 411, 412, 413, 414, 415, 416, 417, 418, 419, 420, 421, 422, 423, 424, 425, 426, 427, 428, 429, 430, 431, 432, 433, 434, 435, 436, 437, 438, 439, 440, 441, 442, 443, 444, 445, 446, 447, 448, 449, 450, 451, 452, 453, 454, 455, 456, 457, 458, 459, 460, 461, 462, 463, 464, 465, 466, 467, 468, 469, 470, 471, 472, 473, 474, 475, 476, 477, 478, 479, 480, 481, 482, 483, 484, 485, 486, 487, 488, 489, 490, 491, 492, 493, 494, 495, 496, 497, 498, 499, 500, 501, 502, 503, 504, 505, 506, 507, 508, 509, 510, 511, 512, 513, 514, 515, 516, 517, 518, 519, 520, 521, 522, 523, 524, 525, 526, 527, 528, 529, 530, 531, 532, 533, 534, 535, 536, 537, 538, 539, 540, 541, 542, 543, 544, 545, 546, 547, 548, 549, 550, 551, 552, 553, 554, 555, 556, 557, 558, 559, 560, 561, 562, 563, 564, 565, 566, 567, 568, 569, 570, 571, 572, 573, 574, 575, 576, 577, 578, 579, 580, 581],
      "AcquisitionTime": ["170549.730000", "170550.517500", "170551.307500", "170552.095000", "170552.882500", "170553.670000", "170554.460000", "170555.247500", "170556.035000", "170556.825000", "170557.612500", "170558.400000", "170559.187500", "170559.977500", "170600.765000", "170601.552500", "170602.340000", "170603.130000", "170603.917500", "170604.705000", "170605.492500", "170606.282500", "170607.070000", "170607.857500", "170608.645000", "170609.435000", "170610.222500", "170611.010000", "170611.797500", "170612.587500", "170613.375000", "170614.162500", "170614.952500", "170615.740000", "170616.527500", "170617.315000", "170618.105000", "170618.892500", "170619.680000", "170620.467500", "170621.257500", "170622.045000", "170622.832500", "170623.620000", "170624.410000", "170625.197500", "170625.985000", "170626.772500", "170627.562500", "170628.350000", "170629.137500", "170629.925000", "170630.715000", "170631.502500", "170632.290000", "170633.080000", "170633.867500", "170634.655000", "170635.442500", "170636.232500", "170637.020000", "170637.807500", "170638.595000", "170639.385000", "170640.172500", "170640.960000", "170641.747500", "170642.537500", "170643.325000", "170644.112500", "170644.900000", "170645.690000", "170646.477500", "170647.265000", "170648.052500", "170648.842500", "170649.630000", "170650.417500", "170651.207500", "170651.995000", "170652.782500", "170653.570000", "170654.360000", "170655.147500", "170655.935000", "170656.722500", "170657.512500", "170658.300000", "170659.087500", "170659.875000", "170700.665000", "170701.452500", "170702.240000", "170703.027500", "170703.817500", "170704.605000", "170705.392500", "170706.180000", "170706.970000", "170707.757500", "170708.545000", "170709.335000", "170710.122500", "170710.910000", "170711.697500", "170712.487500", "170713.275000", "170714.062500", "170714.850000", "170715.640000", "170716.427500", "170717.215000", "170718.002500", "170718.792500", "170719.580000", "170720.367500", "170721.155000", "170721.945000", "170722.732500", "170723.520000", "170724.307500", "170725.097500", "170725.885000", "170726.672500", "170727.462500", "170728.250000", "170729.037500", "170729.825000", "170730.615000", "170731.402500", "170732.190000", "170732.977500", "170733.767500", "170734.555000", "170735.342500", "170736.130000", "170736.920000", "170737.707500", "170738.495000", "170739.282500", "170740.072500", "170740.860000", "170741.647500", "170742.435000", "170743.225000", "170744.012500", "170744.800000", "170745.590000", "170746.377500", "170747.165000", "170747.952500", "170748.742500", "170749.530000", "170750.317500", "170751.105000", "170751.895000", "170752.682500", "170753.470000", "170754.257500", "170755.047500", "170755.835000", "170756.622500", "170757.410000", "170758.200000", "170758.987500", "170759.775000", "170800.562500", "170801.352500", "170802.140000", "170802.927500", "170803.717500", "170804.505000", "170805.292500", "170806.080000", "170806.870000", "170807.657500", "170808.445000", "170809.232500", "170810.022500", "170810.810000", "170811.597500", "170812.385000", "170813.175000", "170813.962500", "170814.750000", "170815.537500", "170816.327500", "170817.115000", "170817.902500", "170818.690000", "170819.480000", "170820.267500", "170821.055000", "170821.845000", "170822.632500", "170823.420000", "170824.207500", "170824.997500", "170825.785000", "170826.572500", "170827.360000", "170828.150000", "170828.937500", "170829.725000", "170830.512500", "170831.302500", "170832.090000", "170832.877500", "170833.665000", "170834.455000", "170835.242500", "170836.030000", "170836.817500", "170837.607500", "170838.395000", "170839.182500", "170839.972500", "170840.760000", "170841.547500", "170842.335000", "170843.125000", "170843.912500", "170844.700000", "170845.487500", "170846.277500", "170847.065000", "170847.852500", "170848.640000", "170849.430000", "170850.217500", "170851.005000", "170851.792500", "170852.582500", "170853.370000", "170854.157500", "170854.947500", "170855.735000", "170856.522500", "170857.310000", "170858.100000", "170858.887500", "170859.675000", "170900.462500", "170901.252500", "170902.040000", "170902.827500", "170903.615000", "170904.405000", "170905.192500", "170905.980000", "170906.767500", "170907.557500", "170908.345000", "170909.132500", "170909.920000", "170910.710000", "170911.497500", "170912.285000", "170913.075000", "170913.862500", "170914.650000", "170915.437500", "170916.227500", "170917.015000", "170917.802500", "170918.590000", "170919.380000", "170920.167500", "170920.955000", "170921.742500", "170922.532500", "170923.320000", "170924.107500", "170924.895000", "170925.685000", "170926.472500", "170927.260000", "170928.047500", "170928.837500", "170929.625000", "170930.412500", "170931.202500", "170931.990000", "170932.777500", "170933.565000", "170934.355000", "170935.142500", "170935.930000", "170936.717500", "170937.507500", "170938.295000", "170939.082500", "170939.870000", "170940.660000", "170941.447500", "170942.235000", "170943.022500", "170943.812500", "170944.600000", "170945.387500", "170946.175000", "170946.965000", "170947.752500", "170948.540000", "170949.330000", "170950.117500", "170950.905000", "170951.692500", "170952.482500", "170953.270000", "170954.057500", "170954.845000", "170955.635000", "170956.422500", "170957.210000", "170957.997500", "170958.787500", "170959.575000", "171000.362500", "171001.150000", "171001.940000", "171002.727500", "171003.515000", "171004.302500", "171005.092500", "171005.880000", "171006.667500", "171007.457500", "171008.245000", "171009.032500", "171009.820000", "171010.610000", "171011.397500", "171012.185000", "171012.972500", "171013.762500", "171014.550000", "171015.337500", "171016.125000", "171016.915000", "171017.702500", "171018.490000", "171019.277500", "171020.067500", "171020.855000", "171021.642500", "171022.430000", "171023.220000", "171024.007500", "171024.795000", "171025.585000", "171026.372500", "171027.160000", "171027.947500", "171028.737500", "171029.525000", "171030.312500", "171031.100000", "171031.890000", "171032.677500", "171033.465000", "171034.252500", "171035.042500", "171035.830000", "171036.617500", "171037.405000", "171038.195000", "171038.982500", "171039.770000", "171040.557500", "171041.347500", "171042.135000", "171042.922500", "171043.712500", "171044.500000", "171045.287500", "171046.075000", "171046.865000", "171047.652500", "171048.440000", "171049.227500", "171050.017500", "171050.805000", "171051.592500", "171052.380000", "171053.170000", "171053.957500", "171054.745000", "171055.532500", "171056.322500", "171057.110000", "171057.897500", "171058.685000", "171059.475000", "171100.262500", "171101.050000", "171101.840000", "171102.627500", "171103.415000", "171104.202500", "171104.992500", "171105.780000", "171106.567500", "171107.355000", "171108.145000", "171108.932500", "171109.720000", "171110.507500", "171111.297500", "171112.085000", "171112.872500", "171113.660000", "171114.450000", "171115.237500", "171116.025000", "171116.812500", "171117.602500", "171118.390000", "171119.177500", "171119.967500", "171120.755000", "171121.542500", "171122.330000", "171123.120000", "171123.907500", "171124.695000", "171125.482500", "171126.272500", "171127.060000", "171127.847500", "171128.635000", "171129.425000", "171130.212500", "171131.000000", "171131.787500", "171132.577500", "171133.365000", "171134.152500", "171134.940000", "171135.730000", "171136.517500", "171137.305000", "171138.095000", "171138.882500", "171139.670000", "171140.457500", "171141.247500", "171142.035000", "171142.822500", "171143.610000", "171144.400000", "171145.187500", "171145.975000", "171146.762500", "171147.552500", "171148.340000", "171149.127500", "171149.915000", "171150.705000", "171151.492500", "171152.280000", "171153.067500", "171153.857500", "171154.645000", "171155.432500", "171156.222500", "171157.010000", "171157.797500", "171158.585000", "171159.375000", "171200.162500", "171200.950000", "171201.737500", "171202.527500", "171203.315000", "171204.102500", "171204.890000", "171205.680000", "171206.467500", "171207.255000", "171208.042500", "171208.832500", "171209.620000", "171210.407500", "171211.197500", "171211.985000", "171212.772500", "171213.560000", "171214.350000", "171215.137500", "171215.925000", "171216.712500", "171217.502500", "171218.290000", "171219.077500", "171219.865000", "171220.655000", "171221.442500", "171222.230000", "171223.017500", "171223.807500", "171224.595000", "171225.382500", "171226.170000", "171226.960000", "171227.747500", "171228.535000", "171229.325000", "171230.112500", "171230.900000", "171231.687500", "171232.477500", "171233.265000", "171234.052500", "171234.840000", "171235.630000", "171236.417500", "171237.205000", "171237.992500", "171238.782500", "171239.570000", "171240.357500", "171241.145000", "171241.935000", "171242.722500", "171243.510000", "171244.297500", "171245.087500", "171245.875000", "171246.662500", "171247.452500", "171248.240000", "171249.027500", "171249.815000", "171250.605000", "171251.392500", "171252.180000", "171252.967500", "171253.757500", "171254.545000", "171255.332500", "171256.120000", "171256.910000", "171257.697500", "171258.485000", "171259.272500", "171300.062500", "171300.850000", "171301.637500", "171302.425000", "171303.215000", "171304.002500", "171304.790000", "171305.580000", "171306.367500", "171307.155000", "171307.942500", "171308.732500", "171309.520000", "171310.307500", "171311.095000", "171311.885000", "171312.672500", "171313.460000", "171314.247500", "171315.037500", "171315.825000", "171316.612500", "171317.400000", "171318.190000", "171318.977500", "171319.765000", "171320.552500", "171321.342500", "171322.130000", "171322.917500", "171323.707500", "171324.495000", "171325.282500", "171326.070000", "171326.860000"],
      "ContentTime": ["170605.343000", "170605.343000", "170605.343000", "170605.343000", "170605.343000", "170605.343000", "170605.359000", "170605.359000", "170605.359000", "170605.359000", "170605.375000", "170605.375000", "170605.375000", "170605.375000", "170605.375000", "170605.375000", "170605.375000", "170625.312000", "170625.312000", "170625.328000", "170625.328000", "170625.328000", "170625.328000", "170625.328000", "170625.328000", "170625.328000", "170625.343000", "170625.343000", "170625.343000", "170625.343000", "170625.343000", "170625.343000", "170625.343000", "170625.359000", "170625.359000", "170625.359000", "170625.359000", "170625.359000", "170625.375000", "170625.375000", "170625.375000", "170625.375000", "170645.312000", "170645.312000", "170645.328000", "170645.328000", "170645.328000", "170645.328000", "170645.328000", "170645.328000", "170645.328000", "170645.343000", "170645.343000", "170645.343000", "170645.343000", "170645.343000", "170645.343000", "170645.359000", "170645.359000", "170645.359000", "170645.359000", "170645.359000", "170645.359000", "170645.359000", "170645.375000", "170645.375000", "170645.375000", "170645.375000", "170705.312000", "170705.312000", "170705.328000", "170705.328000", "170705.328000", "170705.328000", "170705.328000", "170705.328000", "170705.343000", "170705.343000", "170705.343000", "170705.343000", "170705.343000", "170705.343000", "170705.343000", "170705.359000", "170705.359000", "170705.359000", "170705.359000", "170705.359000", "170705.359000", "170705.375000", "170705.375000", "170705.375000", "170705.375000", "170725.312000", "170725.312000", "170725.328000", "170725.328000", "170725.328000", "170725.328000", "170725.328000", "170725.328000", "170725.343000", "170725.343000", "170725.343000", "170725.343000", "170725.343000", "170725.343000", "170725.343000", "170725.359000", "170725.359000", "170725.359000", "170725.359000", "170725.359000", "170725.359000", "170725.359000", "170725.375000", "170725.375000", "170725.375000", "170725.375000", "170745.312000", "170745.312000", "170745.328000", "170745.328000", "170745.328000", "170745.328000", "170745.328000", "170745.328000", "170745.328000", "170745.343000", "170745.343000", "170745.343000", "170745.343000", "170745.343000", "170745.343000", "170745.343000", "170745.359000", "170745.359000", "170745.359000", "170745.359000", "170745.359000", "170745.375000", "170745.375000", "170745.375000", "170745.375000", "170805.312000", "170805.312000", "170805.328000", "170805.328000", "170805.328000", "170805.328000", "170805.328000", "170805.328000", "170805.328000", "170805.343000", "170805.343000", "170805.343000", "170805.343000", "170805.343000", "170805.343000", "170805.343000", "170805.359000", "170805.359000", "170805.359000", "170805.359000", "170805.359000", "170805.359000", "170805.375000", "170805.375000", "170805.375000", "170805.390000", "170825.312000", "170825.312000", "170825.328000", "170825.328000", "170825.328000", "170825.328000", "170825.343000", "170825.343000", "170825.343000", "170825.343000", "170825.343000", "170825.343000", "170825.359000", "170825.359000", "170825.359000", "170825.359000", "170825.359000", "170825.375000", "170825.375000", "170825.375000", "170825.375000", "170825.375000", "170825.375000", "170825.375000", "170825.390000", "170845.312000", "170845.312000", "170845.328000", "170845.328000", "170845.328000", "170845.328000", "170845.328000", "170845.328000", "170845.328000", "170845.343000", "170845.343000", "170845.343000", "170845.343000", "170845.343000", "170845.343000", "170845.343000", "170845.359000", "170845.359000", "170845.359000", "170845.359000", "170845.359000", "170845.359000", "170845.375000", "170845.375000", "170845.375000", "170845.375000", "170905.312000", "170905.312000", "170905.328000", "170905.328000", "170905.328000", "170905.328000", "170905.328000", "170905.328000", "170905.328000", "170905.343000", "170905.343000", "170905.343000", "170905.343000", "170905.343000", "170905.343000", "170905.343000", "170905.359000", "170905.359000", "170905.359000", "170905.359000", "170905.359000", "170905.359000", "170905.359000", "170905.375000", "170905.375000", "170925.312000", "170925.312000", "170925.328000", "170925.328000", "170925.328000", "170925.328000", "170925.328000", "170925.328000", "170925.328000", "170925.343000", "170925.343000", "170925.343000", "170925.343000", "170925.343000", "170925.343000", "170925.343000", "170925.359000", "170925.359000", "170925.359000", "170925.359000", "170925.359000", "170925.359000", "170925.375000", "170925.375000", "170925.375000", "170925.375000", "170945.312000", "170945.312000", "170945.328000", "170945.328000", "170945.328000", "170945.328000", "170945.328000", "170945.328000", "170945.328000", "170945.343000", "170945.343000", "170945.343000", "170945.343000", "170945.343000", "170945.343000", "170945.343000", "170945.359000", "170945.359000", "170945.359000", "170945.359000", "170945.359000", "170945.359000", "170945.375000", "170945.375000", "170945.375000", "171005.312000", "171005.312000", "171005.328000", "171005.328000", "171005.328000", "171005.328000", "171005.328000", "171005.328000", "171005.328000", "171005.343000", "171005.343000", "171005.343000", "171005.343000", "171005.343000", "171005.343000", "171005.343000", "171005.359000", "171005.359000", "171005.359000", "171005.359000", "171005.359000", "171005.359000", "171005.359000", "171005.375000", "171005.375000", "171005.375000", "171025.312000", "171025.312000", "171025.328000", "171025.328000", "171025.328000", "171025.328000", "171025.328000", "171025.328000", "171025.328000", "171025.343000", "171025.343000", "171025.343000", "171025.343000", "171025.343000", "171025.343000", "171025.359000", "171025.359000", "171025.359000", "171025.359000", "171025.359000", "171025.359000", "171025.359000", "171025.375000", "171025.375000", "171025.375000", "171045.312000", "171045.312000", "171045.328000", "171045.328000", "171045.328000", "171045.328000", "171045.328000", "171045.328000", "171045.328000", "171045.343000", "171045.343000", "171045.343000", "171045.343000", "171045.343000", "171045.343000", "171045.343000", "171045.359000", "171045.359000", "171045.359000", "171045.359000", "171045.359000", "171045.359000", "171045.375000", "171045.375000", "171045.375000", "171045.375000", "171105.312000", "171105.312000", "171105.328000", "171105.328000", "171105.328000", "171105.328000", "171105.343000", "171105.343000", "171105.343000", "171105.343000", "171105.343000", "171105.343000", "171105.343000", "171105.359000", "171105.359000", "171105.359000", "171105.359000", "171105.359000", "171105.359000", "171105.375000", "171105.375000", "171105.375000", "171105.375000", "171105.375000", "171105.375000", "171125.312000", "171125.312000", "171125.328000", "171125.328000", "171125.328000", "171125.328000", "171125.328000", "171125.343000", "171125.343000", "171125.343000", "171125.343000", "171125.343000", "171125.343000", "171125.343000", "171125.359000", "171125.359000", "171125.359000", "171125.359000", "171125.359000", "171125.359000", "171125.359000", "171125.375000", "171125.375000", "171125.375000", "171125.375000", "171145.312000", "171145.312000", "171145.328000", "171145.328000", "171145.328000", "171145.328000", "171145.328000", "171145.328000", "171145.343000", "171145.343000", "171145.343000", "171145.343000", "171145.343000", "171145.343000", "171145.343000", "171145.359000", "171145.359000", "171145.359000", "171145.359000", "171145.359000", "171145.359000", "171145.359000", "171145.375000", "171145.375000", "171145.375000", "171145.375000", "171205.312000", "171205.312000", "171205.328000", "171205.328000", "171205.328000", "171205.328000", "171205.328000", "171205.328000", "171205.328000", "171205.343000", "171205.343000", "171205.343000", "171205.343000", "171205.343000", "171205.343000", "171205.359000", "171205.359000", "171205.359000", "171205.359000", "171205.359000", "171205.359000", "171205.375000", "171205.375000", "171205.375000", "171205.375000", "171225.312000", "171225.312000", "171225.328000", "171225.328000", "171225.328000", "171225.328000", "171225.328000", "171225.328000", "171225.328000", "171225.343000", "171225.343000", "171225.343000", "171225.343000", "171225.343000", "171225.343000", "171225.343000", "171225.359000", "171225.359000", "171225.359000", "171225.359000", "171225.359000", "171225.359000", "171225.375000", "171225.375000", "171225.375000", "171225.375000", "171245.312000", "171245.312000", "171245.328000", "171245.328000", "171245.328000", "171245.328000", "171245.328000", "171245.328000", "171245.343000", "171245.343000", "171245.343000", "171245.343000", "171245.343000", "171245.343000", "171245.359000", "171245.359000", "171245.359000", "171245.359000", "171245.375000", "171245.375000", "171245.375000", "171245.375000", "171245.375000", "171245.375000", "171245.375000", "171305.312000", "171305.312000", "171305.328000", "171305.328000", "171305.328000", "171305.328000", "171305.328000", "171305.328000", "171305.328000", "171305.343000", "171305.343000", "171305.343000", "171305.343000", "171305.343000", "171305.359000", "171305.359000", "171305.359000", "171305.359000", "171305.359000", "171305.359000", "171305.359000", "171305.375000", "171305.375000", "171305.375000", "171305.375000", "171305.390000", "171325.312000", "171325.312000", "171325.328000", "171325.328000", "171325.328000", "171325.328000", "171325.328000", "171325.328000", "171325.328000", "171325.343000", "171325.343000", "171325.343000", "171325.343000", "171325.343000", "171325.343000", "171325.359000", "171325.359000", "171325.359000", "171325.359000", "171325.359000", "171325.359000", "171325.359000", "171325.375000", "171325.375000", "171325.375000", "171327.843000", "171327.843000", "171327.843000", "171327.843000"],
      "DataSetTrailingPadding": [
        "\u0000\u0000\u0000\u0000\u0000\u0000\u0000\u0000\u0000\u0000\u0000\u0000\u0000\u0000\u0000\u0000\u0000\u0000\u0000\u0000\u0000\u0000\u0000\u0000\u0000\u0000\u0000\u0000\u0000\u0000\u0000\u0000\u0000\u0000\u0000\u0000\u0000\u0000\u0000\u0000\u0000\u0000\u0000\u0000\u0000\u0000\u0000\u0000\u0000\u0000\u0000\u0000\u0000\u0000\u0000\u0000\u0000\u0000\u0000\u0000\u0000\u0000\u0000\u0000\u0000\u0000\u0000\u0000\u0000\u0000\u0000\u0000\u0000\u0000\u0000\u0000\u0000\u0000\u0000\u0000\u0000\u0000\u0000\u0000\u0000\u0000\u0000\u0000",
        "\u0000\u0000\u0000\u0000\u0000\u0000\u0000\u0000\u0000\u0000\u0000\u0000\u0000\u0000\u0000\u0000\u0000\u0000\u0000\u0000\u0000\u0000\u0000\u0000\u0000\u0000\u0000\u0000\u0000\u0000\u0000\u0000\u0000\u0000\u0000\u0000\u0000\u0000\u0000\u0000\u0000\u0000\u0000\u0000\u0000\u0000\u0000\u0000\u0000\u0000\u0000\u0000\u0000\u0000\u0000\u0000\u0000\u0000\u0000\u0000\u0000\u0000\u0000\u0000\u0000\u0000\u0000\u0000\u0000\u0000\u0000\u0000\u0000\u0000\u0000\u0000\u0000\u0000\u0000\u0000\u0000\u0000\u0000\u0000\u0000\u0000\u0000\u0000",
        "\u0000\u0000\u0000\u0000\u0000\u0000\u0000\u0000\u0000\u0000\u0000\u0000\u0000\u0000\u0000\u0000\u0000\u0000\u0000\u0000\u0000\u0000\u0000\u0000\u0000\u0000\u0000\u0000\u0000\u0000\u0000\u0000\u0000\u0000\u0000\u0000\u0000\u0000\u0000\u0000\u0000\u0000\u0000\u0000\u0000\u0000\u0000\u0000\u0000\u0000\u0000\u0000\u0000\u0000\u0000\u0000\u0000\u0000\u0000\u0000\u0000\u0000\u0000\u0000\u0000\u0000\u0000\u0000\u0000\u0000\u0000\u0000\u0000\u0000\u0000\u0000\u0000\u0000\u0000\u0000\u0000\u0000\u0000\u0000\u0000\u0000\u0000\u0000",
