{
  "AcquisitionMatrixPE": 104,
  "AcquisitionNumber": 1,
  "AcquisitionTime": "15:53:49.427500",
  "BandwidthPerPixelPhaseEncode": 13.935,
  "BaseResolution": 104,
  "CoilString": "C:HEA;HEP",
  "ConversionSoftware": "dcm2niix",
  "ConversionSoftwareVersion": "v1.0.20210317",
  "DerivedVendorReportedEchoSpacing": 0.000690017,
  "DeviceSerialNumber": "35450",
  "DwellTime": 2.5e-06,
  "EchoTime": 0.0348,
  "EffectiveEchoSpacing": 0.000690017,
  "FlipAngle": 55,
  "ImageComments": "Unaliased MB8/PE3 (remote)",
  "ImageOrientationPatientDICOM": [1, 0, 0, 0, 0.999507, -0.0314108],
  "ImageType": [
    "ORIGINAL",
    "PRIMARY",
    "M",
    "MB",
    "ND",
    "MOSAIC"
],
  "ImagingFrequency": 123.234,
  "InPlanePhaseEncodingDirectionDICOM": "COL",
  "InstitutionAddress": "Univeristy Ave. 197,Newark,North East,US,07102-1814",
  "InstitutionName": "RUBIC",
  "InstitutionalDepartmentName": "Department",
  "MRAcquisitionType": "2D",
  "MagneticFieldStrength": 3,
  "Manufacturer": "Siemens",
  "ManufacturersModelName": "TrioTim",
  "Modality": "MR",
  "MultibandAccelerationFactor": 8,
  "PartialFourier": 0.875,
  "PatientPosition": "HFS",
  "PercentPhaseFOV": 100,
  "PercentSampling": 100,
  "PhaseEncodingDirection": "j-",
  "PhaseEncodingSteps": 91,
  "PhaseResolution": 1,
  "PixelBandwidth": 1923,
  "ProcedureStepDescription": "Cole^Michael",
  "ProtocolName": "cmrr_mbep2d_bold_2mm_MB8_Rest",
  "PulseSequenceDetails": "%CustomerSeq%\\cmrr_mbep2d_bold",
  "ReceiveCoilName": "32Ch_Head",
  "ReconMatrixPE": 104,
  "RepetitionTime": 0.785,
  "SAR": 0.116986,
  "ScanOptions": "PFP\\FS",
  "ScanningSequence": "EP",
  "SequenceName": "epfid2d1_104",
  "SequenceVariant": "SK\\SS",
  "SeriesDescription": "cmrr_mbep2d_bold_2mm_MB8_Rest",
  "SeriesNumber": 9,
  "ShimSetting": [2064, -282, -7292, 660, -156, -68, -38, 98],
  "SliceThickness": 2,
  "SliceTiming": [0, 0.4375, 0.0875, 0.525, 0.175, 0.6125, 0.2625, 0.7, 0.35, 0, 0.4375, 0.0875, 0.525, 0.175, 0.6125, 0.2625, 0.7, 0.35, 0, 0.4375, 0.0875, 0.525, 0.175, 0.6125, 0.2625, 0.7, 0.35, 0, 0.4375, 0.0875, 0.525, 0.175, 0.6125, 0.2625, 0.7, 0.35, 0, 0.4375, 0.0875, 0.525, 0.175, 0.6125, 0.2625, 0.7, 0.35, 0, 0.4375, 0.0875, 0.525, 0.175, 0.6125, 0.2625, 0.7, 0.35, 0, 0.4375, 0.0875, 0.525, 0.175, 0.6125, 0.2625, 0.7, 0.35, 0, 0.4375, 0.0875, 0.525, 0.175, 0.6125, 0.2625, 0.7, 0.35],
  "SoftwareVersions": "syngo MR B19",
  "SpacingBetweenSlices": 2,
  "StationName": "MRC35450",
  "TaskName": "rest",
  "TotalReadoutTime": 0.0710717,
  "TxRefAmp": 320.613,
  "dcmmeta_affine": [
    [-2.0, 0.0, 0.0, 104.67796325683594],
    [0.0, 1.999013066291809, -0.06282151490449905, -70.57969665527344],
    [0.0, 0.06282151490449905, 1.999013066291809, -94.56122589111328],
    [0.0, 0.0, 0.0, 1.0]
],
  "dcmmeta_reorient_transform": [
    [0.0, -1.0, 0.0, 103.0],
    [1.0, 0.0, 0.0, 0.0],
    [0.0, 0.0, 1.0, 0.0],
    [0.0, 0.0, 0.0, 1.0]
],
  "dcmmeta_shape": [104, 104, 72, 1070],
  "dcmmeta_slice_dim": 2,
  "dcmmeta_version": 0.6,
  "global": {
    "const": {
      "AcquisitionMatrix": [104, 0, 0, 104],
      "AngioFlag": "N",
      "BitsAllocated": 16,
      "BitsStored": 12,
      "Columns": 936,
      "EchoNumbers": 1,
      "EchoTime": 34.8,
      "EchoTrainLength": 1,
      "FlipAngle": 55.0,
      "HighBit": 11,
      "ImageOrientationPatient": [1.0, 0.0, 0.0, 0.0, 0.99950656036366, -0.0314107591441],
      "ImagePositionPatient": [-936.67796611786, -966.90811654409, -61.956859763375],
      "ImageType": [
        "ORIGINAL",
        "PRIMARY",
        "M",
        "MB",
        "ND",
        "MOSAIC"
],
      "ImagedNucleus": "1H",
      "ImagingFrequency": 123.234369,
      "InPlanePhaseEncodingDirection": "COL",
      "MRAcquisitionType": "2D",
      "MagneticFieldStrength": 3.0,
      "Manufacturer": "SIEMENS",
      "ManufacturerModelName": "TrioTim",
      "Modality": "MR",
      "NumberOfAverages": 1.0,
      "NumberOfPhaseEncodingSteps": 91,
      "PercentPhaseFieldOfView": 100.0,
      "PercentSampling": 100.0,
      "PerformedProcedureStepStartTime": "150516.296000",
      "PhotometricInterpretation": "MONOCHROME2",
      "PixelBandwidth": 1923.0,
      "PixelRepresentation": 0,
      "PixelSpacing": [2.0, 2.0],
      "ProtocolName": "cmrr_mbep2d_bold_2mm_MB8_Rest",
      "RepetitionTime": 785.0,
      "Rows": 936,
      "SAR": 0.11698645412961,
      "SamplesPerPixel": 1,
      "ScanOptions": [
        "PFP",
        "FS"
],
      "ScanningSequence": "EP",
      "SequenceName": "epfid2d1_104",
      "SequenceVariant": [
        "SK",
        "SS"
],
      "SeriesDescription": "cmrr_mbep2d_bold_2mm_MB8_Rest",
      "SeriesNumber": 9,
      "SeriesTime": "155409.546000",
      "SliceLocation": -92.29760575628,
      "SliceThickness": 2.0,
      "SmallestImagePixelValue": 0,
      "SoftwareVersions": "syngo MR B19",
      "SpacingBetweenSlices": 2.0000000006836,
      "SpecificCharacterSet": "ISO_IR 100",
      "StudyID": "1",
      "StudyTime": "150516.265000",
      "TransmitCoilName": "Body",
      "VariableFlipAngleFlag": "N",
      "WindowCenterWidthExplanation": "Algo1",
      "dBdt": 0.0},
    "slices": {}
  },
  "time": {
    "samples": {
      "AcquisitionNumber": [1, 2, 3, 4, 5, 6, 7, 8, 9, 10, 11, 12, 13, 14, 15, 16, 17, 18, 19, 20, 21, 22, 23, 24, 25, 26, 27, 28, 29, 30, 31, 32, 33, 34, 35, 36, 37, 38, 39, 40, 41, 42, 43, 44, 45, 46, 47, 48, 49, 50, 51, 52, 53, 54, 55, 56, 57, 58, 59, 60, 61, 62, 63, 64, 65, 66, 67, 68, 69, 70, 71, 72, 73, 74, 75, 76, 77, 78, 79, 80, 81, 82, 83, 84, 85, 86, 87, 88, 89, 90, 91, 92, 93, 94, 95, 96, 97, 98, 99, 100, 101, 102, 103, 104, 105, 106, 107, 108, 109, 110, 111, 112, 113, 114, 115, 116, 117, 118, 119, 120, 121, 122, 123, 124, 125, 126, 127, 128, 129, 130, 131, 132, 133, 134, 135, 136, 137, 138, 139, 140, 141, 142, 143, 144, 145, 146, 147, 148, 149, 150, 151, 152, 153, 154, 155, 156, 157, 158, 159, 160, 161, 162, 163, 164, 165, 166, 167, 168, 169, 170, 171, 172, 173, 174, 175, 176, 177, 178, 179, 180, 181, 182, 183, 184, 185, 186, 187, 188, 189, 190, 191, 192, 193, 194, 195, 196, 197, 198, 199, 200, 201, 202, 203, 204, 205, 206, 207, 208, 209, 210, 211, 212, 213, 214, 215, 216, 217, 218, 219, 220, 221, 222, 223, 224, 225, 226, 227, 228, 229, 230, 231, 232, 233, 234, 235, 236, 237, 238, 239, 240, 241, 242, 243, 244, 245, 246, 247, 248, 249, 250, 251, 252, 253, 254, 255, 256, 257, 258, 259, 260, 261, 262, 263, 264, 265, 266, 267, 268, 269, 270, 271, 272, 273, 274, 275, 276, 277, 278, 279, 280, 281, 282, 283, 284, 285, 286, 287, 288, 289, 290, 291, 292, 293, 294, 295, 296, 297, 298, 299, 300, 301, 302, 303, 304, 305, 306, 307, 308, 309, 310, 311, 312, 313, 314, 315, 316, 317, 318, 319, 320, 321, 322, 323, 324, 325, 326, 327, 328, 329, 330, 331, 332, 333, 334, 335, 336, 337, 338, 339, 340, 341, 342, 343, 344, 345, 346, 347, 348, 349, 350, 351, 352, 353, 354, 355, 356, 357, 358, 359, 360, 361, 362, 363, 364, 365, 366, 367, 368, 369, 370, 371, 372, 373, 374, 375, 376, 377, 378, 379, 380, 381, 382, 383, 384, 385, 386, 387, 388, 389, 390, 391, 392, 393, 394, 395, 396, 397, 398, 399, 400, 401, 402, 403, 404, 405, 406, 407, 408, 409, 410, 411, 412, 413, 414, 415, 416, 417, 418, 419, 420, 421, 422, 423, 424, 425, 426, 427, 428, 429, 430, 431, 432, 433, 434, 435, 436, 437, 438, 439, 440, 441, 442, 443, 444, 445, 446, 447, 448, 449, 450, 451, 452, 453, 454, 455, 456, 457, 458, 459, 460, 461, 462, 463, 464, 465, 466, 467, 468, 469, 470, 471, 472, 473, 474, 475, 476, 477, 478, 479, 480, 481, 482, 483, 484, 485, 486, 487, 488, 489, 490, 491, 492, 493, 494, 495, 496, 497, 498, 499, 500, 501, 502, 503, 504, 505, 506, 507, 508, 509, 510, 511, 512, 513, 514, 515, 516, 517, 518, 519, 520, 521, 522, 523, 524, 525, 526, 527, 528, 529, 530, 531, 532, 533, 534, 535, 536, 537, 538, 539, 540, 541, 542, 543, 544, 545, 546, 547, 548, 549, 550, 551, 552, 553, 554, 555, 556, 557, 558, 559, 560, 561, 562, 563, 564, 565, 566, 567, 568, 569, 570, 571, 572, 573, 574, 575, 576, 577, 578, 579, 580, 581, 582, 583, 584, 585, 586, 587, 588, 589, 590, 591, 592, 593, 594, 595, 596, 597, 598, 599, 600, 601, 602, 603, 604, 605, 606, 607, 608, 609, 610, 611, 612, 613, 614, 615, 616, 617, 618, 619, 620, 621, 622, 623, 624, 625, 626, 627, 628, 629, 630, 631, 632, 633, 634, 635, 636, 637, 638, 639, 640, 641, 642, 643, 644, 645, 646, 647, 648, 649, 650, 651, 652, 653, 654, 655, 656, 657, 658, 659, 660, 661, 662, 663, 664, 665, 666, 667, 668, 669, 670, 671, 672, 673, 674, 675, 676, 677, 678, 679, 680, 681, 682, 683, 684, 685, 686, 687, 688, 689, 690, 691, 692, 693, 694, 695, 696, 697, 698, 699, 700, 701, 702, 703, 704, 705, 706, 707, 708, 709, 710, 711, 712, 713, 714, 715, 716, 717, 718, 719, 720, 721, 722, 723, 724, 725, 726, 727, 728, 729, 730, 731, 732, 733, 734, 735, 736, 737, 738, 739, 740, 741, 742, 743, 744, 745, 746, 747, 748, 749, 750, 751, 752, 753, 754, 755, 756, 757, 758, 759, 760, 761, 762, 763, 764, 765, 766, 767, 768, 769, 770, 771, 772, 773, 774, 775, 776, 777, 778, 779, 780, 781, 782, 783, 784, 785, 786, 787, 788, 789, 790, 791, 792, 793, 794, 795, 796, 797, 798, 799, 800, 801, 802, 803, 804, 805, 806, 807, 808, 809, 810, 811, 812, 813, 814, 815, 816, 817, 818, 819, 820, 821, 822, 823, 824, 825, 826, 827, 828, 829, 830, 831, 832, 833, 834, 835, 836, 837, 838, 839, 840, 841, 842, 843, 844, 845, 846, 847, 848, 849, 850, 851, 852, 853, 854, 855, 856, 857, 858, 859, 860, 861, 862, 863, 864, 865, 866, 867, 868, 869, 870, 871, 872, 873, 874, 875, 876, 877, 878, 879, 880, 881, 882, 883, 884, 885, 886, 887, 888, 889, 890, 891, 892, 893, 894, 895, 896, 897, 898, 899, 900, 901, 902, 903, 904, 905, 906, 907, 908, 909, 910, 911, 912, 913, 914, 915, 916, 917, 918, 919, 920, 921, 922, 923, 924, 925, 926, 927, 928, 929, 930, 931, 932, 933, 934, 935, 936, 937, 938, 939, 940, 941, 942, 943, 944, 945, 946, 947, 948, 949, 950, 951, 952, 953, 954, 955, 956, 957, 958, 959, 960, 961, 962, 963, 964, 965, 966, 967, 968, 969, 970, 971, 972, 973, 974, 975, 976, 977, 978, 979, 980, 981, 982, 983, 984, 985, 986, 987, 988, 989, 990, 991, 992, 993, 994, 995, 996, 997, 998, 999, 1000, 1001, 1002, 1003, 1004, 1005, 1006, 1007, 1008, 1009, 1010, 1011, 1012, 1013, 1014, 1015, 1016, 1017, 1018, 1019, 1020, 1021, 1022, 1023, 1024, 1025, 1026, 1027, 1028, 1029, 1030, 1031, 1032, 1033, 1034, 1035, 1036, 1037, 1038, 1039, 1040, 1041, 1042, 1043, 1044, 1045, 1046, 1047, 1048, 1049, 1050, 1051, 1052, 1053, 1054, 1055, 1056, 1057, 1058, 1059, 1060, 1061, 1062, 1063, 1064, 1065, 1066, 1067, 1068, 1069, 1070],
      "AcquisitionTime": ["155349.427500", "155350.215000", "155351.002500", "155351.792500", "155352.580000", "155353.367500", "155354.155000", "155354.945000", "155355.732500", "155356.520000", "155357.307500", "155358.097500", "155358.885000", "155359.672500", "155400.462500", "155401.250000", "155402.037500", "155402.825000", "155403.615000", "155404.402500", "155405.190000", "155405.977500", "155406.767500", "155407.555000", "155408.342500", "155409.130000", "155409.920000", "155410.707500", "155411.495000", "155412.282500", "155413.072500", "155413.860000", "155414.647500", "155415.435000", "155416.225000", "155417.012500", "155417.800000", "155418.590000", "155419.377500", "155420.165000", "155420.952500", "155421.742500", "155422.530000", "155423.317500", "155424.105000", "155424.895000", "155425.682500", "155426.470000", "155427.257500", "155428.047500", "155428.835000", "155429.622500", "155430.410000", "155431.200000", "155431.987500", "155432.775000", "155433.562500", "155434.352500", "155435.140000", "155435.927500", "155436.717500", "155437.505000", "155438.292500", "155439.080000", "155439.870000", "155440.657500", "155441.445000", "155442.232500", "155443.022500", "155443.810000", "155444.597500", "155445.385000", "155446.175000", "155446.962500", "155447.750000", "155448.537500", "155449.327500", "155450.115000", "155450.902500", "155451.690000", "155452.480000", "155453.267500", "155454.055000", "155454.845000", "155455.632500", "155456.420000", "155457.207500", "155457.997500", "155458.785000", "155459.572500", "155500.360000", "155501.150000", "155501.937500", "155502.725000", "155503.512500", "155504.302500", "155505.090000", "155505.877500", "155506.665000", "155507.455000", "155508.242500", "155509.030000", "155509.820000", "155510.607500", "155511.395000", "155512.182500", "155512.972500", "155513.760000", "155514.547500", "155515.335000", "155516.125000", "155516.912500", "155517.700000", "155518.487500", "155519.277500", "155520.065000", "155520.852500", "155521.640000", "155522.430000", "155523.217500", "155524.005000", "155524.792500", "155525.582500", "155526.370000", "155527.157500", "155527.947500", "155528.735000", "155529.522500", "155530.310000", "155531.100000", "155531.887500", "155532.675000", "155533.462500", "155534.252500", "155535.040000", "155535.827500", "155536.615000", "155537.405000", "155538.192500", "155538.980000", "155539.767500", "155540.557500", "155541.345000", "155542.132500", "155542.920000", "155543.710000", "155544.497500", "155545.285000", "155546.075000", "155546.862500", "155547.650000", "155548.437500", "155549.227500", "155550.015000", "155550.802500", "155551.590000", "155552.380000", "155553.167500", "155553.955000", "155554.742500", "155555.532500", "155556.320000", "155557.107500", "155557.895000", "155558.685000", "155559.472500", "155600.260000", "155601.047500", "155601.837500", "155602.625000", "155603.412500", "155604.202500", "155604.990000", "155605.777500", "155606.565000", "155607.355000", "155608.142500", "155608.930000", "155609.717500", "155610.507500", "155611.295000", "155612.082500", "155612.870000", "155613.660000", "155614.447500", "155615.235000", "155616.022500", "155616.812500", "155617.600000", "155618.387500", "155619.175000", "155619.965000", "155620.752500", "155621.540000", "155622.330000", "155623.117500", "155623.905000", "155624.692500", "155625.482500", "155626.270000", "155627.057500", "155627.845000", "155628.635000", "155629.422500", "155630.210000", "155630.997500", "155631.787500", "155632.575000", "155633.362500", "155634.150000", "155634.940000", "155635.727500", "155636.515000", "155637.302500", "155638.092500", "155638.880000", "155639.667500", "155640.457500", "155641.245000", "155642.032500", "155642.820000", "155643.610000", "155644.397500", "155645.185000", "155645.972500", "155646.762500", "155647.550000", "155648.337500", "155649.125000", "155649.915000", "155650.702500", "155651.490000", "155652.277500", "155653.067500", "155653.855000", "155654.642500", "155655.430000", "155656.220000", "155657.007500", "155657.795000", "155658.585000", "155659.372500", "155700.160000", "155700.947500", "155701.737500", "155702.525000", "155703.312500", "155704.100000", "155704.890000", "155705.677500", "155706.465000", "155707.252500", "155708.042500", "155708.830000", "155709.617500", "155710.405000", "155711.195000", "155711.982500", "155712.770000", "155713.557500", "155714.347500", "155715.135000", "155715.922500", "155716.712500", "155717.500000", "155718.287500", "155719.075000", "155719.865000", "155720.652500", "155721.440000", "155722.227500", "155723.017500", "155723.805000", "155724.592500", "155725.380000", "155726.170000", "155726.957500", "155727.745000", "155728.532500", "155729.322500", "155730.110000", "155730.897500", "155731.685000", "155732.475000", "155733.262500", "155734.050000", "155734.840000", "155735.627500", "155736.415000", "155737.202500", "155737.992500", "155738.780000", "155739.567500", "155740.355000", "155741.145000", "155741.932500", "155742.720000", "155743.507500", "155744.297500", "155745.085000", "155745.872500", "155746.660000", "155747.450000", "155748.237500", "155749.025000", "155749.812500", "155750.602500", "155751.390000", "155752.177500", "155752.967500", "155753.755000", "155754.542500", "155755.330000", "155756.120000", "155756.907500", "155757.695000", "155758.482500", "155759.272500", "155800.060000", "155800.847500", "155801.635000", "155802.425000", "155803.212500", "155804.000000", "155804.787500", "155805.577500", "155806.365000", "155807.152500", "155807.940000", "155808.730000", "155809.517500", "155810.305000", "155811.095000", "155811.882500", "155812.670000", "155813.457500", "155814.247500", "155815.035000", "155815.822500", "155816.610000", "155817.400000", "155818.187500", "155818.975000", "155819.762500", "155820.552500", "155821.340000", "155822.127500", "155822.915000", "155823.705000", "155824.492500", "155825.280000", "155826.070000", "155826.857500", "155827.645000", "155828.432500", "155829.222500", "155830.010000", "155830.797500", "155831.585000", "155832.375000", "155833.162500", "155833.950000", "155834.737500", "155835.527500", "155836.315000", "155837.102500", "155837.890000", "155838.680000", "155839.467500", "155840.255000", "155841.042500", "155841.832500", "155842.620000", "155843.407500", "155844.197500", "155844.985000", "155845.772500", "155846.560000", "155847.350000", "155848.137500", "155848.925000", "155849.712500", "155850.502500", "155851.290000", "155852.077500", "155852.865000", "155853.655000", "155854.442500", "155855.230000", "155856.017500", "155856.807500", "155857.595000", "155858.382500", "155859.170000", "155859.960000", "155900.747500", "155901.535000", "155902.325000", "155903.112500", "155903.900000", "155904.687500", "155905.477500", "155906.265000", "155907.052500", "155907.840000", "155908.630000", "155909.417500", "155910.205000", "155910.992500", "155911.782500", "155912.570000", "155913.357500", "155914.145000", "155914.935000", "155915.722500", "155916.510000", "155917.297500", "155918.087500", "155918.875000", "155919.662500", "155920.452500", "155921.240000", "155922.027500", "155922.815000", "155923.605000", "155924.392500", "155925.180000", "155925.967500", "155926.757500", "155927.545000", "155928.332500", "155929.120000", "155929.910000", "155930.697500", "155931.485000", "155932.272500", "155933.062500", "155933.850000", "155934.637500", "155935.425000", "155936.215000", "155937.002500", "155937.790000", "155938.580000", "155939.367500", "155940.155000", "155940.942500", "155941.732500", "155942.520000", "155943.307500", "155944.095000", "155944.885000", "155945.672500", "155946.460000", "155947.247500", "155948.037500", "155948.825000", "155949.612500", "155950.400000", "155951.190000", "155951.977500", "155952.765000", "155953.552500", "155954.342500", "155955.130000", "155955.917500", "155956.707500", "155957.495000", "155958.282500", "155959.070000", "155959.860000", "160000.647500", "160001.435000", "160002.222500", "160003.012500", "160003.800000", "160004.587500", "160005.375000", "160006.165000", "160006.952500", "160007.740000", "160008.527500", "160009.317500", "160010.105000", "160010.892500", "160011.680000", "160012.470000", "160013.257500", "160014.045000", "160014.835000", "160015.622500", "160016.410000", "160017.197500", "160017.987500", "160018.775000", "160019.562500", "160020.350000", "160021.140000", "160021.927500", "160022.715000", "160023.502500", "160024.292500", "160025.080000", "160025.867500", "160026.655000", "160027.445000", "160028.232500", "160029.020000", "160029.807500", "160030.597500", "160031.385000", "160032.172500", "160032.962500", "160033.750000", "160034.537500", "160035.325000", "160036.115000", "160036.902500", "160037.690000", "160038.477500", "160039.267500", "160040.055000", "160040.842500", "160041.630000", "160042.420000", "160043.207500", "160043.995000", "160044.782500", "160045.572500", "160046.360000", "160047.147500", "160047.935000", "160048.725000", "160049.512500", "160050.300000", "160051.090000", "160051.877500", "160052.665000", "160053.452500", "160054.242500", "160055.030000", "160055.817500", "160056.605000", "160057.395000", "160058.182500", "160058.970000", "160059.757500", "160100.547500", "160101.335000", "160102.122500", "160102.910000", "160103.700000", "160104.487500", "160105.275000", "160106.062500", "160106.852500", "160107.640000", "160108.427500", "160109.217500", "160110.005000", "160110.792500", "160111.580000", "160112.370000", "160113.157500", "160113.945000", "160114.732500", "160115.522500", "160116.310000", "160117.097500", "160117.885000", "160118.675000", "160119.462500", "160120.250000", "160121.037500", "160121.827500", "160122.615000", "160123.402500", "160124.190000", "160124.980000", "160125.767500", "160126.555000", "160127.345000", "160128.132500", "160128.920000", "160129.707500", "160130.497500", "160131.285000", "160132.072500", "160132.860000", "160133.650000", "160134.437500", "160135.225000", "160136.012500", "160136.802500", "160137.590000", "160138.377500", "160139.165000", "160139.955000", "160140.742500", "160141.530000", "160142.320000", "160143.107500", "160143.895000", "160144.682500", "160145.472500", "160146.260000", "160147.047500", "160147.835000", "160148.625000", "160149.412500", "160150.200000", "160150.987500", "160151.777500", "160152.565000", "160153.352500", "160154.140000", "160154.930000", "160155.717500", "160156.505000", "160157.292500", "160158.082500", "160158.870000", "160159.657500", "160200.447500", "160201.235000", "160202.022500", "160202.810000", "160203.600000", "160204.387500", "160205.175000", "160205.962500", "160206.752500", "160207.540000", "160208.327500", "160209.115000", "160209.905000", "160210.692500", "160211.480000", "160212.267500", "160213.057500", "160213.845000", "160214.632500", "160215.420000", "160216.210000", "160216.997500", "160217.785000", "160218.575000", "160219.362500", "160220.150000", "160220.937500", "160221.727500", "160222.515000", "160223.302500", "160224.090000", "160224.880000", "160225.667500", "160226.455000", "160227.242500", "160228.032500", "160228.820000", "160229.607500", "160230.395000", "160231.185000", "160231.972500", "160232.760000", "160233.547500", "160234.337500", "160235.125000", "160235.912500", "160236.702500", "160237.490000", "160238.277500", "160239.065000", "160239.855000", "160240.642500", "160241.430000", "160242.217500", "160243.007500", "160243.795000", "160244.582500", "160245.370000", "160246.160000", "160246.947500", "160247.735000", "160248.522500", "160249.312500", "160250.100000", "160250.887500", "160251.675000", "160252.465000", "160253.252500", "160254.040000", "160254.830000", "160255.617500", "160256.405000", "160257.192500", "160257.982500", "160258.770000", "160259.557500", "160300.345000", "160301.135000", "160301.922500", "160302.710000", "160303.497500", "160304.287500", "160305.075000", "160305.862500", "160306.650000", "160307.440000", "160308.227500", "160309.015000", "160309.802500", "160310.592500", "160311.380000", "160312.167500", "160312.957500", "160313.745000", "160314.532500", "160315.320000", "160316.110000", "160316.897500", "160317.685000", "160318.472500", "160319.262500", "160320.050000", "160320.837500", "160321.625000", "160322.415000", "160323.202500", "160323.990000", "160324.777500", "160325.567500", "160326.355000", "160327.142500", "160327.930000", "160328.720000", "160329.507500", "160330.295000", "160331.085000", "160331.872500", "160332.660000", "160333.447500", "160334.237500", "160335.025000", "160335.812500", "160336.600000", "160337.390000", "160338.177500", "160338.965000", "160339.752500", "160340.542500", "160341.330000", "160342.117500", "160342.905000", "160343.695000", "160344.482500", "160345.270000", "160346.057500", "160346.847500", "160347.635000", "160348.422500", "160349.212500", "160350.000000", "160350.787500", "160351.575000", "160352.365000", "160353.152500", "160353.940000", "160354.727500", "160355.517500", "160356.305000", "160357.092500", "160357.880000", "160358.670000", "160359.457500", "160400.245000", "160401.032500", "160401.822500", "160402.610000", "160403.397500", "160404.185000", "160404.975000", "160405.762500", "160406.550000", "160407.340000", "160408.127500", "160408.915000", "160409.702500", "160410.492500", "160411.280000", "160412.067500", "160412.855000", "160413.645000", "160414.432500", "160415.220000", "160416.007500", "160416.797500", "160417.585000", "160418.372500", "160419.160000", "160419.950000", "160420.737500", "160421.525000", "160422.312500", "160423.102500", "160423.890000", "160424.677500", "160425.467500", "160426.255000", "160427.042500", "160427.830000", "160428.620000", "160429.407500", "160430.195000", "160430.982500", "160431.772500", "160432.560000", "160433.347500", "160434.135000", "160434.925000", "160435.712500", "160436.500000", "160437.287500", "160438.077500", "160438.865000", "160439.652500", "160440.440000", "160441.230000", "160442.017500", "160442.805000", "160443.595000", "160444.382500", "160445.170000", "160445.957500", "160446.747500", "160447.535000", "160448.322500", "160449.110000", "160449.900000", "160450.687500", "160451.475000", "160452.262500", "160453.052500", "160453.840000", "160454.627500", "160455.415000", "160456.205000", "160456.992500", "160457.780000", "160458.570000", "160459.357500", "160500.145000", "160500.932500", "160501.722500", "160502.510000", "160503.297500", "160504.085000", "160504.875000", "160505.662500", "160506.450000", "160507.237500", "160508.027500", "160508.815000", "160509.602500", "160510.390000", "160511.180000", "160511.967500", "160512.755000", "160513.542500", "160514.332500", "160515.120000", "160515.907500", "160516.697500", "160517.485000", "160518.272500", "160519.060000", "160519.850000", "160520.637500", "160521.425000", "160522.212500", "160523.002500", "160523.790000", "160524.577500", "160525.365000", "160526.155000", "160526.942500", "160527.730000", "160528.517500", "160529.307500", "160530.095000", "160530.882500", "160531.670000", "160532.460000", "160533.247500", "160534.035000", "160534.825000", "160535.612500", "160536.400000", "160537.187500", "160537.977500", "160538.765000", "160539.552500", "160540.340000", "160541.130000", "160541.917500", "160542.705000", "160543.492500", "160544.282500", "160545.070000", "160545.857500", "160546.645000", "160547.435000", "160548.222500", "160549.010000", "160549.797500", "160550.587500", "160551.375000", "160552.162500", "160552.952500", "160553.740000", "160554.527500", "160555.315000", "160556.105000", "160556.892500", "160557.680000", "160558.467500", "160559.257500", "160600.045000", "160600.832500", "160601.620000", "160602.410000", "160603.197500", "160603.985000", "160604.772500", "160605.562500", "160606.350000", "160607.137500", "160607.925000", "160608.715000", "160609.502500", "160610.290000", "160611.080000", "160611.867500", "160612.655000", "160613.442500", "160614.232500", "160615.020000", "160615.807500", "160616.595000", "160617.385000", "160618.172500", "160618.960000", "160619.747500", "160620.537500", "160621.325000", "160622.112500", "160622.900000", "160623.690000", "160624.477500", "160625.265000", "160626.052500", "160626.842500", "160627.630000", "160628.417500", "160629.207500", "160629.995000", "160630.782500", "160631.570000", "160632.360000", "160633.147500", "160633.935000", "160634.722500", "160635.512500", "160636.300000", "160637.087500", "160637.875000", "160638.665000", "160639.452500", "160640.240000", "160641.027500", "160641.817500", "160642.605000", "160643.392500", "160644.180000", "160644.970000", "160645.757500", "160646.545000", "160647.335000", "160648.122500", "160648.910000", "160649.697500", "160650.487500", "160651.275000", "160652.062500", "160652.850000", "160653.640000", "160654.427500", "160655.215000", "160656.002500", "160656.792500", "160657.580000", "160658.367500", "160659.155000", "160659.945000", "160700.732500", "160701.520000", "160702.307500", "160703.097500", "160703.885000", "160704.672500", "160705.462500", "160706.250000", "160707.037500", "160707.825000", "160708.615000", "160709.402500", "160710.190000", "160710.977500", "160711.767500", "160712.555000", "160713.342500", "160714.130000", "160714.920000", "160715.707500", "160716.495000", "160717.282500", "160718.072500", "160718.860000", "160719.647500", "160720.435000", "160721.225000", "160722.012500", "160722.800000", "160723.590000", "160724.377500", "160725.165000", "160725.952500", "160726.742500", "160727.530000", "160728.317500", "160729.105000", "160729.895000", "160730.682500", "160731.470000", "160732.257500", "160733.047500", "160733.835000", "160734.622500", "160735.410000", "160736.200000", "160736.987500", "160737.775000", "160738.562500", "160739.352500", "160740.140000", "160740.927500", "160741.717500", "160742.505000", "160743.292500", "160744.080000", "160744.870000", "160745.657500", "160746.445000", "160747.232500", "160748.022500", "160748.810000", "160749.597500", "160750.385000", "160751.175000", "160751.962500"],
