{
  "AcquisitionMatrixPE": 104,
  "AcquisitionNumber": 1,
  "AcquisitionTime": "16:41:44.715000",
  "BandwidthPerPixelPhaseEncode": 13.935,
  "BaseResolution": 104,
  "CoilString": "C:HEA;HEP",
  "ConversionSoftware": "dcm2niix",
  "ConversionSoftwareVersion": "v1.0.20210317",
  "DerivedVendorReportedEchoSpacing": 0.000690017,
  "DeviceSerialNumber": "35450",
  "DwellTime": 2.5e-06,
  "EchoTime": 0.0348,
  "EffectiveEchoSpacing": 0.000690017,
  "FlipAngle": 55,
  "ImageComments": "Unaliased MB8/PE3 (remote)",
  "ImageOrientationPatientDICOM": [1, 0, 0, 0, 0.999507, -0.0314108],
  "ImageType": [
    "ORIGINAL",
    "PRIMARY",
    "M",
    "MB",
    "ND",
    "MOSAIC"
],
  "ImagingFrequency": 123.234,
  "InPlanePhaseEncodingDirectionDICOM": "COL",
  "InstitutionAddress": "Univeristy Ave. 197,Newark,North East,US,07102-1814",
  "InstitutionName": "RUBIC",
  "InstitutionalDepartmentName": "Department",
  "MRAcquisitionType": "2D",
  "MagneticFieldStrength": 3,
  "Manufacturer": "Siemens",
  "ManufacturersModelName": "TrioTim",
  "Modality": "MR",
  "MultibandAccelerationFactor": 8,
  "PartialFourier": 0.875,
  "PatientPosition": "HFS",
  "PercentPhaseFOV": 100,
  "PercentSampling": 100,
  "PhaseEncodingDirection": "j-",
  "PhaseEncodingSteps": 91,
  "PhaseResolution": 1,
  "PixelBandwidth": 1923,
  "ProcedureStepDescription": "Cole^Michael",
  "ProtocolName": "cmrr_mbep2d_bold_2mm_MB8_Task_8x",
  "PulseSequenceDetails": "%CustomerSeq%\\cmrr_mbep2d_bold",
  "ReceiveCoilName": "32Ch_Head",
  "ReconMatrixPE": 104,
  "RepetitionTime": 0.785,
  "SAR": 0.115626,
  "ScanOptions": "PFP\\FS",
  "ScanningSequence": "EP",
  "SequenceName": "epfid2d1_104",
  "SequenceVariant": "SK\\SS",
  "SeriesDescription": "cmrr_mbep2d_bold_2mm_MB8_Task_8x",
  "SeriesNumber": 19,
  "ShimSetting": [2064, -282, -7292, 660, -156, -68, -38, 98],
  "SliceThickness": 2,
  "SliceTiming": [0, 0.4375, 0.0875, 0.525, 0.175, 0.6125, 0.2625, 0.7, 0.35, 0, 0.4375, 0.0875, 0.525, 0.175, 0.6125, 0.2625, 0.7, 0.35, 0, 0.4375, 0.0875, 0.525, 0.175, 0.6125, 0.2625, 0.7, 0.35, 0, 0.4375, 0.0875, 0.525, 0.175, 0.6125, 0.2625, 0.7, 0.35, 0, 0.4375, 0.0875, 0.525, 0.175, 0.6125, 0.2625, 0.7, 0.35, 0, 0.4375, 0.0875, 0.525, 0.175, 0.6125, 0.2625, 0.7, 0.35, 0, 0.4375, 0.0875, 0.525, 0.175, 0.6125, 0.2625, 0.7, 0.35, 0, 0.4375, 0.0875, 0.525, 0.175, 0.6125, 0.2625, 0.7, 0.35],
  "SoftwareVersions": "syngo MR B19",
  "SpacingBetweenSlices": 2,
  "StationName": "MRC35450",
  "TaskName": "cpro",
  "TotalReadoutTime": 0.0710717,
  "TxRefAmp": 320.613,
  "dcmmeta_affine": [
    [-2.0, 0.0, 0.0, 104.67796325683594],
    [0.0, 1.999013066291809, -0.06282151490449905, -70.57969665527344],
    [0.0, 0.06282151490449905, 1.999013066291809, -94.56122589111328],
    [0.0, 0.0, 0.0, 1.0]
],
  "dcmmeta_reorient_transform": [
    [0.0, -1.0, 0.0, 103.0],
    [1.0, 0.0, 0.0, 0.0],
    [0.0, 0.0, 1.0, 0.0],
    [0.0, 0.0, 0.0, 1.0]
],
  "dcmmeta_shape": [104, 104, 72, 581],
  "dcmmeta_slice_dim": 2,
  "dcmmeta_version": 0.6,
  "global": {
    "const": {
      "AcquisitionMatrix": [104, 0, 0, 104],
      "AngioFlag": "N",
      "BitsAllocated": 16,
      "BitsStored": 12,
      "Columns": 936,
      "EchoNumbers": 1,
      "EchoTime": 34.8,
      "EchoTrainLength": 1,
      "FlipAngle": 55.0,
      "HighBit": 11,
      "ImageOrientationPatient": [1.0, 0.0, 0.0, 0.0, 0.99950656036366, -0.0314107591441],
      "ImagePositionPatient": [-936.67796611786, -966.90811654409, -61.956859763375],
      "ImageType": [
        "ORIGINAL",
        "PRIMARY",
        "M",
        "MB",
        "ND",
        "MOSAIC"
],
      "ImagedNucleus": "1H",
      "ImagingFrequency": 123.234434,
      "InPlanePhaseEncodingDirection": "COL",
      "MRAcquisitionType": "2D",
      "MagneticFieldStrength": 3.0,
      "Manufacturer": "SIEMENS",
      "ManufacturerModelName": "TrioTim",
      "Modality": "MR",
      "NumberOfAverages": 1.0,
      "NumberOfPhaseEncodingSteps": 91,
      "PercentPhaseFieldOfView": 100.0,
      "PercentSampling": 100.0,
      "PerformedProcedureStepStartTime": "150516.296000",
      "PhotometricInterpretation": "MONOCHROME2",
      "PixelBandwidth": 1923.0,
      "PixelRepresentation": 0,
      "PixelSpacing": [2.0, 2.0],
      "ProtocolName": "cmrr_mbep2d_bold_2mm_MB8_Task_8x",
      "RepetitionTime": 785.0,
      "Rows": 936,
      "SAR": 0.11562550987373,
      "SamplesPerPixel": 1,
      "ScanOptions": [
        "PFP",
        "FS"
],
      "ScanningSequence": "EP",
      "SequenceName": "epfid2d1_104",
      "SequenceVariant": [
        "SK",
        "SS"
],
      "SeriesDescription": "cmrr_mbep2d_bold_2mm_MB8_Task_8x",
      "SeriesNumber": 19,
      "SeriesTime": "164205.343000",
      "SliceLocation": -92.29760575628,
      "SliceThickness": 2.0,
      "SmallestImagePixelValue": 0,
      "SoftwareVersions": "syngo MR B19",
      "SpacingBetweenSlices": 2.0000000006836,
      "SpecificCharacterSet": "ISO_IR 100",
      "StudyID": "1",
      "StudyTime": "150516.265000",
      "TransmitCoilName": "Body",
      "VariableFlipAngleFlag": "N",
      "WindowCenterWidthExplanation": "Algo1",
      "dBdt": 0.0},
    "slices": {}
  },
  "time": {
    "samples": {
      "AcquisitionNumber": [1, 2, 3, 4, 5, 6, 7, 8, 9, 10, 11, 12, 13, 14, 15, 16, 17, 18, 19, 20, 21, 22, 23, 24, 25, 26, 27, 28, 29, 30, 31, 32, 33, 34, 35, 36, 37, 38, 39, 40, 41, 42, 43, 44, 45, 46, 47, 48, 49, 50, 51, 52, 53, 54, 55, 56, 57, 58, 59, 60, 61, 62, 63, 64, 65, 66, 67, 68, 69, 70, 71, 72, 73, 74, 75, 76, 77, 78, 79, 80, 81, 82, 83, 84, 85, 86, 87, 88, 89, 90, 91, 92, 93, 94, 95, 96, 97, 98, 99, 100, 101, 102, 103, 104, 105, 106, 107, 108, 109, 110, 111, 112, 113, 114, 115, 116, 117, 118, 119, 120, 121, 122, 123, 124, 125, 126, 127, 128, 129, 130, 131, 132, 133, 134, 135, 136, 137, 138, 139, 140, 141, 142, 143, 144, 145, 146, 147, 148, 149, 150, 151, 152, 153, 154, 155, 156, 157, 158, 159, 160, 161, 162, 163, 164, 165, 166, 167, 168, 169, 170, 171, 172, 173, 174, 175, 176, 177, 178, 179, 180, 181, 182, 183, 184, 185, 186, 187, 188, 189, 190, 191, 192, 193, 194, 195, 196, 197, 198, 199, 200, 201, 202, 203, 204, 205, 206, 207, 208, 209, 210, 211, 212, 213, 214, 215, 216, 217, 218, 219, 220, 221, 222, 223, 224, 225, 226, 227, 228, 229, 230, 231, 232, 233, 234, 235, 236, 237, 238, 239, 240, 241, 242, 243, 244, 245, 246, 247, 248, 249, 250, 251, 252, 253, 254, 255, 256, 257, 258, 259, 260, 261, 262, 263, 264, 265, 266, 267, 268, 269, 270, 271, 272, 273, 274, 275, 276, 277, 278, 279, 280, 281, 282, 283, 284, 285, 286, 287, 288, 289, 290, 291, 292, 293, 294, 295, 296, 297, 298, 299, 300, 301, 302, 303, 304, 305, 306, 307, 308, 309, 310, 311, 312, 313, 314, 315, 316, 317, 318, 319, 320, 321, 322, 323, 324, 325, 326, 327, 328, 329, 330, 331, 332, 333, 334, 335, 336, 337, 338, 339, 340, 341, 342, 343, 344, 345, 346, 347, 348, 349, 350, 351, 352, 353, 354, 355, 356, 357, 358, 359, 360, 361, 362, 363, 364, 365, 366, 367, 368, 369, 370, 371, 372, 373, 374, 375, 376, 377, 378, 379, 380, 381, 382, 383, 384, 385, 386, 387, 388, 389, 390, 391, 392, 393, 394, 395, 396, 397, 398, 399, 400, 401, 402, 403, 404, 405, 406, 407, 408, 409, 410, 411, 412, 413, 414, 415, 416, 417, 418, 419, 420, 421, 422, 423, 424, 425, 426, 427, 428, 429, 430, 431, 432, 433, 434, 435, 436, 437, 438, 439, 440, 441, 442, 443, 444, 445, 446, 447, 448, 449, 450, 451, 452, 453, 454, 455, 456, 457, 458, 459, 460, 461, 462, 463, 464, 465, 466, 467, 468, 469, 470, 471, 472, 473, 474, 475, 476, 477, 478, 479, 480, 481, 482, 483, 484, 485, 486, 487, 488, 489, 490, 491, 492, 493, 494, 495, 496, 497, 498, 499, 500, 501, 502, 503, 504, 505, 506, 507, 508, 509, 510, 511, 512, 513, 514, 515, 516, 517, 518, 519, 520, 521, 522, 523, 524, 525, 526, 527, 528, 529, 530, 531, 532, 533, 534, 535, 536, 537, 538, 539, 540, 541, 542, 543, 544, 545, 546, 547, 548, 549, 550, 551, 552, 553, 554, 555, 556, 557, 558, 559, 560, 561, 562, 563, 564, 565, 566, 567, 568, 569, 570, 571, 572, 573, 574, 575, 576, 577, 578, 579, 580, 581],
      "AcquisitionTime": ["164144.715000", "164145.505000", "164146.292500", "164147.080000", "164147.867500", "164148.657500", "164149.445000", "164150.232500", "164151.020000", "164151.810000", "164152.597500", "164153.385000", "164154.172500", "164154.962500", "164155.750000", "164156.537500", "164157.325000", "164158.115000", "164158.902500", "164159.690000", "164200.477500", "164201.267500", "164202.055000", "164202.842500", "164203.632500", "164204.420000", "164205.207500", "164205.995000", "164206.785000", "164207.572500", "164208.360000", "164209.147500", "164209.937500", "164210.725000", "164211.512500", "164212.300000", "164213.090000", "164213.877500", "164214.665000", "164215.452500", "164216.242500", "164217.030000", "164217.817500", "164218.605000", "164219.395000", "164220.182500", "164220.970000", "164221.760000", "164222.547500", "164223.335000", "164224.122500", "164224.912500", "164225.700000", "164226.487500", "164227.275000", "164228.065000", "164228.852500", "164229.640000", "164230.427500", "164231.217500", "164232.005000", "164232.792500", "164233.580000", "164234.370000", "164235.157500", "164235.945000", "164236.735000", "164237.522500", "164238.310000", "164239.097500", "164239.887500", "164240.675000", "164241.462500", "164242.250000", "164243.040000", "164243.827500", "164244.615000", "164245.402500", "164246.192500", "164246.980000", "164247.767500", "164248.555000", "164249.345000", "164250.132500", "164250.920000", "164251.707500", "164252.497500", "164253.285000", "164254.072500", "164254.862500", "164255.650000", "164256.437500", "164257.225000", "164258.015000", "164258.802500", "164259.590000", "164300.377500", "164301.167500", "164301.955000", "164302.742500", "164303.530000", "164304.320000", "164305.107500", "164305.895000", "164306.682500", "164307.472500", "164308.260000", "164309.047500", "164309.835000", "164310.625000", "164311.412500", "164312.200000", "164312.990000", "164313.777500", "164314.565000", "164315.352500", "164316.142500", "164316.930000", "164317.717500", "164318.505000", "164319.295000", "164320.082500", "164320.870000", "164321.657500", "164322.447500", "164323.235000", "164324.022500", "164324.810000", "164325.600000", "164326.387500", "164327.175000", "164327.962500", "164328.752500", "164329.540000", "164330.327500", "164331.117500", "164331.905000", "164332.692500", "164333.480000", "164334.270000", "164335.057500", "164335.845000", "164336.632500", "164337.422500", "164338.210000", "164338.997500", "164339.785000", "164340.575000", "164341.362500", "164342.150000", "164342.937500", "164343.727500", "164344.515000", "164345.302500", "164346.090000", "164346.880000", "164347.667500", "164348.455000", "164349.245000", "164350.032500", "164350.820000", "164351.607500", "164352.397500", "164353.185000", "164353.972500", "164354.760000", "164355.550000", "164356.337500", "164357.125000", "164357.912500", "164358.702500", "164359.490000", "164400.277500", "164401.065000", "164401.855000", "164402.642500", "164403.430000", "164404.217500", "164405.007500", "164405.795000", "164406.582500", "164407.372500", "164408.160000", "164408.947500", "164409.735000", "164410.525000", "164411.312500", "164412.100000", "164412.887500", "164413.677500", "164414.465000", "164415.252500", "164416.040000", "164416.830000", "164417.617500", "164418.405000", "164419.192500", "164419.982500", "164420.770000", "164421.557500", "164422.345000", "164423.135000", "164423.922500", "164424.710000", "164425.500000", "164426.287500", "164427.075000", "164427.862500", "164428.652500", "164429.440000", "164430.227500", "164431.015000", "164431.805000", "164432.592500", "164433.380000", "164434.167500", "164434.957500", "164435.745000", "164436.532500", "164437.320000", "164438.110000", "164438.897500", "164439.685000", "164440.472500", "164441.262500", "164442.050000", "164442.837500", "164443.627500", "164444.415000", "164445.202500", "164445.990000", "164446.780000", "164447.567500", "164448.355000", "164449.142500", "164449.932500", "164450.720000", "164451.507500", "164452.295000", "164453.085000", "164453.872500", "164454.660000", "164455.447500", "164456.237500", "164457.025000", "164457.812500", "164458.600000", "164459.390000", "164500.177500", "164500.965000", "164501.755000", "164502.542500", "164503.330000", "164504.117500", "164504.907500", "164505.695000", "164506.482500", "164507.270000", "164508.060000", "164508.847500", "164509.635000", "164510.422500", "164511.212500", "164512.000000", "164512.787500", "164513.575000", "164514.365000", "164515.152500", "164515.940000", "164516.727500", "164517.517500", "164518.305000", "164519.092500", "164519.882500", "164520.670000", "164521.457500", "164522.245000", "164523.035000", "164523.822500", "164524.610000", "164525.397500", "164526.187500", "164526.975000", "164527.762500", "164528.550000", "164529.340000", "164530.127500", "164530.915000", "164531.702500", "164532.492500", "164533.280000", "164534.067500", "164534.855000", "164535.645000", "164536.432500", "164537.220000", "164538.010000", "164538.797500", "164539.585000", "164540.372500", "164541.162500", "164541.950000", "164542.737500", "164543.525000", "164544.315000", "164545.102500", "164545.890000", "164546.677500", "164547.467500", "164548.255000", "164549.042500", "164549.830000", "164550.620000", "164551.407500", "164552.195000", "164552.985000", "164553.772500", "164554.560000", "164555.347500", "164556.137500", "164556.925000", "164557.712500", "164558.500000", "164559.290000", "164600.077500", "164600.865000", "164601.652500", "164602.442500", "164603.230000", "164604.017500", "164604.805000", "164605.595000", "164606.382500", "164607.170000", "164607.957500", "164608.747500", "164609.535000", "164610.322500", "164611.112500", "164611.900000", "164612.687500", "164613.475000", "164614.265000", "164615.052500", "164615.840000", "164616.627500", "164617.417500", "164618.205000", "164618.992500", "164619.780000", "164620.570000", "164621.357500", "164622.145000", "164622.932500", "164623.722500", "164624.510000", "164625.297500", "164626.085000", "164626.875000", "164627.662500", "164628.450000", "164629.240000", "164630.027500", "164630.815000", "164631.602500", "164632.392500", "164633.180000", "164633.967500", "164634.755000", "164635.545000", "164636.332500", "164637.120000", "164637.907500", "164638.697500", "164639.485000", "164640.272500", "164641.060000", "164641.850000", "164642.637500", "164643.425000", "164644.212500", "164645.002500", "164645.790000", "164646.577500", "164647.367500", "164648.155000", "164648.942500", "164649.730000", "164650.520000", "164651.307500", "164652.095000", "164652.882500", "164653.672500", "164654.460000", "164655.247500", "164656.035000", "164656.825000", "164657.612500", "164658.400000", "164659.187500", "164659.977500", "164700.765000", "164701.552500", "164702.340000", "164703.130000", "164703.917500", "164704.705000", "164705.495000", "164706.282500", "164707.070000", "164707.857500", "164708.647500", "164709.435000", "164710.222500", "164711.010000", "164711.800000", "164712.587500", "164713.375000", "164714.162500", "164714.952500", "164715.740000", "164716.527500", "164717.315000", "164718.105000", "164718.892500", "164719.680000", "164720.467500", "164721.257500", "164722.045000", "164722.832500", "164723.622500", "164724.410000", "164725.197500", "164725.985000", "164726.775000", "164727.562500", "164728.350000", "164729.137500", "164729.927500", "164730.715000", "164731.502500", "164732.290000", "164733.080000", "164733.867500", "164734.655000", "164735.442500", "164736.232500", "164737.020000", "164737.807500", "164738.595000", "164739.385000", "164740.172500", "164740.960000", "164741.750000", "164742.537500", "164743.325000", "164744.112500", "164744.902500", "164745.690000", "164746.477500", "164747.265000", "164748.055000", "164748.842500", "164749.630000", "164750.417500", "164751.207500", "164751.995000", "164752.782500", "164753.570000", "164754.360000", "164755.147500", "164755.935000", "164756.722500", "164757.512500", "164758.300000", "164759.087500", "164759.877500", "164800.665000", "164801.452500", "164802.240000", "164803.030000", "164803.817500", "164804.605000", "164805.392500", "164806.182500", "164806.970000", "164807.757500", "164808.545000", "164809.335000", "164810.122500", "164810.910000", "164811.697500", "164812.487500", "164813.275000", "164814.062500", "164814.850000", "164815.640000", "164816.427500", "164817.215000", "164818.005000", "164818.792500", "164819.580000", "164820.367500", "164821.157500", "164821.945000", "164822.732500", "164823.520000", "164824.310000", "164825.097500", "164825.885000", "164826.672500", "164827.462500", "164828.250000", "164829.037500", "164829.825000", "164830.615000", "164831.402500", "164832.190000", "164832.977500", "164833.767500", "164834.555000", "164835.342500", "164836.132500", "164836.920000", "164837.707500", "164838.495000", "164839.285000", "164840.072500", "164840.860000", "164841.647500", "164842.437500", "164843.225000", "164844.012500", "164844.800000", "164845.590000", "164846.377500", "164847.165000", "164847.952500", "164848.742500", "164849.530000", "164850.317500", "164851.105000", "164851.895000", "164852.682500", "164853.470000", "164854.260000", "164855.047500", "164855.835000", "164856.622500", "164857.412500", "164858.200000", "164858.987500", "164859.775000", "164900.565000", "164901.352500", "164902.140000", "164902.927500", "164903.717500", "164904.505000", "164905.292500", "164906.080000", "164906.870000", "164907.657500", "164908.445000", "164909.235000", "164910.022500", "164910.810000", "164911.597500", "164912.387500", "164913.175000", "164913.962500", "164914.750000", "164915.540000", "164916.327500", "164917.115000", "164917.902500", "164918.692500", "164919.480000", "164920.267500", "164921.055000", "164921.845000"],
      "ContentTime": ["164205.343000", "164205.343000", "164205.359000", "164205.359000", "164205.359000", "164205.359000", "164205.359000", "164205.359000", "164205.359000", "164205.375000", "164205.375000", "164205.375000", "164205.375000", "164205.375000", "164205.375000", "164205.375000", "164205.390000", "164205.390000", "164205.390000", "164205.390000", "164205.390000", "164205.390000", "164205.390000", "164205.406000", "164225.312000", "164225.312000", "164225.328000", "164225.328000", "164225.328000", "164225.328000", "164225.328000", "164225.328000", "164225.343000", "164225.343000", "164225.343000", "164225.343000", "164225.343000", "164225.343000", "164225.343000", "164225.359000", "164225.359000", "164225.359000", "164225.359000", "164225.359000", "164225.359000", "164225.359000", "164225.375000", "164225.375000", "164225.375000", "164245.312000", "164245.312000", "164245.328000", "164245.328000", "164245.328000", "164245.328000", "164245.328000", "164245.328000", "164245.343000", "164245.343000", "164245.343000", "164245.343000", "164245.343000", "164245.343000", "164245.359000", "164245.359000", "164245.359000", "164245.359000", "164245.359000", "164245.359000", "164245.375000", "164245.375000", "164245.375000", "164245.375000", "164245.375000", "164245.375000", "164305.312000", "164305.312000", "164305.328000", "164305.328000", "164305.328000", "164305.328000", "164305.328000", "164305.328000", "164305.328000", "164305.343000", "164305.343000", "164305.343000", "164305.343000", "164305.343000", "164305.343000", "164305.359000", "164305.359000", "164305.359000", "164305.359000", "164305.359000", "164305.359000", "164305.375000", "164305.375000", "164305.375000", "164305.375000", "164325.312000", "164325.312000", "164325.328000", "164325.328000", "164325.328000", "164325.328000", "164325.328000", "164325.328000", "164325.343000", "164325.343000", "164325.343000", "164325.343000", "164325.343000", "164325.343000", "164325.343000", "164325.359000", "164325.359000", "164325.359000", "164325.359000", "164325.359000", "164325.359000", "164325.359000", "164325.375000", "164325.375000", "164325.375000", "164345.312000", "164345.312000", "164345.328000", "164345.328000", "164345.328000", "164345.328000", "164345.328000", "164345.328000", "164345.328000", "164345.343000", "164345.343000", "164345.343000", "164345.343000", "164345.343000", "164345.343000", "164345.343000", "164345.359000", "164345.359000", "164345.359000", "164345.359000", "164345.359000", "164345.359000", "164345.375000", "164345.375000", "164345.375000", "164345.375000", "164405.312000", "164405.328000", "164405.328000", "164405.328000", "164405.328000", "164405.328000", "164405.328000", "164405.343000", "164405.343000", "164405.343000", "164405.343000", "164405.343000", "164405.343000", "164405.343000", "164405.359000", "164405.359000", "164405.359000", "164405.359000", "164405.359000", "164405.359000", "164405.359000", "164405.375000", "164405.375000", "164405.375000", "164405.375000", "164425.312000", "164425.312000", "164425.328000", "164425.328000", "164425.328000", "164425.328000", "164425.328000", "164425.328000", "164425.328000", "164425.343000", "164425.343000", "164425.343000", "164425.343000", "164425.343000", "164425.343000", "164425.343000", "164425.359000", "164425.359000", "164425.359000", "164425.359000", "164425.359000", "164425.359000", "164425.359000", "164425.375000", "164425.375000", "164425.375000", "164445.312000", "164445.312000", "164445.328000", "164445.328000", "164445.328000", "164445.328000", "164445.328000", "164445.328000", "164445.328000", "164445.343000", "164445.343000", "164445.343000", "164445.343000", "164445.343000", "164445.359000", "164445.359000", "164445.359000", "164445.375000", "164445.375000", "164445.375000", "164445.375000", "164445.375000", "164445.375000", "164445.375000", "164445.390000", "164505.312000", "164505.312000", "164505.328000", "164505.328000", "164505.328000", "164505.328000", "164505.328000", "164505.328000", "164505.328000", "164505.343000", "164505.343000", "164505.343000", "164505.343000", "164505.343000", "164505.343000", "164505.343000", "164505.359000", "164505.359000", "164505.359000", "164505.359000", "164505.359000", "164505.359000", "164505.359000", "164505.375000", "164505.375000", "164505.375000", "164525.312000", "164525.312000", "164525.328000", "164525.328000", "164525.328000", "164525.328000", "164525.328000", "164525.328000", "164525.328000", "164525.343000", "164525.343000", "164525.343000", "164525.343000", "164525.343000", "164525.343000", "164525.343000", "164525.359000", "164525.359000", "164525.359000", "164525.359000", "164525.359000", "164525.375000", "164525.375000", "164525.375000", "164525.375000", "164545.312000", "164545.312000", "164545.328000", "164545.328000", "164545.328000", "164545.328000", "164545.328000", "164545.328000", "164545.328000", "164545.343000", "164545.343000", "164545.343000", "164545.343000", "164545.343000", "164545.343000", "164545.359000", "164545.359000", "164545.359000", "164545.359000", "164545.359000", "164545.359000", "164545.359000", "164545.375000", "164545.375000", "164545.375000", "164545.375000", "164605.312000", "164605.312000", "164605.328000", "164605.328000", "164605.328000", "164605.328000", "164605.328000", "164605.328000", "164605.328000", "164605.343000", "164605.343000", "164605.343000", "164605.343000", "164605.343000", "164605.343000", "164605.343000", "164605.359000", "164605.359000", "164605.359000", "164605.359000", "164605.359000", "164605.359000", "164605.359000", "164605.375000", "164605.375000", "164625.312000", "164625.312000", "164625.328000", "164625.328000", "164625.328000", "164625.328000", "164625.328000", "164625.328000", "164625.343000", "164625.343000", "164625.343000", "164625.343000", "164625.343000", "164625.343000", "164625.343000", "164625.359000", "164625.359000", "164625.359000", "164625.359000", "164625.359000", "164625.359000", "164625.375000", "164625.375000", "164625.375000", "164625.375000", "164625.390000", "164645.312000", "164645.312000", "164645.328000", "164645.328000", "164645.328000", "164645.328000", "164645.328000", "164645.328000", "164645.328000", "164645.343000", "164645.343000", "164645.343000", "164645.343000", "164645.343000", "164645.343000", "164645.343000", "164645.359000", "164645.359000", "164645.359000", "164645.359000", "164645.359000", "164645.359000", "164645.359000", "164645.375000", "164645.375000", "164705.312000", "164705.312000", "164705.328000", "164705.328000", "164705.328000", "164705.328000", "164705.328000", "164705.328000", "164705.328000", "164705.343000", "164705.343000", "164705.343000", "164705.343000", "164705.343000", "164705.343000", "164705.359000", "164705.359000", "164705.359000", "164705.359000", "164705.359000", "164705.359000", "164705.375000", "164705.375000", "164705.375000", "164705.375000", "164705.375000", "164725.312000", "164725.312000", "164725.328000", "164725.328000", "164725.328000", "164725.328000", "164725.328000", "164725.328000", "164725.343000", "164725.343000", "164725.343000", "164725.343000", "164725.343000", "164725.343000", "164725.343000", "164725.359000", "164725.359000", "164725.359000", "164725.359000", "164725.359000", "164725.359000", "164725.359000", "164725.375000", "164725.375000", "164725.375000", "164745.312000", "164745.312000", "164745.328000", "164745.328000", "164745.328000", "164745.328000", "164745.328000", "164745.343000", "164745.343000", "164745.343000", "164745.343000", "164745.343000", "164745.359000", "164745.359000", "164745.359000", "164745.359000", "164745.359000", "164745.359000", "164745.359000", "164745.375000", "164745.375000", "164745.375000", "164745.375000", "164745.375000", "164745.390000", "164745.390000", "164805.312000", "164805.312000", "164805.328000", "164805.328000", "164805.328000", "164805.328000", "164805.328000", "164805.328000", "164805.328000", "164805.343000", "164805.343000", "164805.343000", "164805.343000", "164805.343000", "164805.343000", "164805.343000", "164805.359000", "164805.359000", "164805.359000", "164805.359000", "164805.359000", "164805.359000", "164805.359000", "164805.375000", "164805.375000", "164825.312000", "164825.312000", "164825.328000", "164825.328000", "164825.328000", "164825.328000", "164825.328000", "164825.328000", "164825.328000", "164825.343000", "164825.343000", "164825.343000", "164825.343000", "164825.343000", "164825.343000", "164825.343000", "164825.359000", "164825.359000", "164825.359000", "164825.359000", "164825.359000", "164825.359000", "164825.375000", "164825.375000", "164825.375000", "164825.375000", "164845.312000", "164845.312000", "164845.328000", "164845.328000", "164845.328000", "164845.328000", "164845.328000", "164845.328000", "164845.343000", "164845.343000", "164845.343000", "164845.343000", "164845.343000", "164845.343000", "164845.343000", "164845.359000", "164845.359000", "164845.359000", "164845.359000", "164845.359000", "164845.359000", "164845.359000", "164845.375000", "164845.375000", "164845.375000", "164905.312000", "164905.312000", "164905.328000", "164905.328000", "164905.328000", "164905.328000", "164905.328000", "164905.328000", "164905.328000", "164905.343000", "164905.343000", "164905.343000", "164905.343000", "164905.343000", "164905.343000", "164905.343000", "164905.359000", "164905.359000", "164905.359000", "164905.359000", "164905.359000", "164905.359000", "164905.359000", "164905.375000", "164905.375000", "164905.375000", "164922.531000", "164922.531000", "164922.531000", "164922.546000", "164922.546000", "164922.546000", "164922.546000", "164922.546000", "164922.562000", "164922.562000", "164922.562000", "164922.562000", "164922.562000", "164922.562000", "164922.578000", "164922.578000", "164922.578000", "164922.578000", "164922.578000", "164922.578000", "164922.593000", "164922.593000"],
      "DataSetTrailingPadding": [
        "\u0000\u0000\u0000\u0000\u0000\u0000\u0000\u0000\u0000\u0000\u0000\u0000\u0000\u0000\u0000\u0000\u0000\u0000\u0000\u0000\u0000\u0000\u0000\u0000\u0000\u0000\u0000\u0000\u0000\u0000\u0000\u0000\u0000\u0000\u0000\u0000\u0000\u0000\u0000\u0000\u0000\u0000\u0000\u0000\u0000\u0000\u0000\u0000\u0000\u0000\u0000\u0000\u0000\u0000\u0000\u0000\u0000\u0000\u0000\u0000\u0000\u0000\u0000\u0000\u0000\u0000\u0000\u0000\u0000\u0000\u0000\u0000\u0000\u0000\u0000\u0000\u0000\u0000\u0000\u0000\u0000\u0000\u0000\u0000\u0000\u0000\u0000\u0000",
        "\u0000\u0000\u0000\u0000\u0000\u0000\u0000\u0000\u0000\u0000\u0000\u0000\u0000\u0000\u0000\u0000\u0000\u0000\u0000\u0000\u0000\u0000\u0000\u0000\u0000\u0000\u0000\u0000\u0000\u0000\u0000\u0000\u0000\u0000\u0000\u0000\u0000\u0000\u0000\u0000\u0000\u0000\u0000\u0000\u0000\u0000\u0000\u0000\u0000\u0000\u0000\u0000\u0000\u0000\u0000\u0000\u0000\u0000\u0000\u0000\u0000\u0000\u0000\u0000\u0000\u0000\u0000\u0000\u0000\u0000\u0000\u0000\u0000\u0000\u0000\u0000\u0000\u0000\u0000\u0000\u0000\u0000\u0000\u0000\u0000\u0000\u0000\u0000\u0000\u0000",
        "\u0000\u0000\u0000\u0000\u0000\u0000\u0000\u0000\u0000\u0000\u0000\u0000\u0000\u0000\u0000\u0000\u0000\u0000\u0000\u0000\u0000\u0000\u0000\u0000\u0000\u0000\u0000\u0000\u0000\u0000\u0000\u0000\u0000\u0000\u0000\u0000\u0000\u0000\u0000\u0000\u0000\u0000\u0000\u0000\u0000\u0000\u0000\u0000\u0000\u0000\u0000\u0000\u0000\u0000\u0000\u0000\u0000\u0000\u0000\u0000\u0000\u0000\u0000\u0000\u0000\u0000\u0000\u0000\u0000\u0000\u0000\u0000\u0000\u0000\u0000\u0000\u0000\u0000\u0000\u0000\u0000\u0000\u0000\u0000\u0000\u0000\u0000\u0000",
