{
  "AcquisitionMatrixPE": 104,
  "AcquisitionNumber": 1,
  "AcquisitionTime": "16:17:47.120000",
  "BandwidthPerPixelPhaseEncode": 13.935,
  "BaseResolution": 104,
  "CoilString": "C:HEA;HEP",
  "ConversionSoftware": "dcm2niix",
  "ConversionSoftwareVersion": "v1.0.20210317",
  "DerivedVendorReportedEchoSpacing": 0.000690017,
  "DeviceSerialNumber": "35450",
  "DwellTime": 2.5e-06,
  "EchoTime": 0.0348,
  "EffectiveEchoSpacing": 0.000690017,
  "FlipAngle": 55,
  "ImageComments": "Unaliased MB8/PE3 (remote)",
  "ImageOrientationPatientDICOM": [1, 0, 0, 0, 0.999507, -0.0314108],
  "ImageType": [
    "ORIGINAL",
    "PRIMARY",
    "M",
    "MB",
    "ND",
    "MOSAIC"
],
  "ImagingFrequency": 123.234,
  "InPlanePhaseEncodingDirectionDICOM": "COL",
  "InstitutionAddress": "Univeristy Ave. 197,Newark,North East,US,07102-1814",
  "InstitutionName": "RUBIC",
  "InstitutionalDepartmentName": "Department",
  "MRAcquisitionType": "2D",
  "MagneticFieldStrength": 3,
  "Manufacturer": "Siemens",
  "ManufacturersModelName": "TrioTim",
  "Modality": "MR",
  "MultibandAccelerationFactor": 8,
  "PartialFourier": 0.875,
  "PatientPosition": "HFS",
  "PercentPhaseFOV": 100,
  "PercentSampling": 100,
  "PhaseEncodingDirection": "j-",
  "PhaseEncodingSteps": 91,
  "PhaseResolution": 1,
  "PixelBandwidth": 1923,
  "ProcedureStepDescription": "Cole^Michael",
  "ProtocolName": "cmrr_mbep2d_bold_2mm_MB8_Task_8x",
  "PulseSequenceDetails": "%CustomerSeq%\\cmrr_mbep2d_bold",
  "ReceiveCoilName": "32Ch_Head",
  "ReconMatrixPE": 104,
  "RepetitionTime": 0.785,
  "SAR": 0.131186,
  "ScanOptions": "PFP\\FS",
  "ScanningSequence": "EP",
  "SequenceName": "epfid2d1_104",
  "SequenceVariant": "SK\\SS",
  "SeriesDescription": "cmrr_mbep2d_bold_2mm_MB8_Task_8x",
  "SeriesNumber": 13,
  "ShimSetting": [2064, -282, -7292, 660, -156, -68, -38, 98],
  "SliceThickness": 2,
  "SliceTiming": [0, 0.4375, 0.0875, 0.525, 0.175, 0.6125, 0.2625, 0.7, 0.35, 0, 0.4375, 0.0875, 0.525, 0.175, 0.6125, 0.2625, 0.7, 0.35, 0, 0.4375, 0.0875, 0.525, 0.175, 0.6125, 0.2625, 0.7, 0.35, 0, 0.4375, 0.0875, 0.525, 0.175, 0.6125, 0.2625, 0.7, 0.35, 0, 0.4375, 0.0875, 0.525, 0.175, 0.6125, 0.2625, 0.7, 0.35, 0, 0.4375, 0.0875, 0.525, 0.175, 0.6125, 0.2625, 0.7, 0.35, 0, 0.4375, 0.0875, 0.525, 0.175, 0.6125, 0.2625, 0.7, 0.35, 0, 0.4375, 0.0875, 0.525, 0.175, 0.6125, 0.2625, 0.7, 0.35],
  "SoftwareVersions": "syngo MR B19",
  "SpacingBetweenSlices": 2,
  "StationName": "MRC35450",
  "TaskName": "cpro",
  "TotalReadoutTime": 0.0710717,
  "TxRefAmp": 320.613,
  "dcmmeta_affine": [
    [-2.0, 0.0, 0.0, 104.67796325683594],
    [0.0, 1.999013066291809, -0.06282151490449905, -70.57969665527344],
    [0.0, 0.06282151490449905, 1.999013066291809, -94.56122589111328],
    [0.0, 0.0, 0.0, 1.0]
],
  "dcmmeta_reorient_transform": [
    [0.0, -1.0, 0.0, 103.0],
    [1.0, 0.0, 0.0, 0.0],
    [0.0, 0.0, 1.0, 0.0],
    [0.0, 0.0, 0.0, 1.0]
],
  "dcmmeta_shape": [104, 104, 72, 581],
  "dcmmeta_slice_dim": 2,
  "dcmmeta_version": 0.6,
  "global": {
    "const": {
      "AcquisitionMatrix": [104, 0, 0, 104],
      "AngioFlag": "N",
      "BitsAllocated": 16,
      "BitsStored": 12,
      "Columns": 936,
      "EchoNumbers": 1,
      "EchoTime": 34.8,
      "EchoTrainLength": 1,
      "FlipAngle": 55.0,
      "HighBit": 11,
      "ImageOrientationPatient": [1.0, 0.0, 0.0, 0.0, 0.99950656036366, -0.0314107591441],
      "ImagePositionPatient": [-936.67796611786, -966.90811654409, -61.956859763375],
      "ImageType": [
        "ORIGINAL",
        "PRIMARY",
        "M",
        "MB",
        "ND",
        "MOSAIC"
],
      "ImagedNucleus": "1H",
      "ImagingFrequency": 123.234434,
      "InPlanePhaseEncodingDirection": "COL",
      "MRAcquisitionType": "2D",
      "MagneticFieldStrength": 3.0,
      "Manufacturer": "SIEMENS",
      "ManufacturerModelName": "TrioTim",
      "Modality": "MR",
      "NumberOfAverages": 1.0,
      "NumberOfPhaseEncodingSteps": 91,
      "PercentPhaseFieldOfView": 100.0,
      "PercentSampling": 100.0,
      "PerformedProcedureStepStartTime": "150516.296000",
      "PhotometricInterpretation": "MONOCHROME2",
      "PixelBandwidth": 1923.0,
      "PixelRepresentation": 0,
      "PixelSpacing": [2.0, 2.0],
      "ProtocolName": "cmrr_mbep2d_bold_2mm_MB8_Task_8x",
      "RepetitionTime": 785.0,
      "Rows": 936,
      "SAR": 0.1311855007179,
      "SamplesPerPixel": 1,
      "ScanOptions": [
        "PFP",
        "FS"
],
      "ScanningSequence": "EP",
      "SequenceName": "epfid2d1_104",
      "SequenceVariant": [
        "SK",
        "SS"
],
      "SeriesDescription": "cmrr_mbep2d_bold_2mm_MB8_Task_8x",
      "SeriesNumber": 13,
      "SeriesTime": "161805.328000",
      "SliceLocation": -92.29760575628,
      "SliceThickness": 2.0,
      "SmallestImagePixelValue": 0,
      "SoftwareVersions": "syngo MR B19",
      "SpacingBetweenSlices": 2.0000000006836,
      "SpecificCharacterSet": "ISO_IR 100",
      "StudyID": "1",
      "StudyTime": "150516.265000",
      "TransmitCoilName": "Body",
      "VariableFlipAngleFlag": "N",
      "WindowCenterWidthExplanation": "Algo1",
      "dBdt": 0.0},
    "slices": {}
  },
  "time": {
    "samples": {
      "AcquisitionNumber": [1, 2, 3, 4, 5, 6, 7, 8, 9, 10, 11, 12, 13, 14, 15, 16, 17, 18, 19, 20, 21, 22, 23, 24, 25, 26, 27, 28, 29, 30, 31, 32, 33, 34, 35, 36, 37, 38, 39, 40, 41, 42, 43, 44, 45, 46, 47, 48, 49, 50, 51, 52, 53, 54, 55, 56, 57, 58, 59, 60, 61, 62, 63, 64, 65, 66, 67, 68, 69, 70, 71, 72, 73, 74, 75, 76, 77, 78, 79, 80, 81, 82, 83, 84, 85, 86, 87, 88, 89, 90, 91, 92, 93, 94, 95, 96, 97, 98, 99, 100, 101, 102, 103, 104, 105, 106, 107, 108, 109, 110, 111, 112, 113, 114, 115, 116, 117, 118, 119, 120, 121, 122, 123, 124, 125, 126, 127, 128, 129, 130, 131, 132, 133, 134, 135, 136, 137, 138, 139, 140, 141, 142, 143, 144, 145, 146, 147, 148, 149, 150, 151, 152, 153, 154, 155, 156, 157, 158, 159, 160, 161, 162, 163, 164, 165, 166, 167, 168, 169, 170, 171, 172, 173, 174, 175, 176, 177, 178, 179, 180, 181, 182, 183, 184, 185, 186, 187, 188, 189, 190, 191, 192, 193, 194, 195, 196, 197, 198, 199, 200, 201, 202, 203, 204, 205, 206, 207, 208, 209, 210, 211, 212, 213, 214, 215, 216, 217, 218, 219, 220, 221, 222, 223, 224, 225, 226, 227, 228, 229, 230, 231, 232, 233, 234, 235, 236, 237, 238, 239, 240, 241, 242, 243, 244, 245, 246, 247, 248, 249, 250, 251, 252, 253, 254, 255, 256, 257, 258, 259, 260, 261, 262, 263, 264, 265, 266, 267, 268, 269, 270, 271, 272, 273, 274, 275, 276, 277, 278, 279, 280, 281, 282, 283, 284, 285, 286, 287, 288, 289, 290, 291, 292, 293, 294, 295, 296, 297, 298, 299, 300, 301, 302, 303, 304, 305, 306, 307, 308, 309, 310, 311, 312, 313, 314, 315, 316, 317, 318, 319, 320, 321, 322, 323, 324, 325, 326, 327, 328, 329, 330, 331, 332, 333, 334, 335, 336, 337, 338, 339, 340, 341, 342, 343, 344, 345, 346, 347, 348, 349, 350, 351, 352, 353, 354, 355, 356, 357, 358, 359, 360, 361, 362, 363, 364, 365, 366, 367, 368, 369, 370, 371, 372, 373, 374, 375, 376, 377, 378, 379, 380, 381, 382, 383, 384, 385, 386, 387, 388, 389, 390, 391, 392, 393, 394, 395, 396, 397, 398, 399, 400, 401, 402, 403, 404, 405, 406, 407, 408, 409, 410, 411, 412, 413, 414, 415, 416, 417, 418, 419, 420, 421, 422, 423, 424, 425, 426, 427, 428, 429, 430, 431, 432, 433, 434, 435, 436, 437, 438, 439, 440, 441, 442, 443, 444, 445, 446, 447, 448, 449, 450, 451, 452, 453, 454, 455, 456, 457, 458, 459, 460, 461, 462, 463, 464, 465, 466, 467, 468, 469, 470, 471, 472, 473, 474, 475, 476, 477, 478, 479, 480, 481, 482, 483, 484, 485, 486, 487, 488, 489, 490, 491, 492, 493, 494, 495, 496, 497, 498, 499, 500, 501, 502, 503, 504, 505, 506, 507, 508, 509, 510, 511, 512, 513, 514, 515, 516, 517, 518, 519, 520, 521, 522, 523, 524, 525, 526, 527, 528, 529, 530, 531, 532, 533, 534, 535, 536, 537, 538, 539, 540, 541, 542, 543, 544, 545, 546, 547, 548, 549, 550, 551, 552, 553, 554, 555, 556, 557, 558, 559, 560, 561, 562, 563, 564, 565, 566, 567, 568, 569, 570, 571, 572, 573, 574, 575, 576, 577, 578, 579, 580, 581],
      "AcquisitionTime": ["161747.120000", "161747.907500", "161748.697500", "161749.485000", "161750.272500", "161751.060000", "161751.850000", "161752.637500", "161753.425000", "161754.212500", "161755.002500", "161755.790000", "161756.577500", "161757.365000", "161758.155000", "161758.942500", "161759.730000", "161800.517500", "161801.307500", "161802.095000", "161802.882500", "161803.672500", "161804.460000", "161805.247500", "161806.035000", "161806.825000", "161807.612500", "161808.400000", "161809.187500", "161809.977500", "161810.765000", "161811.552500", "161812.340000", "161813.130000", "161813.917500", "161814.705000", "161815.492500", "161816.282500", "161817.070000", "161817.857500", "161818.645000", "161819.435000", "161820.222500", "161821.010000", "161821.800000", "161822.587500", "161823.375000", "161824.162500", "161824.952500", "161825.740000", "161826.527500", "161827.315000", "161828.105000", "161828.892500", "161829.680000", "161830.467500", "161831.257500", "161832.045000", "161832.832500", "161833.620000", "161834.410000", "161835.197500", "161835.985000", "161836.772500", "161837.562500", "161838.350000", "161839.137500", "161839.927500", "161840.715000", "161841.502500", "161842.290000", "161843.080000", "161843.867500", "161844.655000", "161845.442500", "161846.232500", "161847.020000", "161847.807500", "161848.595000", "161849.385000", "161850.172500", "161850.960000", "161851.747500", "161852.537500", "161853.325000", "161854.112500", "161854.902500", "161855.690000", "161856.477500", "161857.265000", "161858.055000", "161858.842500", "161859.630000", "161900.417500", "161901.207500", "161901.995000", "161902.782500", "161903.570000", "161904.360000", "161905.147500", "161905.935000", "161906.722500", "161907.512500", "161908.300000", "161909.087500", "161909.875000", "161910.665000", "161911.452500", "161912.240000", "161913.030000", "161913.817500", "161914.605000", "161915.392500", "161916.182500", "161916.970000", "161917.757500", "161918.545000", "161919.335000", "161920.122500", "161920.910000", "161921.697500", "161922.487500", "161923.275000", "161924.062500", "161924.850000", "161925.640000", "161926.427500", "161927.215000", "161928.002500", "161928.792500", "161929.580000", "161930.367500", "161931.157500", "161931.945000", "161932.732500", "161933.520000", "161934.310000", "161935.097500", "161935.885000", "161936.672500", "161937.462500", "161938.250000", "161939.037500", "161939.825000", "161940.615000", "161941.402500", "161942.190000", "161942.977500", "161943.767500", "161944.555000", "161945.342500", "161946.130000", "161946.920000", "161947.707500", "161948.495000", "161949.285000", "161950.072500", "161950.860000", "161951.647500", "161952.437500", "161953.225000", "161954.012500", "161954.800000", "161955.590000", "161956.377500", "161957.165000", "161957.952500", "161958.742500", "161959.530000", "162000.317500", "162001.105000", "162001.895000", "162002.682500", "162003.470000", "162004.257500", "162005.047500", "162005.835000", "162006.622500", "162007.412500", "162008.200000", "162008.987500", "162009.775000", "162010.565000", "162011.352500", "162012.140000", "162012.927500", "162013.717500", "162014.505000", "162015.292500", "162016.080000", "162016.870000", "162017.657500", "162018.445000", "162019.232500", "162020.022500", "162020.810000", "162021.597500", "162022.385000", "162023.175000", "162023.962500", "162024.750000", "162025.540000", "162026.327500", "162027.115000", "162027.902500", "162028.692500", "162029.480000", "162030.267500", "162031.055000", "162031.845000", "162032.632500", "162033.420000", "162034.207500", "162034.997500", "162035.785000", "162036.572500", "162037.360000", "162038.150000", "162038.937500", "162039.725000", "162040.512500", "162041.302500", "162042.090000", "162042.877500", "162043.667500", "162044.455000", "162045.242500", "162046.030000", "162046.820000", "162047.607500", "162048.395000", "162049.182500", "162049.972500", "162050.760000", "162051.547500", "162052.335000", "162053.125000", "162053.912500", "162054.700000", "162055.487500", "162056.277500", "162057.065000", "162057.852500", "162058.640000", "162059.430000", "162100.217500", "162101.005000", "162101.795000", "162102.582500", "162103.370000", "162104.157500", "162104.947500", "162105.735000", "162106.522500", "162107.310000", "162108.100000", "162108.887500", "162109.675000", "162110.462500", "162111.252500", "162112.040000", "162112.827500", "162113.615000", "162114.405000", "162115.192500", "162115.980000", "162116.767500", "162117.557500", "162118.345000", "162119.132500", "162119.922500", "162120.710000", "162121.497500", "162122.285000", "162123.075000", "162123.862500", "162124.650000", "162125.437500", "162126.227500", "162127.015000", "162127.802500", "162128.590000", "162129.380000", "162130.167500", "162130.955000", "162131.742500", "162132.532500", "162133.320000", "162134.107500", "162134.895000", "162135.685000", "162136.472500", "162137.260000", "162138.050000", "162138.837500", "162139.625000", "162140.412500", "162141.202500", "162141.990000", "162142.777500", "162143.565000", "162144.355000", "162145.142500", "162145.930000", "162146.717500", "162147.507500", "162148.295000", "162149.082500", "162149.870000", "162150.660000", "162151.447500", "162152.235000", "162153.022500", "162153.812500", "162154.600000", "162155.387500", "162156.177500", "162156.965000", "162157.752500", "162158.540000", "162159.330000", "162200.117500", "162200.905000", "162201.692500", "162202.482500", "162203.270000", "162204.057500", "162204.845000", "162205.635000", "162206.422500", "162207.210000", "162207.997500", "162208.787500", "162209.575000", "162210.362500", "162211.152500", "162211.940000", "162212.727500", "162213.515000", "162214.305000", "162215.092500", "162215.880000", "162216.667500", "162217.457500", "162218.245000", "162219.032500", "162219.820000", "162220.610000", "162221.397500", "162222.185000", "162222.972500", "162223.762500", "162224.550000", "162225.337500", "162226.125000", "162226.915000", "162227.702500", "162228.490000", "162229.280000", "162230.067500", "162230.855000", "162231.642500", "162232.432500", "162233.220000", "162234.007500", "162234.795000", "162235.585000", "162236.372500", "162237.160000", "162237.947500", "162238.737500", "162239.525000", "162240.312500", "162241.100000", "162241.890000", "162242.677500", "162243.465000", "162244.252500", "162245.042500", "162245.830000", "162246.617500", "162247.407500", "162248.195000", "162248.982500", "162249.770000", "162250.560000", "162251.347500", "162252.135000", "162252.922500", "162253.712500", "162254.500000", "162255.287500", "162256.075000", "162256.865000", "162257.652500", "162258.440000", "162259.227500", "162300.017500", "162300.805000", "162301.592500", "162302.380000", "162303.170000", "162303.957500", "162304.745000", "162305.535000", "162306.322500", "162307.110000", "162307.897500", "162308.687500", "162309.475000", "162310.262500", "162311.050000", "162311.840000", "162312.627500", "162313.415000", "162314.202500", "162314.992500", "162315.780000", "162316.567500", "162317.355000", "162318.145000", "162318.932500", "162319.720000", "162320.507500", "162321.297500", "162322.085000", "162322.872500", "162323.662500", "162324.450000", "162325.237500", "162326.025000", "162326.815000", "162327.602500", "162328.390000", "162329.177500", "162329.967500", "162330.755000", "162331.542500", "162332.330000", "162333.120000", "162333.907500", "162334.695000", "162335.482500", "162336.272500", "162337.060000", "162337.847500", "162338.635000", "162339.425000", "162340.212500", "162341.000000", "162341.790000", "162342.577500", "162343.365000", "162344.152500", "162344.942500", "162345.730000", "162346.517500", "162347.305000", "162348.095000", "162348.882500", "162349.670000", "162350.457500", "162351.247500", "162352.035000", "162352.822500", "162353.610000", "162354.400000", "162355.187500", "162355.975000", "162356.762500", "162357.552500", "162358.340000", "162359.127500", "162359.917500", "162400.705000", "162401.492500", "162402.280000", "162403.070000", "162403.857500", "162404.645000", "162405.432500", "162406.222500", "162407.010000", "162407.797500", "162408.585000", "162409.375000", "162410.162500", "162410.950000", "162411.737500", "162412.527500", "162413.315000", "162414.102500", "162414.890000", "162415.680000", "162416.467500", "162417.255000", "162418.045000", "162418.832500", "162419.620000", "162420.407500", "162421.197500", "162421.985000", "162422.772500", "162423.560000", "162424.350000", "162425.137500", "162425.925000", "162426.712500", "162427.502500", "162428.290000", "162429.077500", "162429.865000", "162430.655000", "162431.442500", "162432.230000", "162433.017500", "162433.807500", "162434.595000", "162435.382500", "162436.172500", "162436.960000", "162437.747500", "162438.535000", "162439.325000", "162440.112500", "162440.900000", "162441.687500", "162442.477500", "162443.265000", "162444.052500", "162444.840000", "162445.630000", "162446.417500", "162447.205000", "162447.992500", "162448.782500", "162449.570000", "162450.357500", "162451.145000", "162451.935000", "162452.722500", "162453.510000", "162454.300000", "162455.087500", "162455.875000", "162456.662500", "162457.452500", "162458.240000", "162459.027500", "162459.815000", "162500.605000", "162501.392500", "162502.180000", "162502.967500", "162503.757500", "162504.545000", "162505.332500", "162506.120000", "162506.910000", "162507.697500", "162508.485000", "162509.272500", "162510.062500", "162510.850000", "162511.637500", "162512.427500", "162513.215000", "162514.002500", "162514.790000", "162515.580000", "162516.367500", "162517.155000", "162517.942500", "162518.732500", "162519.520000", "162520.307500", "162521.095000", "162521.885000", "162522.672500", "162523.460000", "162524.247500"],
      "ContentTime": ["161805.328000", "161805.343000", "161805.343000", "161805.343000", "161805.343000", "161805.343000", "161805.343000", "161805.343000", "161805.359000", "161805.359000", "161805.359000", "161805.359000", "161805.359000", "161805.375000", "161805.375000", "161805.375000", "161805.375000", "161805.375000", "161805.375000", "161805.390000", "161805.390000", "161825.312000", "161825.312000", "161825.328000", "161825.328000", "161825.328000", "161825.328000", "161825.328000", "161825.328000", "161825.328000", "161825.343000", "161825.343000", "161825.343000", "161825.343000", "161825.343000", "161825.343000", "161825.343000", "161825.359000", "161825.359000", "161825.359000", "161825.359000", "161825.359000", "161825.359000", "161825.375000", "161825.375000", "161825.375000", "161845.312000", "161845.328000", "161845.328000", "161845.328000", "161845.328000", "161845.328000", "161845.343000", "161845.343000", "161845.343000", "161845.343000", "161845.343000", "161845.359000", "161845.359000", "161845.390000", "161845.390000", "161845.390000", "161845.390000", "161845.390000", "161845.390000", "161845.390000", "161845.406000", "161845.406000", "161845.406000", "161845.406000", "161845.406000", "161905.312000", "161905.312000", "161905.328000", "161905.328000", "161905.328000", "161905.328000", "161905.328000", "161905.328000", "161905.328000", "161905.343000", "161905.343000", "161905.343000", "161905.343000", "161905.343000", "161905.343000", "161905.343000", "161905.359000", "161905.359000", "161905.359000", "161905.359000", "161905.359000", "161905.359000", "161905.375000", "161905.375000", "161905.375000", "161905.375000", "161925.312000", "161925.312000", "161925.328000", "161925.328000", "161925.328000", "161925.328000", "161925.343000", "161925.343000", "161925.343000", "161925.343000", "161925.343000", "161925.343000", "161925.359000", "161925.359000", "161925.359000", "161925.359000", "161925.359000", "161925.359000", "161925.359000", "161925.375000", "161925.375000", "161925.375000", "161925.375000", "161925.375000", "161925.375000", "161945.312000", "161945.312000", "161945.328000", "161945.328000", "161945.328000", "161945.328000", "161945.328000", "161945.328000", "161945.343000", "161945.343000", "161945.343000", "161945.343000", "161945.343000", "161945.343000", "161945.343000", "161945.359000", "161945.359000", "161945.359000", "161945.359000", "161945.359000", "161945.359000", "161945.359000", "161945.375000", "161945.375000", "161945.375000", "161945.375000", "162005.312000", "162005.312000", "162005.328000", "162005.328000", "162005.328000", "162005.328000", "162005.328000", "162005.343000", "162005.343000", "162005.343000", "162005.343000", "162005.343000", "162005.343000", "162005.343000", "162005.359000", "162005.359000", "162005.359000", "162005.375000", "162005.375000", "162005.390000", "162005.390000", "162005.390000", "162005.390000", "162005.390000", "162005.406000", "162025.312000", "162025.312000", "162025.328000", "162025.328000", "162025.328000", "162025.328000", "162025.328000", "162025.328000", "162025.343000", "162025.343000", "162025.343000", "162025.343000", "162025.343000", "162025.343000", "162025.343000", "162025.359000", "162025.359000", "162025.359000", "162025.359000", "162025.359000", "162025.359000", "162025.359000", "162025.375000", "162025.375000", "162025.375000", "162025.375000", "162045.312000", "162045.312000", "162045.328000", "162045.328000", "162045.328000", "162045.328000", "162045.328000", "162045.328000", "162045.328000", "162045.343000", "162045.343000", "162045.343000", "162045.343000", "162045.343000", "162045.343000", "162045.359000", "162045.359000", "162045.359000", "162045.359000", "162045.359000", "162045.359000", "162045.375000", "162045.375000", "162045.375000", "162045.375000", "162105.312000", "162105.312000", "162105.328000", "162105.328000", "162105.328000", "162105.328000", "162105.328000", "162105.328000", "162105.328000", "162105.343000", "162105.343000", "162105.343000", "162105.343000", "162105.343000", "162105.343000", "162105.343000", "162105.359000", "162105.359000", "162105.359000", "162105.359000", "162105.359000", "162105.359000", "162105.375000", "162105.375000", "162105.375000", "162105.375000", "162125.312000", "162125.312000", "162125.328000", "162125.328000", "162125.328000", "162125.328000", "162125.328000", "162125.328000", "162125.328000", "162125.343000", "162125.343000", "162125.343000", "162125.343000", "162125.343000", "162125.343000", "162125.343000", "162125.359000", "162125.359000", "162125.359000", "162125.359000", "162125.359000", "162125.359000", "162125.375000", "162125.375000", "162125.375000", "162145.312000", "162145.312000", "162145.328000", "162145.328000", "162145.328000", "162145.328000", "162145.328000", "162145.328000", "162145.328000", "162145.343000", "162145.343000", "162145.343000", "162145.343000", "162145.343000", "162145.343000", "162145.343000", "162145.359000", "162145.359000", "162145.359000", "162145.359000", "162145.359000", "162145.359000", "162145.375000", "162145.375000", "162145.375000", "162145.375000", "162205.312000", "162205.312000", "162205.328000", "162205.328000", "162205.328000", "162205.328000", "162205.328000", "162205.328000", "162205.328000", "162205.343000", "162205.343000", "162205.343000", "162205.343000", "162205.343000", "162205.343000", "162205.343000", "162205.359000", "162205.359000", "162205.359000", "162205.359000", "162205.359000", "162205.359000", "162205.375000", "162205.375000", "162205.375000", "162225.312000", "162225.312000", "162225.328000", "162225.328000", "162225.328000", "162225.328000", "162225.328000", "162225.328000", "162225.328000", "162225.343000", "162225.343000", "162225.343000", "162225.343000", "162225.343000", "162225.343000", "162225.343000", "162225.359000", "162225.359000", "162225.359000", "162225.359000", "162225.359000", "162225.375000", "162225.375000", "162225.375000", "162225.375000", "162225.375000", "162245.312000", "162245.312000", "162245.328000", "162245.328000", "162245.328000", "162245.328000", "162245.328000", "162245.328000", "162245.328000", "162245.343000", "162245.343000", "162245.343000", "162245.343000", "162245.343000", "162245.343000", "162245.359000", "162245.359000", "162245.359000", "162245.359000", "162245.359000", "162245.375000", "162245.375000", "162245.375000", "162245.375000", "162245.375000", "162305.312000", "162305.312000", "162305.328000", "162305.328000", "162305.328000", "162305.328000", "162305.328000", "162305.328000", "162305.328000", "162305.343000", "162305.343000", "162305.343000", "162305.343000", "162305.343000", "162305.343000", "162305.343000", "162305.359000", "162305.359000", "162305.359000", "162305.359000", "162305.359000", "162305.375000", "162305.375000", "162305.375000", "162305.375000", "162305.375000", "162325.312000", "162325.312000", "162325.328000", "162325.328000", "162325.328000", "162325.328000", "162325.328000", "162325.328000", "162325.343000", "162325.343000", "162325.343000", "162325.343000", "162325.343000", "162325.343000", "162325.343000", "162325.359000", "162325.359000", "162325.359000", "162325.359000", "162325.359000", "162325.359000", "162325.359000", "162325.375000", "162325.375000", "162325.375000", "162345.312000", "162345.312000", "162345.328000", "162345.328000", "162345.328000", "162345.328000", "162345.328000", "162345.328000", "162345.328000", "162345.343000", "162345.343000", "162345.343000", "162345.343000", "162345.343000", "162345.343000", "162345.343000", "162345.359000", "162345.359000", "162345.359000", "162345.359000", "162345.359000", "162345.359000", "162345.375000", "162345.375000", "162345.375000", "162345.375000", "162405.312000", "162405.312000", "162405.328000", "162405.328000", "162405.328000", "162405.328000", "162405.328000", "162405.328000", "162405.328000", "162405.343000", "162405.343000", "162405.343000", "162405.343000", "162405.343000", "162405.343000", "162405.359000", "162405.359000", "162405.359000", "162405.359000", "162405.359000", "162405.359000", "162405.359000", "162405.375000", "162405.375000", "162405.375000", "162425.312000", "162425.312000", "162425.328000", "162425.328000", "162425.328000", "162425.328000", "162425.328000", "162425.328000", "162425.328000", "162425.343000", "162425.343000", "162425.343000", "162425.343000", "162425.343000", "162425.343000", "162425.343000", "162425.359000", "162425.359000", "162425.359000", "162425.359000", "162425.359000", "162425.359000", "162425.375000", "162425.375000", "162425.375000", "162425.375000", "162445.312000", "162445.328000", "162445.328000", "162445.328000", "162445.343000", "162445.343000", "162445.343000", "162445.343000", "162445.343000", "162445.343000", "162445.343000", "162445.359000", "162445.359000", "162445.359000", "162445.359000", "162445.359000", "162445.359000", "162445.359000", "162445.375000", "162445.375000", "162445.375000", "162445.375000", "162445.375000", "162445.375000", "162445.390000", "162505.312000", "162505.312000", "162505.328000", "162505.328000", "162505.328000", "162505.328000", "162505.328000", "162505.328000", "162505.328000", "162505.343000", "162505.343000", "162505.343000", "162505.343000", "162505.343000", "162505.343000", "162505.359000", "162505.359000", "162505.359000", "162505.359000", "162505.359000", "162505.359000", "162505.359000", "162505.375000", "162505.375000", "162505.375000", "162505.375000", "162525.031000", "162525.031000", "162525.046000", "162525.046000", "162525.046000", "162525.046000", "162525.046000", "162525.046000", "162525.046000", "162525.062000", "162525.062000", "162525.062000", "162525.062000", "162525.062000", "162525.062000", "162525.078000", "162525.078000", "162525.078000", "162525.078000", "162525.078000", "162525.078000", "162525.078000", "162525.093000", "162525.093000", "162525.093000"],
      "DataSetTrailingPadding": [
        "\u0000\u0000\u0000\u0000\u0000\u0000\u0000\u0000\u0000\u0000\u0000\u0000\u0000\u0000\u0000\u0000\u0000\u0000\u0000\u0000\u0000\u0000\u0000\u0000\u0000\u0000\u0000\u0000\u0000\u0000\u0000\u0000\u0000\u0000\u0000\u0000\u0000\u0000\u0000\u0000\u0000\u0000\u0000\u0000\u0000\u0000\u0000\u0000\u0000\u0000\u0000\u0000\u0000\u0000\u0000\u0000\u0000\u0000\u0000\u0000\u0000\u0000\u0000\u0000\u0000\u0000\u0000\u0000\u0000\u0000\u0000\u0000\u0000\u0000\u0000\u0000\u0000\u0000\u0000\u0000\u0000\u0000\u0000\u0000\u0000\u0000\u0000\u0000",
        "\u0000\u0000\u0000\u0000\u0000\u0000\u0000\u0000\u0000\u0000\u0000\u0000\u0000\u0000\u0000\u0000\u0000\u0000\u0000\u0000\u0000\u0000\u0000\u0000\u0000\u0000\u0000\u0000\u0000\u0000\u0000\u0000\u0000\u0000\u0000\u0000\u0000\u0000\u0000\u0000\u0000\u0000\u0000\u0000\u0000\u0000\u0000\u0000\u0000\u0000\u0000\u0000\u0000\u0000\u0000\u0000\u0000\u0000\u0000\u0000\u0000\u0000\u0000\u0000\u0000\u0000\u0000\u0000\u0000\u0000\u0000\u0000\u0000\u0000\u0000\u0000\u0000\u0000\u0000\u0000\u0000\u0000\u0000\u0000\u0000\u0000\u0000\u0000",
        "\u0000\u0000\u0000\u0000\u0000\u0000\u0000\u0000\u0000\u0000\u0000\u0000\u0000\u0000\u0000\u0000\u0000\u0000\u0000\u0000\u0000\u0000\u0000\u0000\u0000\u0000\u0000\u0000\u0000\u0000\u0000\u0000\u0000\u0000\u0000\u0000\u0000\u0000\u0000\u0000\u0000\u0000\u0000\u0000\u0000\u0000\u0000\u0000\u0000\u0000\u0000\u0000\u0000\u0000\u0000\u0000\u0000\u0000\u0000\u0000\u0000\u0000\u0000\u0000\u0000\u0000\u0000\u0000\u0000\u0000\u0000\u0000\u0000\u0000\u0000\u0000\u0000\u0000\u0000\u0000\u0000\u0000\u0000\u0000\u0000\u0000",
        "\u0000\u0000\u0000\u0000\u0000\u0000\u0000\u0000\u0000\u0000\u0000\u0000\u0000\u0000\u0000\u0000\u0000\u0000\u0000\u0000\u0000\u0000\u0000\u0000\u0000\u0000\u0000\u0000\u0000\u0000\u0000\u0000\u0000\u0000\u0000\u0000\u0000\u0000\u0000\u0000\u0000\u0000\u0000\u0000\u0000\u0000\u0000\u0000\u0000\u0000\u0000\u0000\u0000\u0000\u0000\u0000\u0000\u0000\u0000\u0000\u0000\u0000\u0000\u0000\u0000\u0000\u0000\u0000\u0000\u0000\u0000\u0000\u0000\u0000\u0000\u0000\u0000\u0000\u0000\u0000\u0000\u0000\u0000\u0000\u0000\u0000",
