{
  "AcquisitionMatrixPE": 104,
  "AcquisitionNumber": 1,
  "AcquisitionTime": "14:51:45.185000",
  "BandwidthPerPixelPhaseEncode": 13.935,
  "BaseResolution": 104,
  "CoilString": "C:HEA;HEP",
  "ConversionSoftware": "dcm2niix",
  "ConversionSoftwareVersion": "v1.0.20210317",
  "DerivedVendorReportedEchoSpacing": 0.000690017,
  "DeviceSerialNumber": "35450",
  "DwellTime": 2.5e-06,
  "EchoTime": 0.0348,
  "EffectiveEchoSpacing": 0.000690017,
  "FlipAngle": 55,
  "ImageComments": "Unaliased MB8/PE3 (remote)",
  "ImageOrientationPatientDICOM": [1, 0, 0, 0, 0.99956, -0.0296662],
  "ImageType": [
    "ORIGINAL",
    "PRIMARY",
    "M",
    "MB",
    "ND",
    "MOSAIC"
],
  "ImagingFrequency": 123.234,
  "InPlanePhaseEncodingDirectionDICOM": "COL",
  "InstitutionAddress": "Univeristy Ave. 197,Newark,North East,US,07102-1814",
  "InstitutionName": "RUBIC",
  "InstitutionalDepartmentName": "Department",
  "MRAcquisitionType": "2D",
  "MagneticFieldStrength": 3,
  "Manufacturer": "Siemens",
  "ManufacturersModelName": "TrioTim",
  "Modality": "MR",
  "MultibandAccelerationFactor": 8,
  "PartialFourier": 0.875,
  "PatientPosition": "HFS",
  "PercentPhaseFOV": 100,
  "PercentSampling": 100,
  "PhaseEncodingDirection": "j-",
  "PhaseEncodingSteps": 91,
  "PhaseResolution": 1,
  "PixelBandwidth": 1923,
  "ProcedureStepDescription": "Cole^Michael",
  "ProtocolName": "cmrr_mbep2d_bold_2mm_MB8_Task_8x",
  "PulseSequenceDetails": "%CustomerSeq%\\cmrr_mbep2d_bold",
  "ReceiveCoilName": "32Ch_Head",
  "ReconMatrixPE": 104,
  "RepetitionTime": 0.785,
  "SAR": 0.151317,
  "ScanOptions": "PFP\\FS",
  "ScanningSequence": "EP",
  "SequenceName": "epfid2d1_104",
  "SequenceVariant": "SK\\SS",
  "SeriesDescription": "cmrr_mbep2d_bold_2mm_MB8_Task_8x",
  "SeriesNumber": 14,
  "ShimSetting": [2066, -459, -7244, 545, -68, -154, 113, 65],
  "SliceThickness": 2,
  "SliceTiming": [0, 0.4375, 0.0875, 0.525, 0.175, 0.6125, 0.2625, 0.7, 0.35, 0, 0.4375, 0.0875, 0.525, 0.175, 0.6125, 0.2625, 0.7, 0.35, 0, 0.4375, 0.0875, 0.525, 0.175, 0.6125, 0.2625, 0.7, 0.35, 0, 0.4375, 0.0875, 0.525, 0.175, 0.6125, 0.2625, 0.7, 0.35, 0, 0.4375, 0.0875, 0.525, 0.175, 0.6125, 0.2625, 0.7, 0.35, 0, 0.4375, 0.0875, 0.525, 0.175, 0.6125, 0.2625, 0.7, 0.35, 0, 0.4375, 0.0875, 0.525, 0.175, 0.6125, 0.2625, 0.7, 0.35, 0, 0.4375, 0.0875, 0.525, 0.175, 0.6125, 0.2625, 0.7, 0.35],
  "SoftwareVersions": "syngo MR B19",
  "SpacingBetweenSlices": 2,
  "StationName": "MRC35450",
  "TaskName": "cpro",
  "TotalReadoutTime": 0.0710717,
  "TxRefAmp": 302.372,
  "dcmmeta_affine": [
    [-2.0, 0.0, 0.0, 103.32203674316406],
    [0.0, 1.999119758605957, -0.05933248624205589, -81.2624740600586],
    [0.0, 0.05933248624205589, 1.999119758605957, -86.10166931152344],
    [0.0, 0.0, 0.0, 1.0]
],
  "dcmmeta_reorient_transform": [
    [0.0, -1.0, 0.0, 103.0],
    [1.0, 0.0, 0.0, 0.0],
    [0.0, 0.0, 1.0, 0.0],
    [0.0, 0.0, 0.0, 1.0]
],
  "dcmmeta_shape": [104, 104, 72, 581],
  "dcmmeta_slice_dim": 2,
  "dcmmeta_version": 0.6,
  "global": {
    "const": {
      "AcquisitionMatrix": [104, 0, 0, 104],
      "AngioFlag": "N",
      "BitsAllocated": 16,
      "BitsStored": 12,
      "Columns": 936,
      "EchoNumbers": 1,
      "EchoTime": 34.8,
      "EchoTrainLength": 1,
      "FlipAngle": 55.0,
      "HighBit": 11,
      "ImageOrientationPatient": [1.0, 0.0, 0.0, 0.0, 0.9995598601523, -0.0296662429762],
      "ImagePositionPatient": [-935.32203388214, -956.28066368507, -55.308110685594],
      "ImageType": [
        "ORIGINAL",
        "PRIMARY",
        "M",
        "MB",
        "ND",
        "MOSAIC"
],
      "ImagedNucleus": "1H",
      "ImagingFrequency": 123.23441,
      "InPlanePhaseEncodingDirection": "COL",
      "MRAcquisitionType": "2D",
      "MagneticFieldStrength": 3.0,
      "Manufacturer": "SIEMENS",
      "ManufacturerModelName": "TrioTim",
      "Modality": "MR",
      "NumberOfAverages": 1.0,
      "NumberOfPhaseEncodingSteps": 91,
      "PercentPhaseFieldOfView": 100.0,
      "PercentSampling": 100.0,
      "PerformedProcedureStepStartTime": "135737.171000",
      "PhotometricInterpretation": "MONOCHROME2",
      "PixelBandwidth": 1923.0,
      "PixelRepresentation": 0,
      "PixelSpacing": [2.0, 2.0],
      "ProtocolName": "cmrr_mbep2d_bold_2mm_MB8_Task_8x",
      "RepetitionTime": 785.0,
      "Rows": 936,
      "SAR": 0.15131720394368,
      "SamplesPerPixel": 1,
      "ScanOptions": [
        "PFP",
        "FS"
],
      "ScanningSequence": "EP",
      "SequenceName": "epfid2d1_104",
      "SequenceVariant": [
        "SK",
        "SS"
],
      "SeriesDescription": "cmrr_mbep2d_bold_2mm_MB8_Task_8x",
      "SeriesNumber": 14,
      "SeriesTime": "145211.750000",
      "SliceLocation": -83.653021904514,
      "SliceThickness": 2.0,
      "SmallestImagePixelValue": 0,
      "SoftwareVersions": "syngo MR B19",
      "SpacingBetweenSlices": 1.9999999979758,
      "SpecificCharacterSet": "ISO_IR 100",
      "StudyID": "1",
      "StudyTime": "135737.062000",
      "TransmitCoilName": "Body",
      "VariableFlipAngleFlag": "N",
      "WindowCenterWidthExplanation": "Algo1",
      "dBdt": 0.0},
    "slices": {}
  },
  "time": {
    "samples": {
      "AcquisitionNumber": [1, 2, 3, 4, 5, 6, 7, 8, 9, 10, 11, 12, 13, 14, 15, 16, 17, 18, 19, 20, 21, 22, 23, 24, 25, 26, 27, 28, 29, 30, 31, 32, 33, 34, 35, 36, 37, 38, 39, 40, 41, 42, 43, 44, 45, 46, 47, 48, 49, 50, 51, 52, 53, 54, 55, 56, 57, 58, 59, 60, 61, 62, 63, 64, 65, 66, 67, 68, 69, 70, 71, 72, 73, 74, 75, 76, 77, 78, 79, 80, 81, 82, 83, 84, 85, 86, 87, 88, 89, 90, 91, 92, 93, 94, 95, 96, 97, 98, 99, 100, 101, 102, 103, 104, 105, 106, 107, 108, 109, 110, 111, 112, 113, 114, 115, 116, 117, 118, 119, 120, 121, 122, 123, 124, 125, 126, 127, 128, 129, 130, 131, 132, 133, 134, 135, 136, 137, 138, 139, 140, 141, 142, 143, 144, 145, 146, 147, 148, 149, 150, 151, 152, 153, 154, 155, 156, 157, 158, 159, 160, 161, 162, 163, 164, 165, 166, 167, 168, 169, 170, 171, 172, 173, 174, 175, 176, 177, 178, 179, 180, 181, 182, 183, 184, 185, 186, 187, 188, 189, 190, 191, 192, 193, 194, 195, 196, 197, 198, 199, 200, 201, 202, 203, 204, 205, 206, 207, 208, 209, 210, 211, 212, 213, 214, 215, 216, 217, 218, 219, 220, 221, 222, 223, 224, 225, 226, 227, 228, 229, 230, 231, 232, 233, 234, 235, 236, 237, 238, 239, 240, 241, 242, 243, 244, 245, 246, 247, 248, 249, 250, 251, 252, 253, 254, 255, 256, 257, 258, 259, 260, 261, 262, 263, 264, 265, 266, 267, 268, 269, 270, 271, 272, 273, 274, 275, 276, 277, 278, 279, 280, 281, 282, 283, 284, 285, 286, 287, 288, 289, 290, 291, 292, 293, 294, 295, 296, 297, 298, 299, 300, 301, 302, 303, 304, 305, 306, 307, 308, 309, 310, 311, 312, 313, 314, 315, 316, 317, 318, 319, 320, 321, 322, 323, 324, 325, 326, 327, 328, 329, 330, 331, 332, 333, 334, 335, 336, 337, 338, 339, 340, 341, 342, 343, 344, 345, 346, 347, 348, 349, 350, 351, 352, 353, 354, 355, 356, 357, 358, 359, 360, 361, 362, 363, 364, 365, 366, 367, 368, 369, 370, 371, 372, 373, 374, 375, 376, 377, 378, 379, 380, 381, 382, 383, 384, 385, 386, 387, 388, 389, 390, 391, 392, 393, 394, 395, 396, 397, 398, 399, 400, 401, 402, 403, 404, 405, 406, 407, 408, 409, 410, 411, 412, 413, 414, 415, 416, 417, 418, 419, 420, 421, 422, 423, 424, 425, 426, 427, 428, 429, 430, 431, 432, 433, 434, 435, 436, 437, 438, 439, 440, 441, 442, 443, 444, 445, 446, 447, 448, 449, 450, 451, 452, 453, 454, 455, 456, 457, 458, 459, 460, 461, 462, 463, 464, 465, 466, 467, 468, 469, 470, 471, 472, 473, 474, 475, 476, 477, 478, 479, 480, 481, 482, 483, 484, 485, 486, 487, 488, 489, 490, 491, 492, 493, 494, 495, 496, 497, 498, 499, 500, 501, 502, 503, 504, 505, 506, 507, 508, 509, 510, 511, 512, 513, 514, 515, 516, 517, 518, 519, 520, 521, 522, 523, 524, 525, 526, 527, 528, 529, 530, 531, 532, 533, 534, 535, 536, 537, 538, 539, 540, 541, 542, 543, 544, 545, 546, 547, 548, 549, 550, 551, 552, 553, 554, 555, 556, 557, 558, 559, 560, 561, 562, 563, 564, 565, 566, 567, 568, 569, 570, 571, 572, 573, 574, 575, 576, 577, 578, 579, 580, 581],
      "AcquisitionTime": ["145145.185000", "145145.975000", "145146.762500", "145147.550000", "145148.337500", "145149.127500", "145149.915000", "145150.702500", "145151.490000", "145152.280000", "145153.067500", "145153.855000", "145154.642500", "145155.432500", "145156.220000", "145157.007500", "145157.795000", "145158.585000", "145159.372500", "145200.160000", "145200.950000", "145201.737500", "145202.525000", "145203.312500", "145204.102500", "145204.890000", "145205.677500", "145206.465000", "145207.255000", "145208.042500", "145208.830000", "145209.617500", "145210.407500", "145211.195000", "145211.982500", "145212.770000", "145213.560000", "145214.347500", "145215.135000", "145215.922500", "145216.712500", "145217.500000", "145218.287500", "145219.077500", "145219.865000", "145220.652500", "145221.440000", "145222.230000", "145223.017500", "145223.805000", "145224.592500", "145225.382500", "145226.170000", "145226.957500", "145227.745000", "145228.535000", "145229.322500", "145230.110000", "145230.897500", "145231.687500", "145232.475000", "145233.262500", "145234.050000", "145234.840000", "145235.627500", "145236.415000", "145237.205000", "145237.992500", "145238.780000", "145239.567500", "145240.357500", "145241.145000", "145241.932500", "145242.720000", "145243.510000", "145244.297500", "145245.085000", "145245.872500", "145246.662500", "145247.450000", "145248.237500", "145249.025000", "145249.815000", "145250.602500", "145251.390000", "145252.177500", "145252.967500", "145253.755000", "145254.542500", "145255.332500", "145256.120000", "145256.907500", "145257.695000", "145258.485000", "145259.272500", "145300.060000", "145300.847500", "145301.637500", "145302.425000", "145303.212500", "145304.000000", "145304.790000", "145305.577500", "145306.365000", "145307.152500", "145307.942500", "145308.730000", "145309.517500", "145310.307500", "145311.095000", "145311.882500", "145312.670000", "145313.460000", "145314.247500", "145315.035000", "145315.822500", "145316.612500", "145317.400000", "145318.187500", "145318.975000", "145319.765000", "145320.552500", "145321.340000", "145322.127500", "145322.917500", "145323.705000", "145324.492500", "145325.280000", "145326.070000", "145326.857500", "145327.645000", "145328.435000", "145329.222500", "145330.010000", "145330.797500", "145331.587500", "145332.375000", "145333.162500", "145333.950000", "145334.740000", "145335.527500", "145336.315000", "145337.102500", "145337.892500", "145338.680000", "145339.467500", "145340.255000", "145341.045000", "145341.832500", "145342.620000", "145343.407500", "145344.197500", "145344.985000", "145345.772500", "145346.562500", "145347.350000", "145348.137500", "145348.925000", "145349.715000", "145350.502500", "145351.290000", "145352.077500", "145352.867500", "145353.655000", "145354.442500", "145355.230000", "145356.020000", "145356.807500", "145357.595000", "145358.382500", "145359.172500", "145359.960000", "145400.747500", "145401.535000", "145402.325000", "145403.112500", "145403.900000", "145404.690000", "145405.477500", "145406.265000", "145407.052500", "145407.842500", "145408.630000", "145409.417500", "145410.205000", "145410.995000", "145411.782500", "145412.570000", "145413.357500", "145414.147500", "145414.935000", "145415.722500", "145416.510000", "145417.300000", "145418.087500", "145418.875000", "145419.662500", "145420.452500", "145421.240000", "145422.027500", "145422.817500", "145423.605000", "145424.392500", "145425.180000", "145425.970000", "145426.757500", "145427.545000", "145428.332500", "145429.122500", "145429.910000", "145430.697500", "145431.485000", "145432.275000", "145433.062500", "145433.850000", "145434.637500", "145435.427500", "145436.215000", "145437.002500", "145437.790000", "145438.580000", "145439.367500", "145440.155000", "145440.945000", "145441.732500", "145442.520000", "145443.307500", "145444.097500", "145444.885000", "145445.672500", "145446.460000", "145447.250000", "145448.037500", "145448.825000", "145449.612500", "145450.402500", "145451.190000", "145451.977500", "145452.765000", "145453.555000", "145454.342500", "145455.130000", "145455.917500", "145456.707500", "145457.495000", "145458.282500", "145459.072500", "145459.860000", "145500.647500", "145501.435000", "145502.225000", "145503.012500", "145503.800000", "145504.587500", "145505.377500", "145506.165000", "145506.952500", "145507.740000", "145508.530000", "145509.317500", "145510.105000", "145510.892500", "145511.682500", "145512.470000", "145513.257500", "145514.045000", "145514.835000", "145515.622500", "145516.410000", "145517.200000", "145517.987500", "145518.775000", "145519.562500", "145520.352500", "145521.140000", "145521.927500", "145522.715000", "145523.505000", "145524.292500", "145525.080000", "145525.867500", "145526.657500", "145527.445000", "145528.232500", "145529.020000", "145529.810000", "145530.597500", "145531.385000", "145532.172500", "145532.962500", "145533.750000", "145534.537500", "145535.327500", "145536.115000", "145536.902500", "145537.690000", "145538.480000", "145539.267500", "145540.055000", "145540.842500", "145541.632500", "145542.420000", "145543.207500", "145543.995000", "145544.785000", "145545.572500", "145546.360000", "145547.147500", "145547.937500", "145548.725000", "145549.512500", "145550.300000", "145551.090000", "145551.877500", "145552.665000", "145553.455000", "145554.242500", "145555.030000", "145555.817500", "145556.607500", "145557.395000", "145558.182500", "145558.970000", "145559.760000", "145600.547500", "145601.335000", "145602.122500", "145602.912500", "145603.700000", "145604.487500", "145605.275000", "145606.065000", "145606.852500", "145607.640000", "145608.427500", "145609.217500", "145610.005000", "145610.792500", "145611.582500", "145612.370000", "145613.157500", "145613.945000", "145614.735000", "145615.522500", "145616.310000", "145617.097500", "145617.887500", "145618.675000", "145619.462500", "145620.250000", "145621.040000", "145621.827500", "145622.615000", "145623.402500", "145624.192500", "145624.980000", "145625.767500", "145626.557500", "145627.345000", "145628.132500", "145628.920000", "145629.710000", "145630.497500", "145631.285000", "145632.072500", "145632.862500", "145633.650000", "145634.437500", "145635.225000", "145636.015000", "145636.802500", "145637.590000", "145638.377500", "145639.167500", "145639.955000", "145640.742500", "145641.530000", "145642.320000", "145643.107500", "145643.895000", "145644.685000", "145645.472500", "145646.260000", "145647.047500", "145647.837500", "145648.625000", "145649.412500", "145650.200000", "145650.990000", "145651.777500", "145652.565000", "145653.352500", "145654.142500", "145654.930000", "145655.717500", "145656.505000", "145657.295000", "145658.082500", "145658.870000", "145659.657500", "145700.447500", "145701.235000", "145702.022500", "145702.812500", "145703.600000", "145704.387500", "145705.175000", "145705.965000", "145706.752500", "145707.540000", "145708.327500", "145709.117500", "145709.905000", "145710.692500", "145711.480000", "145712.270000", "145713.057500", "145713.845000", "145714.632500", "145715.422500", "145716.210000", "145716.997500", "145717.785000", "145718.575000", "145719.362500", "145720.150000", "145720.940000", "145721.727500", "145722.515000", "145723.302500", "145724.092500", "145724.880000", "145725.667500", "145726.455000", "145727.245000", "145728.032500", "145728.820000", "145729.607500", "145730.397500", "145731.185000", "145731.972500", "145732.760000", "145733.550000", "145734.337500", "145735.125000", "145735.912500", "145736.702500", "145737.490000", "145738.277500", "145739.067500", "145739.855000", "145740.642500", "145741.430000", "145742.220000", "145743.007500", "145743.795000", "145744.582500", "145745.372500", "145746.160000", "145746.947500", "145747.735000", "145748.525000", "145749.312500", "145750.100000", "145750.887500", "145751.677500", "145752.465000", "145753.252500", "145754.040000", "145754.830000", "145755.617500", "145756.405000", "145757.195000", "145757.982500", "145758.770000", "145759.557500", "145800.347500", "145801.135000", "145801.922500", "145802.710000", "145803.500000", "145804.287500", "145805.075000", "145805.862500", "145806.652500", "145807.440000", "145808.227500", "145809.015000", "145809.805000", "145810.592500", "145811.380000", "145812.167500", "145812.957500", "145813.745000", "145814.532500", "145815.322500", "145816.110000", "145816.897500", "145817.685000", "145818.475000", "145819.262500", "145820.050000", "145820.837500", "145821.627500", "145822.415000", "145823.202500", "145823.990000", "145824.780000", "145825.567500", "145826.355000", "145827.142500", "145827.932500", "145828.720000", "145829.507500", "145830.295000", "145831.085000", "145831.872500", "145832.660000", "145833.450000", "145834.237500", "145835.025000", "145835.812500", "145836.602500", "145837.390000", "145838.177500", "145838.965000", "145839.755000", "145840.542500", "145841.330000", "145842.117500", "145842.907500", "145843.695000", "145844.482500", "145845.270000", "145846.060000", "145846.847500", "145847.635000", "145848.422500", "145849.212500", "145850.000000", "145850.787500", "145851.577500", "145852.365000", "145853.152500", "145853.940000", "145854.730000", "145855.517500", "145856.305000", "145857.092500", "145857.882500", "145858.670000", "145859.457500", "145900.245000", "145901.035000", "145901.822500", "145902.610000", "145903.397500", "145904.187500", "145904.975000", "145905.762500", "145906.550000", "145907.340000", "145908.127500", "145908.915000", "145909.705000", "145910.492500", "145911.280000", "145912.067500", "145912.857500", "145913.645000", "145914.432500", "145915.220000", "145916.010000", "145916.797500", "145917.585000", "145918.372500", "145919.162500", "145919.950000", "145920.737500", "145921.525000", "145922.315000"],
      "ContentTime": ["145211.750000", "145211.750000", "145211.750000", "145211.750000", "145211.750000", "145211.750000", "145211.765000", "145211.765000", "145211.765000", "145211.765000", "145211.765000", "145211.765000", "145211.765000", "145211.781000", "145211.781000", "145211.781000", "145211.781000", "145211.781000", "145211.781000", "145211.796000", "145211.796000", "145211.796000", "145211.796000", "145211.796000", "145211.796000", "145211.796000", "145211.812000", "145211.812000", "145211.812000", "145211.812000", "145211.812000", "145211.812000", "145211.828000", "145231.718000", "145231.718000", "145231.718000", "145231.718000", "145231.734000", "145231.734000", "145231.734000", "145231.734000", "145231.734000", "145231.734000", "145231.734000", "145231.750000", "145231.750000", "145231.750000", "145231.750000", "145231.750000", "145231.750000", "145231.750000", "145231.765000", "145231.765000", "145231.765000", "145231.765000", "145231.781000", "145231.781000", "145231.781000", "145251.718000", "145251.718000", "145251.718000", "145251.718000", "145251.734000", "145251.734000", "145251.734000", "145251.734000", "145251.734000", "145251.734000", "145251.750000", "145251.750000", "145251.750000", "145251.750000", "145251.750000", "145251.765000", "145251.765000", "145251.765000", "145251.765000", "145251.765000", "145251.765000", "145251.765000", "145251.781000", "145251.781000", "145251.781000", "145251.781000", "145311.718000", "145311.718000", "145311.718000", "145311.718000", "145311.734000", "145311.734000", "145311.734000", "145311.734000", "145311.734000", "145311.734000", "145311.734000", "145311.750000", "145311.750000", "145311.750000", "145311.750000", "145311.750000", "145311.750000", "145311.750000", "145311.765000", "145311.765000", "145311.765000", "145311.765000", "145311.765000", "145311.765000", "145311.765000", "145331.718000", "145331.718000", "145331.718000", "145331.718000", "145331.734000", "145331.734000", "145331.734000", "145331.734000", "145331.734000", "145331.734000", "145331.734000", "145331.750000", "145331.750000", "145331.750000", "145331.750000", "145331.750000", "145331.750000", "145331.750000", "145331.765000", "145331.765000", "145331.765000", "145331.765000", "145331.765000", "145331.765000", "145331.765000", "145331.781000", "145351.718000", "145351.718000", "145351.718000", "145351.718000", "145351.734000", "145351.734000", "145351.734000", "145351.734000", "145351.734000", "145351.734000", "145351.734000", "145351.750000", "145351.750000", "145351.750000", "145351.750000", "145351.750000", "145351.765000", "145351.765000", "145351.765000", "145351.765000", "145351.765000", "145351.781000", "145351.781000", "145351.781000", "145351.781000", "145411.718000", "145411.718000", "145411.718000", "145411.718000", "145411.734000", "145411.734000", "145411.734000", "145411.734000", "145411.734000", "145411.734000", "145411.734000", "145411.750000", "145411.750000", "145411.750000", "145411.750000", "145411.750000", "145411.750000", "145411.750000", "145411.765000", "145411.765000", "145411.765000", "145411.765000", "145411.765000", "145411.765000", "145411.765000", "145411.781000", "145431.718000", "145431.718000", "145431.718000", "145431.718000", "145431.734000", "145431.734000", "145431.734000", "145431.734000", "145431.734000", "145431.734000", "145431.750000", "145431.750000", "145431.750000", "145431.750000", "145431.750000", "145431.750000", "145431.750000", "145431.765000", "145431.765000", "145431.765000", "145431.765000", "145431.765000", "145431.765000", "145431.781000", "145431.781000", "145451.718000", "145451.718000", "145451.718000", "145451.718000", "145451.734000", "145451.734000", "145451.734000", "145451.734000", "145451.734000", "145451.734000", "145451.734000", "145451.750000", "145451.750000", "145451.750000", "145451.750000", "145451.750000", "145451.750000", "145451.750000", "145451.765000", "145451.765000", "145451.765000", "145451.765000", "145451.765000", "145451.781000", "145451.781000", "145451.781000", "145511.718000", "145511.718000", "145511.718000", "145511.718000", "145511.734000", "145511.734000", "145511.734000", "145511.734000", "145511.734000", "145511.750000", "145511.750000", "145511.750000", "145511.765000", "145511.765000", "145511.765000", "145511.765000", "145511.765000", "145511.765000", "145511.765000", "145511.781000", "145511.781000", "145511.781000", "145511.781000", "145511.781000", "145511.781000", "145531.718000", "145531.718000", "145531.718000", "145531.718000", "145531.734000", "145531.734000", "145531.734000", "145531.734000", "145531.734000", "145531.734000", "145531.734000", "145531.750000", "145531.750000", "145531.750000", "145531.750000", "145531.750000", "145531.750000", "145531.750000", "145531.765000", "145531.765000", "145531.765000", "145531.765000", "145531.765000", "145531.765000", "145531.765000", "145531.781000", "145551.718000", "145551.718000", "145551.718000", "145551.718000", "145551.734000", "145551.734000", "145551.734000", "145551.734000", "145551.734000", "145551.734000", "145551.734000", "145551.750000", "145551.750000", "145551.750000", "145551.750000", "145551.750000", "145551.750000", "145551.765000", "145551.765000", "145551.765000", "145551.765000", "145551.765000", "145551.765000", "145551.765000", "145551.781000", "145611.718000", "145611.718000", "145611.718000", "145611.718000", "145611.734000", "145611.734000", "145611.734000", "145611.734000", "145611.734000", "145611.734000", "145611.750000", "145611.750000", "145611.750000", "145611.750000", "145611.750000", "145611.750000", "145611.750000", "145611.765000", "145611.765000", "145611.765000", "145611.765000", "145611.765000", "145611.765000", "145611.781000", "145611.781000", "145611.781000", "145631.718000", "145631.718000", "145631.718000", "145631.734000", "145631.734000", "145631.734000", "145631.734000", "145631.734000", "145631.750000", "145631.750000", "145631.750000", "145631.750000", "145631.750000", "145631.765000", "145631.765000", "145631.765000", "145631.765000", "145631.765000", "145631.781000", "145631.781000", "145631.781000", "145631.781000", "145631.781000", "145631.781000", "145631.796000", "145651.718000", "145651.718000", "145651.718000", "145651.718000", "145651.734000", "145651.734000", "145651.734000", "145651.734000", "145651.734000", "145651.734000", "145651.734000", "145651.750000", "145651.750000", "145651.750000", "145651.750000", "145651.750000", "145651.765000", "145651.765000", "145651.765000", "145651.765000", "145651.765000", "145651.781000", "145651.781000", "145651.781000", "145651.781000", "145651.781000", "145711.718000", "145711.718000", "145711.718000", "145711.718000", "145711.734000", "145711.734000", "145711.734000", "145711.734000", "145711.734000", "145711.734000", "145711.734000", "145711.750000", "145711.750000", "145711.750000", "145711.750000", "145711.765000", "145711.765000", "145711.765000", "145711.765000", "145711.765000", "145711.765000", "145711.781000", "145711.781000", "145711.781000", "145711.781000", "145731.718000", "145731.718000", "145731.734000", "145731.734000", "145731.734000", "145731.734000", "145731.734000", "145731.734000", "145731.734000", "145731.750000", "145731.750000", "145731.750000", "145731.750000", "145731.750000", "145731.765000", "145731.765000", "145731.765000", "145731.781000", "145731.781000", "145731.781000", "145731.781000", "145731.781000", "145731.796000", "145731.796000", "145731.796000", "145751.718000", "145751.718000", "145751.718000", "145751.718000", "145751.734000", "145751.734000", "145751.734000", "145751.734000", "145751.734000", "145751.734000", "145751.750000", "145751.750000", "145751.750000", "145751.750000", "145751.750000", "145751.765000", "145751.765000", "145751.765000", "145751.765000", "145751.765000", "145751.765000", "145751.765000", "145751.781000", "145751.781000", "145751.781000", "145751.781000", "145811.718000", "145811.718000", "145811.718000", "145811.718000", "145811.734000", "145811.734000", "145811.734000", "145811.734000", "145811.734000", "145811.734000", "145811.750000", "145811.750000", "145811.750000", "145811.750000", "145811.750000", "145811.750000", "145811.765000", "145811.765000", "145811.765000", "145811.765000", "145811.765000", "145811.781000", "145811.781000", "145811.781000", "145811.781000", "145831.718000", "145831.718000", "145831.718000", "145831.718000", "145831.734000", "145831.734000", "145831.734000", "145831.734000", "145831.734000", "145831.750000", "145831.750000", "145831.750000", "145831.750000", "145831.750000", "145831.750000", "145831.765000", "145831.765000", "145831.765000", "145831.765000", "145831.765000", "145831.765000", "145831.765000", "145831.781000", "145831.781000", "145831.781000", "145831.781000", "145851.718000", "145851.718000", "145851.718000", "145851.718000", "145851.734000", "145851.734000", "145851.734000", "145851.734000", "145851.734000", "145851.734000", "145851.750000", "145851.750000", "145851.750000", "145851.750000", "145851.750000", "145851.750000", "145851.765000", "145851.765000", "145851.765000", "145851.765000", "145851.765000", "145851.765000", "145851.765000", "145851.781000", "145851.781000", "145911.718000", "145911.718000", "145911.718000", "145911.718000", "145911.734000", "145911.734000", "145911.734000", "145911.734000", "145911.734000", "145911.750000", "145911.750000", "145911.750000", "145911.750000", "145911.750000", "145911.750000", "145911.750000", "145911.765000", "145911.765000", "145911.765000", "145911.765000", "145911.765000", "145911.781000", "145911.781000", "145911.781000", "145911.796000", "145911.796000", "145921.734000", "145921.734000", "145921.734000", "145921.734000", "145921.734000", "145921.750000", "145921.750000", "145921.750000", "145921.750000", "145921.750000", "145921.750000", "145921.750000", "145921.765000"],
      "DataSetTrailingPadding": [
