{
  "AcquisitionMatrixPE": 104,
  "AcquisitionNumber": 1,
  "AcquisitionTime": "15:14:58.725000",
  "BandwidthPerPixelPhaseEncode": 13.935,
  "BaseResolution": 104,
  "CoilString": "C:HEA;HEP",
  "ConversionSoftware": "dcm2niix",
  "ConversionSoftwareVersion": "v1.0.20210317",
  "DerivedVendorReportedEchoSpacing": 0.000690017,
  "DeviceSerialNumber": "35450",
  "DwellTime": 2.5e-06,
  "EchoTime": 0.0348,
  "EffectiveEchoSpacing": 0.000690017,
  "FlipAngle": 55,
  "ImageComments": "Unaliased MB8/PE3 (remote)",
  "ImageOrientationPatientDICOM": [0.999701, 0.00399038, 0.0241041, 2.62773e-08, 0.986572, -0.163326],
  "ImageType": [
    "ORIGINAL",
    "PRIMARY",
    "M",
    "MB",
    "ND",
    "MOSAIC"
],
  "ImagingFrequency": 123.235,
  "InPlanePhaseEncodingDirectionDICOM": "COL",
  "InstitutionAddress": "Univeristy Ave. 197,Newark,North East,US,07102-1814",
  "InstitutionName": "RUBIC",
  "InstitutionalDepartmentName": "Department",
  "MRAcquisitionType": "2D",
  "MagneticFieldStrength": 3,
  "Manufacturer": "Siemens",
  "ManufacturersModelName": "TrioTim",
  "Modality": "MR",
  "MultibandAccelerationFactor": 8,
  "PartialFourier": 0.875,
  "PatientPosition": "HFS",
  "PercentPhaseFOV": 100,
  "PercentSampling": 100,
  "PhaseEncodingDirection": "j-",
  "PhaseEncodingSteps": 91,
  "PhaseResolution": 1,
  "PixelBandwidth": 1923,
  "ProcedureStepDescription": "Cole^Michael",
  "ProtocolName": "cmrr_mbep2d_bold_2mm_MB8_Task_8x",
  "PulseSequenceDetails": "%CustomerSeq%\\cmrr_mbep2d_bold",
  "ReceiveCoilName": "32Ch_Head",
  "ReconMatrixPE": 104,
  "RepetitionTime": 0.785,
  "SAR": 0.232638,
  "ScanOptions": "PFP\\FS",
  "ScanningSequence": "EP",
  "SequenceName": "epfid2d1_104",
  "SequenceVariant": "SK\\SS",
  "SeriesDescription": "cmrr_mbep2d_bold_2mm_MB8_Task_8x",
  "SeriesNumber": 15,
  "ShimSetting": [2147, -402, -7236, 428, -61, -158, 317, 56],
  "SliceThickness": 2,
  "SliceTiming": [0, 0.4375, 0.0875, 0.525, 0.175, 0.6125, 0.2625, 0.7, 0.35, 0, 0.4375, 0.0875, 0.525, 0.175, 0.6125, 0.2625, 0.7, 0.35, 0, 0.4375, 0.0875, 0.525, 0.175, 0.6125, 0.2625, 0.7, 0.35, 0, 0.4375, 0.0875, 0.525, 0.175, 0.6125, 0.2625, 0.7, 0.35, 0, 0.4375, 0.0875, 0.525, 0.175, 0.6125, 0.2625, 0.7, 0.35, 0, 0.4375, 0.0875, 0.525, 0.175, 0.6125, 0.2625, 0.7, 0.35, 0, 0.4375, 0.0875, 0.525, 0.175, 0.6125, 0.2625, 0.7, 0.35, 0, 0.4375, 0.0875, 0.525, 0.175, 0.6125, 0.2625, 0.7, 0.35],
  "SoftwareVersions": "syngo MR B19",
  "SpacingBetweenSlices": 2,
  "StationName": "MRC35450",
  "TaskName": "cpro",
  "TotalReadoutTime": 0.0710717,
  "TxRefAmp": 400.655,
  "dcmmeta_affine": [
    [-1.9994029998779297, 5.255463975117891e-08, 0.04886435717344284, 104.94612884521484],
    [-0.007980766706168652, 1.973144292831421, -0.32655441761016846, -69.6917495727539],
    [0.04820822551846504, 0.326651930809021, 1.97255539894104, -122.21481323242188],
    [0.0, 0.0, 0.0, 1.0]
],
  "dcmmeta_reorient_transform": [
    [0.0, -1.0, 0.0, 103.0],
    [1.0, 0.0, 0.0, 0.0],
    [0.0, 0.0, 1.0, 0.0],
    [0.0, 0.0, 0.0, 1.0]
],
  "dcmmeta_shape": [104, 104, 72, 581],
  "dcmmeta_slice_dim": 2,
  "dcmmeta_version": 0.6,
  "global": {
    "const": {
      "AcquisitionMatrix": [104, 0, 0, 104],
      "AngioFlag": "N",
      "BitsAllocated": 16,
      "BitsStored": 12,
      "Columns": 936,
      "EchoNumbers": 1,
      "EchoTime": 34.8,
      "EchoTrainLength": 1,
      "FlipAngle": 55.0,
      "HighBit": 11,
      "ImageOrientationPatient": [0.99970148976069, 0.00399038323931, 0.02410411192837, 2.627732e-08, 0.98657216152114, -0.1633259627601],
      "ImagePositionPatient": [-936.69779883688, -957.69015487185, 27.262915806199],
      "ImageType": [
        "ORIGINAL",
        "PRIMARY",
        "M",
        "MB",
        "ND",
        "MOSAIC"
],
      "ImagedNucleus": "1H",
      "ImagingFrequency": 123.234523,
      "InPlanePhaseEncodingDirection": "COL",
      "MRAcquisitionType": "2D",
      "MagneticFieldStrength": 3.0,
      "Manufacturer": "SIEMENS",
      "ManufacturerModelName": "TrioTim",
      "Modality": "MR",
      "NumberOfAverages": 1.0,
      "NumberOfPhaseEncodingSteps": 91,
      "PercentPhaseFieldOfView": 100.0,
      "PercentSampling": 100.0,
      "PerformedProcedureStepStartTime": "141355.343000",
      "PhotometricInterpretation": "MONOCHROME2",
      "PixelBandwidth": 1923.0,
      "PixelRepresentation": 0,
      "PixelSpacing": [2.0, 2.0],
      "ProtocolName": "cmrr_mbep2d_bold_2mm_MB8_Task_8x",
      "RepetitionTime": 785.0,
      "Rows": 936,
      "SAR": 0.23263826550902,
      "SamplesPerPixel": 1,
      "ScanOptions": [
        "PFP",
        "FS"
],
      "ScanningSequence": "EP",
      "SequenceName": "epfid2d1_104",
      "SequenceVariant": [
        "SK",
        "SS"
],
      "SeriesDescription": "cmrr_mbep2d_bold_2mm_MB8_Task_8x",
      "SeriesNumber": 15,
      "SeriesTime": "151529.375000",
      "SliceLocation": -106.59460242395,
      "SliceThickness": 2.0,
      "SmallestImagePixelValue": 0,
      "SoftwareVersions": "syngo MR B19",
      "SpacingBetweenSlices": 2.0000000281526,
      "SpecificCharacterSet": "ISO_IR 100",
      "StudyID": "1",
      "StudyTime": "141355.312000",
      "TransmitCoilName": "Body",
      "VariableFlipAngleFlag": "N",
      "WindowCenterWidthExplanation": "Algo1",
      "dBdt": 0.0},
    "slices": {}
  },
  "time": {
    "samples": {
      "AcquisitionNumber": [1, 2, 3, 4, 5, 6, 7, 8, 9, 10, 11, 12, 13, 14, 15, 16, 17, 18, 19, 20, 21, 22, 23, 24, 25, 26, 27, 28, 29, 30, 31, 32, 33, 34, 35, 36, 37, 38, 39, 40, 41, 42, 43, 44, 45, 46, 47, 48, 49, 50, 51, 52, 53, 54, 55, 56, 57, 58, 59, 60, 61, 62, 63, 64, 65, 66, 67, 68, 69, 70, 71, 72, 73, 74, 75, 76, 77, 78, 79, 80, 81, 82, 83, 84, 85, 86, 87, 88, 89, 90, 91, 92, 93, 94, 95, 96, 97, 98, 99, 100, 101, 102, 103, 104, 105, 106, 107, 108, 109, 110, 111, 112, 113, 114, 115, 116, 117, 118, 119, 120, 121, 122, 123, 124, 125, 126, 127, 128, 129, 130, 131, 132, 133, 134, 135, 136, 137, 138, 139, 140, 141, 142, 143, 144, 145, 146, 147, 148, 149, 150, 151, 152, 153, 154, 155, 156, 157, 158, 159, 160, 161, 162, 163, 164, 165, 166, 167, 168, 169, 170, 171, 172, 173, 174, 175, 176, 177, 178, 179, 180, 181, 182, 183, 184, 185, 186, 187, 188, 189, 190, 191, 192, 193, 194, 195, 196, 197, 198, 199, 200, 201, 202, 203, 204, 205, 206, 207, 208, 209, 210, 211, 212, 213, 214, 215, 216, 217, 218, 219, 220, 221, 222, 223, 224, 225, 226, 227, 228, 229, 230, 231, 232, 233, 234, 235, 236, 237, 238, 239, 240, 241, 242, 243, 244, 245, 246, 247, 248, 249, 250, 251, 252, 253, 254, 255, 256, 257, 258, 259, 260, 261, 262, 263, 264, 265, 266, 267, 268, 269, 270, 271, 272, 273, 274, 275, 276, 277, 278, 279, 280, 281, 282, 283, 284, 285, 286, 287, 288, 289, 290, 291, 292, 293, 294, 295, 296, 297, 298, 299, 300, 301, 302, 303, 304, 305, 306, 307, 308, 309, 310, 311, 312, 313, 314, 315, 316, 317, 318, 319, 320, 321, 322, 323, 324, 325, 326, 327, 328, 329, 330, 331, 332, 333, 334, 335, 336, 337, 338, 339, 340, 341, 342, 343, 344, 345, 346, 347, 348, 349, 350, 351, 352, 353, 354, 355, 356, 357, 358, 359, 360, 361, 362, 363, 364, 365, 366, 367, 368, 369, 370, 371, 372, 373, 374, 375, 376, 377, 378, 379, 380, 381, 382, 383, 384, 385, 386, 387, 388, 389, 390, 391, 392, 393, 394, 395, 396, 397, 398, 399, 400, 401, 402, 403, 404, 405, 406, 407, 408, 409, 410, 411, 412, 413, 414, 415, 416, 417, 418, 419, 420, 421, 422, 423, 424, 425, 426, 427, 428, 429, 430, 431, 432, 433, 434, 435, 436, 437, 438, 439, 440, 441, 442, 443, 444, 445, 446, 447, 448, 449, 450, 451, 452, 453, 454, 455, 456, 457, 458, 459, 460, 461, 462, 463, 464, 465, 466, 467, 468, 469, 470, 471, 472, 473, 474, 475, 476, 477, 478, 479, 480, 481, 482, 483, 484, 485, 486, 487, 488, 489, 490, 491, 492, 493, 494, 495, 496, 497, 498, 499, 500, 501, 502, 503, 504, 505, 506, 507, 508, 509, 510, 511, 512, 513, 514, 515, 516, 517, 518, 519, 520, 521, 522, 523, 524, 525, 526, 527, 528, 529, 530, 531, 532, 533, 534, 535, 536, 537, 538, 539, 540, 541, 542, 543, 544, 545, 546, 547, 548, 549, 550, 551, 552, 553, 554, 555, 556, 557, 558, 559, 560, 561, 562, 563, 564, 565, 566, 567, 568, 569, 570, 571, 572, 573, 574, 575, 576, 577, 578, 579, 580, 581],
      "AcquisitionTime": ["151458.725000", "151459.512500", "151500.300000", "151501.090000", "151501.877500", "151502.665000", "151503.455000", "151504.242500", "151505.030000", "151505.817500", "151506.607500", "151507.395000", "151508.182500", "151508.970000", "151509.760000", "151510.547500", "151511.335000", "151512.122500", "151512.912500", "151513.700000", "151514.487500", "151515.275000", "151516.065000", "151516.852500", "151517.640000", "151518.427500", "151519.217500", "151520.005000", "151520.792500", "151521.582500", "151522.370000", "151523.157500", "151523.945000", "151524.735000", "151525.522500", "151526.310000", "151527.097500", "151527.887500", "151528.675000", "151529.462500", "151530.250000", "151531.040000", "151531.827500", "151532.615000", "151533.402500", "151534.192500", "151534.980000", "151535.767500", "151536.557500", "151537.345000", "151538.132500", "151538.920000", "151539.710000", "151540.497500", "151541.285000", "151542.072500", "151542.862500", "151543.650000", "151544.437500", "151545.225000", "151546.015000", "151546.802500", "151547.590000", "151548.377500", "151549.167500", "151549.955000", "151550.742500", "151551.530000", "151552.320000", "151553.107500", "151553.895000", "151554.685000", "151555.472500", "151556.260000", "151557.047500", "151557.837500", "151558.625000", "151559.412500", "151600.200000", "151600.990000", "151601.777500", "151602.565000", "151603.352500", "151604.142500", "151604.930000", "151605.717500", "151606.505000", "151607.295000", "151608.082500", "151608.870000", "151609.657500", "151610.447500", "151611.235000", "151612.022500", "151612.812500", "151613.600000", "151614.387500", "151615.175000", "151615.965000", "151616.752500", "151617.540000", "151618.327500", "151619.117500", "151619.905000", "151620.692500", "151621.480000", "151622.270000", "151623.057500", "151623.845000", "151624.632500", "151625.422500", "151626.210000", "151626.997500", "151627.785000", "151628.575000", "151629.362500", "151630.150000", "151630.940000", "151631.727500", "151632.515000", "151633.302500", "151634.092500", "151634.880000", "151635.667500", "151636.455000", "151637.245000", "151638.032500", "151638.820000", "151639.607500", "151640.397500", "151641.185000", "151641.972500", "151642.760000", "151643.550000", "151644.337500", "151645.125000", "151645.912500", "151646.702500", "151647.490000", "151648.277500", "151649.067500", "151649.855000", "151650.642500", "151651.430000", "151652.220000", "151653.007500", "151653.795000", "151654.582500", "151655.372500", "151656.160000", "151656.947500", "151657.735000", "151658.525000", "151659.312500", "151700.100000", "151700.887500", "151701.677500", "151702.465000", "151703.252500", "151704.040000", "151704.830000", "151705.617500", "151706.405000", "151707.195000", "151707.982500", "151708.770000", "151709.557500", "151710.347500", "151711.135000", "151711.922500", "151712.710000", "151713.500000", "151714.287500", "151715.075000", "151715.862500", "151716.652500", "151717.440000", "151718.227500", "151719.015000", "151719.805000", "151720.592500", "151721.380000", "151722.167500", "151722.957500", "151723.745000", "151724.532500", "151725.322500", "151726.110000", "151726.897500", "151727.685000", "151728.475000", "151729.262500", "151730.050000", "151730.837500", "151731.627500", "151732.415000", "151733.202500", "151733.990000", "151734.780000", "151735.567500", "151736.355000", "151737.142500", "151737.932500", "151738.720000", "151739.507500", "151740.295000", "151741.085000", "151741.872500", "151742.660000", "151743.450000", "151744.237500", "151745.025000", "151745.812500", "151746.602500", "151747.390000", "151748.177500", "151748.965000", "151749.755000", "151750.542500", "151751.330000", "151752.117500", "151752.907500", "151753.695000", "151754.482500", "151755.270000", "151756.060000", "151756.847500", "151757.635000", "151758.422500", "151759.212500", "151800.000000", "151800.787500", "151801.577500", "151802.365000", "151803.152500", "151803.940000", "151804.730000", "151805.517500", "151806.305000", "151807.092500", "151807.882500", "151808.670000", "151809.457500", "151810.245000", "151811.035000", "151811.822500", "151812.610000", "151813.397500", "151814.187500", "151814.975000", "151815.762500", "151816.550000", "151817.340000", "151818.127500", "151818.915000", "151819.705000", "151820.492500", "151821.280000", "151822.067500", "151822.857500", "151823.645000", "151824.432500", "151825.220000", "151826.010000", "151826.797500", "151827.585000", "151828.372500", "151829.162500", "151829.950000", "151830.737500", "151831.525000", "151832.315000", "151833.102500", "151833.890000", "151834.677500", "151835.467500", "151836.255000", "151837.042500", "151837.832500", "151838.620000", "151839.407500", "151840.195000", "151840.985000", "151841.772500", "151842.560000", "151843.347500", "151844.137500", "151844.925000", "151845.712500", "151846.500000", "151847.290000", "151848.077500", "151848.865000", "151849.652500", "151850.442500", "151851.230000", "151852.017500", "151852.807500", "151853.595000", "151854.382500", "151855.170000", "151855.960000", "151856.747500", "151857.535000", "151858.322500", "151859.112500", "151859.900000", "151900.687500", "151901.475000", "151902.265000", "151903.052500", "151903.840000", "151904.627500", "151905.417500", "151906.205000", "151906.992500", "151907.780000", "151908.570000", "151909.357500", "151910.145000", "151910.935000", "151911.722500", "151912.510000", "151913.297500", "151914.087500", "151914.875000", "151915.662500", "151916.450000", "151917.240000", "151918.027500", "151918.815000", "151919.602500", "151920.392500", "151921.180000", "151921.967500", "151922.755000", "151923.545000", "151924.332500", "151925.120000", "151925.907500", "151926.697500", "151927.485000", "151928.272500", "151929.062500", "151929.850000", "151930.637500", "151931.425000", "151932.215000", "151933.002500", "151933.790000", "151934.577500", "151935.367500", "151936.155000", "151936.942500", "151937.730000", "151938.520000", "151939.307500", "151940.095000", "151940.882500", "151941.672500", "151942.460000", "151943.247500", "151944.035000", "151944.825000", "151945.612500", "151946.400000", "151947.190000", "151947.977500", "151948.765000", "151949.552500", "151950.342500", "151951.130000", "151951.917500", "151952.705000", "151953.495000", "151954.282500", "151955.070000", "151955.857500", "151956.647500", "151957.435000", "151958.222500", "151959.010000", "151959.800000", "152000.587500", "152001.375000", "152002.162500", "152002.952500", "152003.740000", "152004.527500", "152005.317500", "152006.105000", "152006.892500", "152007.680000", "152008.470000", "152009.257500", "152010.045000", "152010.832500", "152011.622500", "152012.410000", "152013.197500", "152013.985000", "152014.775000", "152015.562500", "152016.350000", "152017.137500", "152017.927500", "152018.715000", "152019.502500", "152020.290000", "152021.080000", "152021.867500", "152022.655000", "152023.445000", "152024.232500", "152025.020000", "152025.807500", "152026.597500", "152027.385000", "152028.172500", "152028.960000", "152029.750000", "152030.537500", "152031.325000", "152032.112500", "152032.902500", "152033.690000", "152034.477500", "152035.265000", "152036.055000", "152036.842500", "152037.630000", "152038.417500", "152039.207500", "152039.995000", "152040.782500", "152041.572500", "152042.360000", "152043.147500", "152043.935000", "152044.725000", "152045.512500", "152046.300000", "152047.087500", "152047.877500", "152048.665000", "152049.452500", "152050.240000", "152051.030000", "152051.817500", "152052.605000", "152053.392500", "152054.182500", "152054.970000", "152055.757500", "152056.545000", "152057.335000", "152058.122500", "152058.910000", "152059.700000", "152100.487500", "152101.275000", "152102.062500", "152102.852500", "152103.640000", "152104.427500", "152105.215000", "152106.005000", "152106.792500", "152107.580000", "152108.367500", "152109.157500", "152109.945000", "152110.732500", "152111.520000", "152112.310000", "152113.097500", "152113.885000", "152114.672500", "152115.462500", "152116.250000", "152117.037500", "152117.827500", "152118.615000", "152119.402500", "152120.190000", "152120.980000", "152121.767500", "152122.555000", "152123.342500", "152124.132500", "152124.920000", "152125.707500", "152126.495000", "152127.285000", "152128.072500", "152128.860000", "152129.647500", "152130.437500", "152131.225000", "152132.012500", "152132.800000", "152133.590000", "152134.377500", "152135.165000", "152135.955000", "152136.742500", "152137.530000", "152138.317500", "152139.107500", "152139.895000", "152140.682500", "152141.470000", "152142.260000", "152143.047500", "152143.835000", "152144.622500", "152145.412500", "152146.200000", "152146.987500", "152147.775000", "152148.565000", "152149.352500", "152150.140000", "152150.927500", "152151.717500", "152152.505000", "152153.292500", "152154.082500", "152154.870000", "152155.657500", "152156.445000", "152157.235000", "152158.022500", "152158.810000", "152159.597500", "152200.387500", "152201.175000", "152201.962500", "152202.750000", "152203.540000", "152204.327500", "152205.115000", "152205.902500", "152206.692500", "152207.480000", "152208.267500", "152209.057500", "152209.845000", "152210.632500", "152211.420000", "152212.210000", "152212.997500", "152213.785000", "152214.572500", "152215.362500", "152216.150000", "152216.937500", "152217.725000", "152218.515000", "152219.302500", "152220.090000", "152220.877500", "152221.667500", "152222.455000", "152223.242500", "152224.030000", "152224.820000", "152225.607500", "152226.395000", "152227.185000", "152227.972500", "152228.760000", "152229.547500", "152230.337500", "152231.125000", "152231.912500", "152232.700000", "152233.490000", "152234.277500", "152235.065000", "152235.852500"],
      "ContentTime": ["151529.375000", "151529.375000", "151529.375000", "151529.390000", "151529.390000", "151529.390000", "151529.390000", "151529.390000", "151529.390000", "151529.390000", "151529.390000", "151529.406000", "151529.406000", "151529.406000", "151529.406000", "151529.406000", "151529.406000", "151529.406000", "151529.406000", "151529.421000", "151529.421000", "151529.421000", "151529.421000", "151529.421000", "151529.421000", "151529.437000", "151529.437000", "151529.437000", "151529.437000", "151529.437000", "151529.437000", "151529.453000", "151529.453000", "151529.453000", "151529.453000", "151529.453000", "151549.343000", "151549.343000", "151549.359000", "151549.359000", "151549.359000", "151549.359000", "151549.359000", "151549.359000", "151549.359000", "151549.359000", "151549.375000", "151549.375000", "151549.375000", "151549.375000", "151549.375000", "151549.375000", "151549.390000", "151549.390000", "151549.390000", "151549.390000", "151549.390000", "151549.390000", "151549.406000", "151549.406000", "151549.406000", "151549.406000", "151609.343000", "151609.343000", "151609.359000", "151609.359000", "151609.359000", "151609.359000", "151609.359000", "151609.359000", "151609.359000", "151609.359000", "151609.375000", "151609.375000", "151609.375000", "151609.375000", "151609.375000", "151609.375000", "151609.375000", "151609.390000", "151609.390000", "151609.390000", "151609.390000", "151609.390000", "151609.406000", "151609.406000", "151609.406000", "151629.343000", "151629.343000", "151629.343000", "151629.359000", "151629.359000", "151629.359000", "151629.359000", "151629.359000", "151629.359000", "151629.375000", "151629.375000", "151629.375000", "151629.375000", "151629.390000", "151629.390000", "151629.390000", "151629.390000", "151629.390000", "151629.406000", "151629.406000", "151629.406000", "151629.406000", "151629.406000", "151629.406000", "151629.406000", "151629.421000", "151649.343000", "151649.343000", "151649.343000", "151649.359000", "151649.359000", "151649.359000", "151649.359000", "151649.359000", "151649.359000", "151649.359000", "151649.375000", "151649.375000", "151649.375000", "151649.375000", "151649.375000", "151649.375000", "151649.375000", "151649.390000", "151649.390000", "151649.390000", "151649.390000", "151649.406000", "151649.406000", "151649.406000", "151649.406000", "151709.343000", "151709.343000", "151709.343000", "151709.359000", "151709.359000", "151709.359000", "151709.359000", "151709.359000", "151709.359000", "151709.359000", "151709.375000", "151709.375000", "151709.375000", "151709.375000", "151709.375000", "151709.375000", "151709.375000", "151709.375000", "151709.390000", "151709.390000", "151709.390000", "151709.390000", "151709.390000", "151709.390000", "151709.390000", "151709.406000", "151729.343000", "151729.343000", "151729.343000", "151729.359000", "151729.359000", "151729.359000", "151729.359000", "151729.359000", "151729.359000", "151729.375000", "151729.375000", "151729.375000", "151729.375000", "151729.375000", "151729.375000", "151729.375000", "151729.375000", "151729.390000", "151729.390000", "151729.390000", "151729.390000", "151729.390000", "151729.390000", "151729.390000", "151729.406000", "151749.343000", "151749.343000", "151749.343000", "151749.359000", "151749.359000", "151749.359000", "151749.359000", "151749.359000", "151749.359000", "151749.359000", "151749.375000", "151749.375000", "151749.375000", "151749.375000", "151749.375000", "151749.375000", "151749.375000", "151749.390000", "151749.390000", "151749.390000", "151749.390000", "151749.390000", "151749.390000", "151749.406000", "151749.406000", "151749.406000", "151809.343000", "151809.343000", "151809.343000", "151809.359000", "151809.359000", "151809.359000", "151809.359000", "151809.359000", "151809.359000", "151809.359000", "151809.375000", "151809.375000", "151809.375000", "151809.375000", "151809.375000", "151809.390000", "151809.390000", "151809.390000", "151809.390000", "151809.390000", "151809.406000", "151809.406000", "151809.406000", "151809.406000", "151809.406000", "151829.343000", "151829.343000", "151829.359000", "151829.359000", "151829.359000", "151829.359000", "151829.359000", "151829.359000", "151829.359000", "151829.359000", "151829.375000", "151829.375000", "151829.375000", "151829.375000", "151829.375000", "151829.375000", "151829.390000", "151829.390000", "151829.390000", "151829.390000", "151829.390000", "151829.390000", "151829.406000", "151829.406000", "151829.406000", "151849.343000", "151849.343000", "151849.343000", "151849.359000", "151849.359000", "151849.359000", "151849.359000", "151849.359000", "151849.359000", "151849.359000", "151849.375000", "151849.375000", "151849.375000", "151849.375000", "151849.375000", "151849.375000", "151849.375000", "151849.390000", "151849.390000", "151849.390000", "151849.390000", "151849.390000", "151849.390000", "151849.406000", "151849.406000", "151849.406000", "151909.343000", "151909.343000", "151909.359000", "151909.359000", "151909.359000", "151909.359000", "151909.359000", "151909.359000", "151909.359000", "151909.375000", "151909.375000", "151909.375000", "151909.375000", "151909.375000", "151909.375000", "151909.390000", "151909.390000", "151909.390000", "151909.390000", "151909.390000", "151909.390000", "151909.406000", "151909.406000", "151909.406000", "151909.406000", "151929.343000", "151929.343000", "151929.343000", "151929.359000", "151929.359000", "151929.359000", "151929.359000", "151929.359000", "151929.359000", "151929.359000", "151929.375000", "151929.375000", "151929.375000", "151929.375000", "151929.375000", "151929.375000", "151929.375000", "151929.375000", "151929.390000", "151929.390000", "151929.390000", "151929.390000", "151929.390000", "151929.390000", "151929.406000", "151929.406000", "151949.343000", "151949.343000", "151949.359000", "151949.359000", "151949.359000", "151949.359000", "151949.359000", "151949.359000", "151949.359000", "151949.359000", "151949.375000", "151949.375000", "151949.375000", "151949.375000", "151949.375000", "151949.375000", "151949.390000", "151949.390000", "151949.390000", "151949.390000", "151949.390000", "151949.390000", "151949.406000", "151949.406000", "151949.406000", "152009.343000", "152009.343000", "152009.359000", "152009.359000", "152009.359000", "152009.359000", "152009.359000", "152009.359000", "152009.375000", "152009.375000", "152009.375000", "152009.375000", "152009.375000", "152009.390000", "152009.390000", "152009.390000", "152009.390000", "152009.390000", "152009.406000", "152009.406000", "152009.406000", "152009.421000", "152009.421000", "152009.421000", "152009.421000", "152009.421000", "152029.343000", "152029.343000", "152029.359000", "152029.359000", "152029.359000", "152029.359000", "152029.359000", "152029.359000", "152029.359000", "152029.359000", "152029.375000", "152029.375000", "152029.375000", "152029.375000", "152029.375000", "152029.375000", "152029.390000", "152029.406000", "152029.406000", "152029.406000", "152029.406000", "152029.406000", "152029.421000", "152029.421000", "152029.421000", "152049.343000", "152049.343000", "152049.343000", "152049.359000", "152049.359000", "152049.359000", "152049.359000", "152049.359000", "152049.359000", "152049.359000", "152049.375000", "152049.375000", "152049.375000", "152049.375000", "152049.375000", "152049.375000", "152049.375000", "152049.390000", "152049.390000", "152049.390000", "152049.390000", "152049.390000", "152049.390000", "152049.406000", "152049.406000", "152049.406000", "152109.343000", "152109.343000", "152109.343000", "152109.359000", "152109.359000", "152109.359000", "152109.359000", "152109.359000", "152109.359000", "152109.359000", "152109.375000", "152109.375000", "152109.375000", "152109.375000", "152109.375000", "152109.375000", "152109.375000", "152109.390000", "152109.390000", "152109.390000", "152109.390000", "152109.390000", "152109.390000", "152109.406000", "152109.406000", "152129.343000", "152129.343000", "152129.343000", "152129.359000", "152129.359000", "152129.359000", "152129.359000", "152129.359000", "152129.375000", "152129.375000", "152129.375000", "152129.375000", "152129.375000", "152129.375000", "152129.375000", "152129.390000", "152129.390000", "152129.390000", "152129.390000", "152129.390000", "152129.406000", "152129.406000", "152129.406000", "152129.406000", "152129.406000", "152129.406000", "152149.343000", "152149.343000", "152149.343000", "152149.359000", "152149.359000", "152149.359000", "152149.359000", "152149.359000", "152149.359000", "152149.359000", "152149.375000", "152149.375000", "152149.375000", "152149.375000", "152149.375000", "152149.375000", "152149.375000", "152149.390000", "152149.390000", "152149.390000", "152149.390000", "152149.390000", "152149.390000", "152149.390000", "152149.390000", "152209.343000", "152209.343000", "152209.343000", "152209.359000", "152209.359000", "152209.359000", "152209.359000", "152209.359000", "152209.359000", "152209.359000", "152209.375000", "152209.375000", "152209.375000", "152209.375000", "152209.375000", "152209.390000", "152209.390000", "152209.390000", "152209.390000", "152209.390000", "152209.390000", "152209.390000", "152209.390000", "152209.406000", "152209.406000", "152209.406000", "152229.343000", "152229.343000", "152229.359000", "152229.359000", "152229.359000", "152229.359000", "152229.359000", "152229.359000", "152229.375000", "152229.375000", "152229.375000", "152229.375000", "152229.375000", "152229.375000", "152229.390000", "152229.390000", "152229.390000", "152229.390000", "152229.390000", "152229.390000", "152229.406000", "152229.406000", "152229.406000", "152229.406000", "152229.421000", "152236.703000", "152236.703000", "152236.703000", "152236.703000", "152236.703000", "152236.703000", "152236.718000", "152236.718000", "152236.718000", "152236.718000"],
