{
  "AcquisitionMatrixPE": 104,
  "AcquisitionNumber": 1,
  "AcquisitionTime": "15:55:8.720000",
  "BandwidthPerPixelPhaseEncode": 13.935,
  "BaseResolution": 104,
  "CoilString": "C:HEA;HEP",
  "ConversionSoftware": "dcm2niix",
  "ConversionSoftwareVersion": "v1.0.20210317",
  "DerivedVendorReportedEchoSpacing": 0.000690017,
  "DeviceSerialNumber": "35450",
  "DwellTime": 2.5e-06,
  "EchoTime": 0.0348,
  "EffectiveEchoSpacing": 0.000690017,
  "FlipAngle": 55,
  "ImageComments": "Unaliased MB8/PE3 (remote)",
  "ImageOrientationPatientDICOM": [0.999701, 0.00399038, 0.0241041, 2.62773e-08, 0.986572, -0.163326],
  "ImageType": [
    "ORIGINAL",
    "PRIMARY",
    "M",
    "MB",
    "ND",
    "MOSAIC"
],
  "ImagingFrequency": 123.235,
  "InPlanePhaseEncodingDirectionDICOM": "COL",
  "InstitutionAddress": "Univeristy Ave. 197,Newark,North East,US,07102-1814",
  "InstitutionName": "RUBIC",
  "InstitutionalDepartmentName": "Department",
  "MRAcquisitionType": "2D",
  "MagneticFieldStrength": 3,
  "Manufacturer": "Siemens",
  "ManufacturersModelName": "TrioTim",
  "Modality": "MR",
  "MultibandAccelerationFactor": 8,
  "PartialFourier": 0.875,
  "PatientPosition": "HFS",
  "PercentPhaseFOV": 100,
  "PercentSampling": 100,
  "PhaseEncodingDirection": "j-",
  "PhaseEncodingSteps": 91,
  "PhaseResolution": 1,
  "PixelBandwidth": 1923,
  "ProcedureStepDescription": "Cole^Michael",
  "ProtocolName": "cmrr_mbep2d_bold_2mm_MB8_Task_8x",
  "PulseSequenceDetails": "%CustomerSeq%\\cmrr_mbep2d_bold",
  "ReceiveCoilName": "32Ch_Head",
  "ReconMatrixPE": 104,
  "RepetitionTime": 0.785,
  "SAR": 0.232638,
  "ScanOptions": "PFP\\FS",
  "ScanningSequence": "EP",
  "SequenceName": "epfid2d1_104",
  "SequenceVariant": "SK\\SS",
  "SeriesDescription": "cmrr_mbep2d_bold_2mm_MB8_Task_8x",
  "SeriesNumber": 25,
  "ShimSetting": [2147, -402, -7236, 428, -61, -158, 317, 56],
  "SliceThickness": 2,
  "SliceTiming": [0, 0.4375, 0.0875, 0.525, 0.175, 0.6125, 0.2625, 0.7, 0.35, 0, 0.4375, 0.0875, 0.525, 0.175, 0.6125, 0.2625, 0.7, 0.35, 0, 0.4375, 0.0875, 0.525, 0.175, 0.6125, 0.2625, 0.7, 0.35, 0, 0.4375, 0.0875, 0.525, 0.175, 0.6125, 0.2625, 0.7, 0.35, 0, 0.4375, 0.0875, 0.525, 0.175, 0.6125, 0.2625, 0.7, 0.35, 0, 0.4375, 0.0875, 0.525, 0.175, 0.6125, 0.2625, 0.7, 0.35, 0, 0.4375, 0.0875, 0.525, 0.175, 0.6125, 0.2625, 0.7, 0.35, 0, 0.4375, 0.0875, 0.525, 0.175, 0.6125, 0.2625, 0.7, 0.35],
  "SoftwareVersions": "syngo MR B19",
  "SpacingBetweenSlices": 2,
  "StationName": "MRC35450",
  "TaskName": "cpro",
  "TotalReadoutTime": 0.0710717,
  "TxRefAmp": 400.655,
  "dcmmeta_affine": [
    [-1.9994029998779297, 5.255463975117891e-08, 0.04886435717344284, 104.94612884521484],
    [-0.007980766706168652, 1.973144292831421, -0.32655441761016846, -69.6917495727539],
    [0.04820822551846504, 0.326651930809021, 1.97255539894104, -122.21481323242188],
    [0.0, 0.0, 0.0, 1.0]
],
  "dcmmeta_reorient_transform": [
    [0.0, -1.0, 0.0, 103.0],
    [1.0, 0.0, 0.0, 0.0],
    [0.0, 0.0, 1.0, 0.0],
    [0.0, 0.0, 0.0, 1.0]
],
  "dcmmeta_shape": [104, 104, 72, 581],
  "dcmmeta_slice_dim": 2,
  "dcmmeta_version": 0.6,
  "global": {
    "const": {
      "AcquisitionMatrix": [104, 0, 0, 104],
      "AngioFlag": "N",
      "BitsAllocated": 16,
      "BitsStored": 12,
      "Columns": 936,
      "EchoNumbers": 1,
      "EchoTime": 34.8,
      "EchoTrainLength": 1,
      "FlipAngle": 55.0,
      "HighBit": 11,
      "ImageOrientationPatient": [0.99970148976069, 0.00399038323931, 0.02410411192837, 2.627732e-08, 0.98657216152114, -0.1633259627601],
      "ImagePositionPatient": [-936.69779883688, -957.69015487185, 27.262915806199],
      "ImageType": [
        "ORIGINAL",
        "PRIMARY",
        "M",
        "MB",
        "ND",
        "MOSAIC"
],
      "ImagedNucleus": "1H",
      "ImagingFrequency": 123.234523,
      "InPlanePhaseEncodingDirection": "COL",
      "MRAcquisitionType": "2D",
      "MagneticFieldStrength": 3.0,
      "Manufacturer": "SIEMENS",
      "ManufacturerModelName": "TrioTim",
      "Modality": "MR",
      "NumberOfAverages": 1.0,
      "NumberOfPhaseEncodingSteps": 91,
      "PercentPhaseFieldOfView": 100.0,
      "PercentSampling": 100.0,
      "PerformedProcedureStepStartTime": "141355.343000",
      "PhotometricInterpretation": "MONOCHROME2",
      "PixelBandwidth": 1923.0,
      "PixelRepresentation": 0,
      "PixelSpacing": [2.0, 2.0],
      "ProtocolName": "cmrr_mbep2d_bold_2mm_MB8_Task_8x",
      "RepetitionTime": 785.0,
      "Rows": 936,
      "SAR": 0.23263826550902,
      "SamplesPerPixel": 1,
      "ScanOptions": [
        "PFP",
        "FS"
],
      "ScanningSequence": "EP",
      "SequenceName": "epfid2d1_104",
      "SequenceVariant": [
        "SK",
        "SS"
],
      "SeriesDescription": "cmrr_mbep2d_bold_2mm_MB8_Task_8x",
      "SeriesNumber": 25,
      "SeriesTime": "155535.671000",
      "SliceLocation": -106.59460242395,
      "SliceThickness": 2.0,
      "SmallestImagePixelValue": 0,
      "SoftwareVersions": "syngo MR B19",
      "SpacingBetweenSlices": 2.0000000281526,
      "SpecificCharacterSet": "ISO_IR 100",
      "StudyID": "1",
      "StudyTime": "141355.312000",
      "TransmitCoilName": "Body",
      "VariableFlipAngleFlag": "N",
      "WindowCenterWidthExplanation": "Algo1",
      "dBdt": 0.0},
    "slices": {}
  },
  "time": {
    "samples": {
      "AcquisitionNumber": [1, 2, 3, 4, 5, 6, 7, 8, 9, 10, 11, 12, 13, 14, 15, 16, 17, 18, 19, 20, 21, 22, 23, 24, 25, 26, 27, 28, 29, 30, 31, 32, 33, 34, 35, 36, 37, 38, 39, 40, 41, 42, 43, 44, 45, 46, 47, 48, 49, 50, 51, 52, 53, 54, 55, 56, 57, 58, 59, 60, 61, 62, 63, 64, 65, 66, 67, 68, 69, 70, 71, 72, 73, 74, 75, 76, 77, 78, 79, 80, 81, 82, 83, 84, 85, 86, 87, 88, 89, 90, 91, 92, 93, 94, 95, 96, 97, 98, 99, 100, 101, 102, 103, 104, 105, 106, 107, 108, 109, 110, 111, 112, 113, 114, 115, 116, 117, 118, 119, 120, 121, 122, 123, 124, 125, 126, 127, 128, 129, 130, 131, 132, 133, 134, 135, 136, 137, 138, 139, 140, 141, 142, 143, 144, 145, 146, 147, 148, 149, 150, 151, 152, 153, 154, 155, 156, 157, 158, 159, 160, 161, 162, 163, 164, 165, 166, 167, 168, 169, 170, 171, 172, 173, 174, 175, 176, 177, 178, 179, 180, 181, 182, 183, 184, 185, 186, 187, 188, 189, 190, 191, 192, 193, 194, 195, 196, 197, 198, 199, 200, 201, 202, 203, 204, 205, 206, 207, 208, 209, 210, 211, 212, 213, 214, 215, 216, 217, 218, 219, 220, 221, 222, 223, 224, 225, 226, 227, 228, 229, 230, 231, 232, 233, 234, 235, 236, 237, 238, 239, 240, 241, 242, 243, 244, 245, 246, 247, 248, 249, 250, 251, 252, 253, 254, 255, 256, 257, 258, 259, 260, 261, 262, 263, 264, 265, 266, 267, 268, 269, 270, 271, 272, 273, 274, 275, 276, 277, 278, 279, 280, 281, 282, 283, 284, 285, 286, 287, 288, 289, 290, 291, 292, 293, 294, 295, 296, 297, 298, 299, 300, 301, 302, 303, 304, 305, 306, 307, 308, 309, 310, 311, 312, 313, 314, 315, 316, 317, 318, 319, 320, 321, 322, 323, 324, 325, 326, 327, 328, 329, 330, 331, 332, 333, 334, 335, 336, 337, 338, 339, 340, 341, 342, 343, 344, 345, 346, 347, 348, 349, 350, 351, 352, 353, 354, 355, 356, 357, 358, 359, 360, 361, 362, 363, 364, 365, 366, 367, 368, 369, 370, 371, 372, 373, 374, 375, 376, 377, 378, 379, 380, 381, 382, 383, 384, 385, 386, 387, 388, 389, 390, 391, 392, 393, 394, 395, 396, 397, 398, 399, 400, 401, 402, 403, 404, 405, 406, 407, 408, 409, 410, 411, 412, 413, 414, 415, 416, 417, 418, 419, 420, 421, 422, 423, 424, 425, 426, 427, 428, 429, 430, 431, 432, 433, 434, 435, 436, 437, 438, 439, 440, 441, 442, 443, 444, 445, 446, 447, 448, 449, 450, 451, 452, 453, 454, 455, 456, 457, 458, 459, 460, 461, 462, 463, 464, 465, 466, 467, 468, 469, 470, 471, 472, 473, 474, 475, 476, 477, 478, 479, 480, 481, 482, 483, 484, 485, 486, 487, 488, 489, 490, 491, 492, 493, 494, 495, 496, 497, 498, 499, 500, 501, 502, 503, 504, 505, 506, 507, 508, 509, 510, 511, 512, 513, 514, 515, 516, 517, 518, 519, 520, 521, 522, 523, 524, 525, 526, 527, 528, 529, 530, 531, 532, 533, 534, 535, 536, 537, 538, 539, 540, 541, 542, 543, 544, 545, 546, 547, 548, 549, 550, 551, 552, 553, 554, 555, 556, 557, 558, 559, 560, 561, 562, 563, 564, 565, 566, 567, 568, 569, 570, 571, 572, 573, 574, 575, 576, 577, 578, 579, 580, 581],
      "AcquisitionTime": ["155508.720000", "155509.507500", "155510.295000", "155511.082500", "155511.872500", "155512.660000", "155513.447500", "155514.237500", "155515.025000", "155515.812500", "155516.600000", "155517.390000", "155518.177500", "155518.965000", "155519.752500", "155520.542500", "155521.330000", "155522.117500", "155522.905000", "155523.695000", "155524.482500", "155525.270000", "155526.057500", "155526.847500", "155527.635000", "155528.422500", "155529.210000", "155530.000000", "155530.787500", "155531.575000", "155532.365000", "155533.152500", "155533.940000", "155534.727500", "155535.517500", "155536.305000", "155537.092500", "155537.880000", "155538.670000", "155539.457500", "155540.245000", "155541.032500", "155541.822500", "155542.610000", "155543.397500", "155544.185000", "155544.975000", "155545.762500", "155546.550000", "155547.337500", "155548.127500", "155548.915000", "155549.702500", "155550.492500", "155551.280000", "155552.067500", "155552.855000", "155553.645000", "155554.432500", "155555.220000", "155556.007500", "155556.797500", "155557.585000", "155558.372500", "155559.160000", "155559.950000", "155600.737500", "155601.525000", "155602.312500", "155603.102500", "155603.890000", "155604.677500", "155605.465000", "155606.255000", "155607.042500", "155607.830000", "155608.620000", "155609.407500", "155610.195000", "155610.982500", "155611.772500", "155612.560000", "155613.347500", "155614.135000", "155614.925000", "155615.712500", "155616.500000", "155617.287500", "155618.077500", "155618.865000", "155619.652500", "155620.440000", "155621.230000", "155622.017500", "155622.805000", "155623.592500", "155624.382500", "155625.170000", "155625.957500", "155626.747500", "155627.535000", "155628.322500", "155629.110000", "155629.900000", "155630.687500", "155631.475000", "155632.262500", "155633.052500", "155633.840000", "155634.627500", "155635.415000", "155636.205000", "155636.992500", "155637.780000", "155638.567500", "155639.357500", "155640.145000", "155640.932500", "155641.720000", "155642.510000", "155643.297500", "155644.085000", "155644.875000", "155645.662500", "155646.450000", "155647.237500", "155648.027500", "155648.815000", "155649.602500", "155650.390000", "155651.180000", "155651.967500", "155652.755000", "155653.542500", "155654.332500", "155655.120000", "155655.907500", "155656.695000", "155657.485000", "155658.272500", "155659.060000", "155659.847500", "155700.637500", "155701.425000", "155702.212500", "155703.002500", "155703.790000", "155704.577500", "155705.365000", "155706.155000", "155706.942500", "155707.730000", "155708.517500", "155709.307500", "155710.095000", "155710.882500", "155711.670000", "155712.460000", "155713.247500", "155714.035000", "155714.822500", "155715.612500", "155716.400000", "155717.187500", "155717.975000", "155718.765000", "155719.552500", "155720.340000", "155721.130000", "155721.917500", "155722.705000", "155723.492500", "155724.282500", "155725.070000", "155725.857500", "155726.645000", "155727.435000", "155728.222500", "155729.010000", "155729.797500", "155730.587500", "155731.375000", "155732.162500", "155732.950000", "155733.740000", "155734.527500", "155735.315000", "155736.102500", "155736.892500", "155737.680000", "155738.467500", "155739.257500", "155740.045000", "155740.832500", "155741.620000", "155742.410000", "155743.197500", "155743.985000", "155744.772500", "155745.562500", "155746.350000", "155747.137500", "155747.925000", "155748.715000", "155749.502500", "155750.290000", "155751.077500", "155751.867500", "155752.655000", "155753.442500", "155754.230000", "155755.020000", "155755.807500", "155756.595000", "155757.385000", "155758.172500", "155758.960000", "155759.747500", "155800.537500", "155801.325000", "155802.112500", "155802.900000", "155803.690000", "155804.477500", "155805.265000", "155806.052500", "155806.842500", "155807.630000", "155808.417500", "155809.205000", "155809.995000", "155810.782500", "155811.570000", "155812.360000", "155813.147500", "155813.935000", "155814.722500", "155815.512500", "155816.300000", "155817.087500", "155817.875000", "155818.665000", "155819.452500", "155820.240000", "155821.027500", "155821.817500", "155822.605000", "155823.392500", "155824.180000", "155824.970000", "155825.757500", "155826.545000", "155827.332500", "155828.122500", "155828.910000", "155829.697500", "155830.487500", "155831.275000", "155832.062500", "155832.850000", "155833.640000", "155834.427500", "155835.215000", "155836.002500", "155836.792500", "155837.580000", "155838.367500", "155839.155000", "155839.945000", "155840.732500", "155841.520000", "155842.307500", "155843.097500", "155843.885000", "155844.672500", "155845.460000", "155846.250000", "155847.037500", "155847.825000", "155848.615000", "155849.402500", "155850.190000", "155850.977500", "155851.767500", "155852.555000", "155853.342500", "155854.130000", "155854.920000", "155855.707500", "155856.495000", "155857.282500", "155858.072500", "155858.860000", "155859.647500", "155900.435000", "155901.225000", "155902.012500", "155902.800000", "155903.587500", "155904.377500", "155905.165000", "155905.952500", "155906.742500", "155907.530000", "155908.317500", "155909.105000", "155909.895000", "155910.682500", "155911.470000", "155912.257500", "155913.047500", "155913.835000", "155914.622500", "155915.410000", "155916.200000", "155916.987500", "155917.775000", "155918.562500", "155919.352500", "155920.140000", "155920.927500", "155921.715000", "155922.505000", "155923.292500", "155924.080000", "155924.870000", "155925.657500", "155926.445000", "155927.232500", "155928.022500", "155928.810000", "155929.597500", "155930.385000", "155931.175000", "155931.962500", "155932.750000", "155933.537500", "155934.327500", "155935.115000", "155935.902500", "155936.690000", "155937.480000", "155938.267500", "155939.055000", "155939.842500", "155940.632500", "155941.420000", "155942.207500", "155942.997500", "155943.785000", "155944.572500", "155945.360000", "155946.150000", "155946.937500", "155947.725000", "155948.512500", "155949.302500", "155950.090000", "155950.877500", "155951.665000", "155952.455000", "155953.242500", "155954.030000", "155954.817500", "155955.607500", "155956.395000", "155957.182500", "155957.970000", "155958.760000", "155959.547500", "160000.335000", "160001.125000", "160001.912500", "160002.700000", "160003.487500", "160004.277500", "160005.065000", "160005.852500", "160006.640000", "160007.430000", "160008.217500", "160009.005000", "160009.792500", "160010.582500", "160011.370000", "160012.157500", "160012.945000", "160013.735000", "160014.522500", "160015.310000", "160016.097500", "160016.887500", "160017.675000", "160018.462500", "160019.252500", "160020.040000", "160020.827500", "160021.615000", "160022.405000", "160023.192500", "160023.980000", "160024.767500", "160025.557500", "160026.345000", "160027.132500", "160027.920000", "160028.710000", "160029.497500", "160030.285000", "160031.072500", "160031.862500", "160032.650000", "160033.437500", "160034.225000", "160035.015000", "160035.802500", "160036.590000", "160037.380000", "160038.167500", "160038.955000", "160039.742500", "160040.532500", "160041.320000", "160042.107500", "160042.895000", "160043.685000", "160044.472500", "160045.260000", "160046.047500", "160046.837500", "160047.625000", "160048.412500", "160049.200000", "160049.990000", "160050.777500", "160051.565000", "160052.352500", "160053.142500", "160053.930000", "160054.717500", "160055.507500", "160056.295000", "160057.082500", "160057.870000", "160058.660000", "160059.447500", "160100.235000", "160101.022500", "160101.812500", "160102.600000", "160103.387500", "160104.175000", "160104.965000", "160105.752500", "160106.540000", "160107.327500", "160108.117500", "160108.905000", "160109.692500", "160110.480000", "160111.270000", "160112.057500", "160112.845000", "160113.635000", "160114.422500", "160115.210000", "160115.997500", "160116.787500", "160117.575000", "160118.362500", "160119.150000", "160119.940000", "160120.727500", "160121.515000", "160122.302500", "160123.092500", "160123.880000", "160124.667500", "160125.455000", "160126.245000", "160127.032500", "160127.820000", "160128.610000", "160129.397500", "160130.185000", "160130.972500", "160131.762500", "160132.550000", "160133.337500", "160134.125000", "160134.915000", "160135.702500", "160136.490000", "160137.277500", "160138.067500", "160138.855000", "160139.642500", "160140.430000", "160141.220000", "160142.007500", "160142.795000", "160143.582500", "160144.372500", "160145.160000", "160145.947500", "160146.737500", "160147.525000", "160148.312500", "160149.100000", "160149.890000", "160150.677500", "160151.465000", "160152.252500", "160153.042500", "160153.830000", "160154.617500", "160155.405000", "160156.195000", "160156.982500", "160157.770000", "160158.557500", "160159.347500", "160200.135000", "160200.922500", "160201.710000", "160202.500000", "160203.287500", "160204.075000", "160204.865000", "160205.652500", "160206.440000", "160207.227500", "160208.017500", "160208.805000", "160209.592500", "160210.380000", "160211.170000", "160211.957500", "160212.745000", "160213.532500", "160214.322500", "160215.110000", "160215.897500", "160216.685000", "160217.475000", "160218.262500", "160219.050000", "160219.837500", "160220.627500", "160221.415000", "160222.202500", "160222.992500", "160223.780000", "160224.567500", "160225.355000", "160226.145000", "160226.932500", "160227.720000", "160228.507500", "160229.297500", "160230.085000", "160230.872500", "160231.660000", "160232.450000", "160233.237500", "160234.025000", "160234.812500", "160235.602500", "160236.390000", "160237.177500", "160237.965000", "160238.755000", "160239.542500", "160240.330000", "160241.120000", "160241.907500", "160242.695000", "160243.482500", "160244.272500", "160245.060000", "160245.847500"],
      "ContentTime": ["155535.671000", "155535.671000", "155535.671000", "155535.671000", "155535.671000", "155535.687000", "155535.687000", "155535.687000", "155535.687000", "155535.687000", "155535.687000", "155535.687000", "155535.703000", "155535.703000", "155535.703000", "155535.703000", "155535.703000", "155535.703000", "155535.703000", "155535.703000", "155535.718000", "155535.718000", "155535.718000", "155535.718000", "155535.718000", "155535.718000", "155535.734000", "155535.734000", "155535.734000", "155535.734000", "155535.734000", "155555.640000", "155555.640000", "155555.656000", "155555.656000", "155555.656000", "155555.656000", "155555.656000", "155555.656000", "155555.656000", "155555.656000", "155555.671000", "155555.671000", "155555.671000", "155555.671000", "155555.671000", "155555.671000", "155555.671000", "155555.687000", "155555.687000", "155555.687000", "155555.687000", "155555.687000", "155555.687000", "155555.703000", "155555.703000", "155555.703000", "155615.640000", "155615.640000", "155615.656000", "155615.656000", "155615.656000", "155615.656000", "155615.671000", "155615.671000", "155615.671000", "155615.671000", "155615.671000", "155615.671000", "155615.671000", "155615.687000", "155615.687000", "155615.687000", "155615.687000", "155615.687000", "155615.687000", "155615.703000", "155615.703000", "155615.703000", "155615.718000", "155615.718000", "155615.718000", "155635.640000", "155635.640000", "155635.640000", "155635.656000", "155635.656000", "155635.656000", "155635.656000", "155635.656000", "155635.656000", "155635.656000", "155635.671000", "155635.671000", "155635.671000", "155635.671000", "155635.671000", "155635.671000", "155635.671000", "155635.671000", "155635.687000", "155635.687000", "155635.687000", "155635.687000", "155635.687000", "155635.687000", "155635.703000", "155635.703000", "155655.640000", "155655.640000", "155655.640000", "155655.656000", "155655.656000", "155655.656000", "155655.656000", "155655.656000", "155655.656000", "155655.656000", "155655.671000", "155655.671000", "155655.671000", "155655.671000", "155655.671000", "155655.687000", "155655.687000", "155655.687000", "155655.687000", "155655.687000", "155655.687000", "155655.687000", "155655.703000", "155655.703000", "155655.703000", "155715.640000", "155715.640000", "155715.640000", "155715.656000", "155715.656000", "155715.656000", "155715.656000", "155715.656000", "155715.656000", "155715.656000", "155715.671000", "155715.671000", "155715.671000", "155715.671000", "155715.671000", "155715.671000", "155715.671000", "155715.687000", "155715.687000", "155715.687000", "155715.687000", "155715.687000", "155715.687000", "155715.687000", "155715.687000", "155715.703000", "155735.640000", "155735.640000", "155735.640000", "155735.656000", "155735.656000", "155735.656000", "155735.656000", "155735.656000", "155735.656000", "155735.656000", "155735.671000", "155735.671000", "155735.671000", "155735.671000", "155735.671000", "155735.671000", "155735.671000", "155735.687000", "155735.687000", "155735.687000", "155735.687000", "155735.687000", "155735.687000", "155735.687000", "155735.703000", "155755.640000", "155755.640000", "155755.640000", "155755.656000", "155755.656000", "155755.656000", "155755.656000", "155755.656000", "155755.656000", "155755.656000", "155755.671000", "155755.671000", "155755.671000", "155755.671000", "155755.671000", "155755.687000", "155755.687000", "155755.687000", "155755.687000", "155755.687000", "155755.687000", "155755.687000", "155755.687000", "155755.703000", "155755.703000", "155755.703000", "155815.640000", "155815.640000", "155815.640000", "155815.656000", "155815.656000", "155815.656000", "155815.656000", "155815.656000", "155815.656000", "155815.656000", "155815.671000", "155815.671000", "155815.671000", "155815.671000", "155815.671000", "155815.671000", "155815.671000", "155815.671000", "155815.687000", "155815.687000", "155815.687000", "155815.687000", "155815.687000", "155815.687000", "155815.687000", "155835.640000", "155835.640000", "155835.640000", "155835.656000", "155835.656000", "155835.656000", "155835.656000", "155835.656000", "155835.656000", "155835.656000", "155835.671000", "155835.671000", "155835.671000", "155835.671000", "155835.671000", "155835.671000", "155835.671000", "155835.687000", "155835.687000", "155835.687000", "155835.687000", "155835.687000", "155835.687000", "155835.687000", "155835.687000", "155835.703000", "155855.640000", "155855.640000", "155855.656000", "155855.656000", "155855.656000", "155855.656000", "155855.656000", "155855.656000", "155855.656000", "155855.656000", "155855.671000", "155855.671000", "155855.671000", "155855.671000", "155855.671000", "155855.671000", "155855.671000", "155855.687000", "155855.687000", "155855.687000", "155855.687000", "155855.703000", "155855.703000", "155855.703000", "155855.703000", "155915.640000", "155915.640000", "155915.640000", "155915.656000", "155915.656000", "155915.656000", "155915.656000", "155915.656000", "155915.656000", "155915.656000", "155915.671000", "155915.671000", "155915.671000", "155915.671000", "155915.671000", "155915.671000", "155915.671000", "155915.671000", "155915.687000", "155915.687000", "155915.687000", "155915.687000", "155915.687000", "155915.703000", "155915.703000", "155915.703000", "155935.640000", "155935.640000", "155935.640000", "155935.656000", "155935.656000", "155935.656000", "155935.656000", "155935.656000", "155935.671000", "155935.671000", "155935.671000", "155935.671000", "155935.687000", "155935.687000", "155935.687000", "155935.687000", "155935.687000", "155935.687000", "155935.687000", "155935.687000", "155935.703000", "155935.703000", "155935.703000", "155935.703000", "155935.703000", "155955.640000", "155955.640000", "155955.640000", "155955.656000", "155955.656000", "155955.656000", "155955.656000", "155955.656000", "155955.656000", "155955.656000", "155955.671000", "155955.671000", "155955.671000", "155955.671000", "155955.671000", "155955.671000", "155955.671000", "155955.671000", "155955.687000", "155955.687000", "155955.687000", "155955.687000", "155955.687000", "155955.687000", "155955.703000", "155955.703000", "160015.640000", "160015.640000", "160015.640000", "160015.656000", "160015.656000", "160015.656000", "160015.656000", "160015.656000", "160015.656000", "160015.656000", "160015.671000", "160015.671000", "160015.671000", "160015.671000", "160015.671000", "160015.671000", "160015.671000", "160015.687000", "160015.687000", "160015.687000", "160015.687000", "160015.687000", "160015.687000", "160015.687000", "160015.687000", "160035.640000", "160035.640000", "160035.656000", "160035.656000", "160035.656000", "160035.656000", "160035.656000", "160035.656000", "160035.656000", "160035.656000", "160035.671000", "160035.671000", "160035.671000", "160035.671000", "160035.671000", "160035.671000", "160035.671000", "160035.671000", "160035.687000", "160035.687000", "160035.687000", "160035.687000", "160035.687000", "160035.687000", "160035.687000", "160035.703000", "160055.640000", "160055.640000", "160055.656000", "160055.656000", "160055.656000", "160055.656000", "160055.656000", "160055.656000", "160055.656000", "160055.656000", "160055.671000", "160055.671000", "160055.671000", "160055.671000", "160055.671000", "160055.671000", "160055.671000", "160055.687000", "160055.687000", "160055.687000", "160055.687000", "160055.687000", "160055.687000", "160055.687000", "160055.687000", "160115.640000", "160115.640000", "160115.640000", "160115.656000", "160115.656000", "160115.656000", "160115.656000", "160115.656000", "160115.671000", "160115.671000", "160115.671000", "160115.671000", "160115.671000", "160115.671000", "160115.671000", "160115.671000", "160115.687000", "160115.687000", "160115.687000", "160115.687000", "160115.687000", "160115.687000", "160115.687000", "160115.703000", "160115.703000", "160115.703000", "160135.640000", "160135.640000", "160135.640000", "160135.656000", "160135.656000", "160135.656000", "160135.656000", "160135.656000", "160135.656000", "160135.656000", "160135.671000", "160135.671000", "160135.671000", "160135.671000", "160135.671000", "160135.671000", "160135.671000", "160135.687000", "160135.687000", "160135.687000", "160135.687000", "160135.687000", "160135.687000", "160135.687000", "160135.703000", "160155.640000", "160155.640000", "160155.640000", "160155.656000", "160155.656000", "160155.656000", "160155.656000", "160155.656000", "160155.671000", "160155.671000", "160155.671000", "160155.671000", "160155.671000", "160155.671000", "160155.671000", "160155.687000", "160155.687000", "160155.687000", "160155.687000", "160155.687000", "160155.703000", "160155.703000", "160155.703000", "160155.703000", "160155.703000", "160155.703000", "160215.640000", "160215.640000", "160215.640000", "160215.656000", "160215.656000", "160215.656000", "160215.656000", "160215.656000", "160215.656000", "160215.656000", "160215.671000", "160215.671000", "160215.671000", "160215.671000", "160215.671000", "160215.671000", "160215.671000", "160215.687000", "160215.687000", "160215.687000", "160215.687000", "160215.687000", "160215.687000", "160215.687000", "160215.703000", "160235.640000", "160235.640000", "160235.640000", "160235.656000", "160235.656000", "160235.656000", "160235.656000", "160235.656000", "160235.656000", "160235.656000", "160235.671000", "160235.671000", "160235.671000", "160235.671000", "160235.671000", "160235.671000", "160235.671000", "160235.671000", "160235.687000", "160235.687000", "160235.687000", "160235.687000", "160235.687000", "160235.703000", "160235.703000", "160235.703000", "160246.687000", "160246.687000", "160246.687000", "160246.687000", "160246.687000", "160246.687000", "160246.703000", "160246.703000", "160246.703000", "160246.703000", "160246.703000", "160246.718000", "160246.718000", "160246.718000"],
