{
  "AcquisitionMatrixPE": 104,
  "AcquisitionNumber": 1,
  "AcquisitionTime": "16:03:10.710000",
  "BandwidthPerPixelPhaseEncode": 13.935,
  "BaseResolution": 104,
  "CoilString": "C:HEA;HEP",
  "ConversionSoftware": "dcm2niix",
  "ConversionSoftwareVersion": "v1.0.20210317",
  "DerivedVendorReportedEchoSpacing": 0.000690017,
  "DeviceSerialNumber": "35450",
  "DwellTime": 2.5e-06,
  "EchoTime": 0.0348,
  "EffectiveEchoSpacing": 0.000690017,
  "FlipAngle": 55,
  "ImageComments": "Unaliased MB8/PE3 (remote)",
  "ImageOrientationPatientDICOM": [0.999701, 0.00399038, 0.0241041, 2.62773e-08, 0.986572, -0.163326],
  "ImageType": [
    "ORIGINAL",
    "PRIMARY",
    "M",
    "MB",
    "ND",
    "MOSAIC"
],
  "ImagingFrequency": 123.235,
  "InPlanePhaseEncodingDirectionDICOM": "COL",
  "InstitutionAddress": "Univeristy Ave. 197,Newark,North East,US,07102-1814",
  "InstitutionName": "RUBIC",
  "InstitutionalDepartmentName": "Department",
  "MRAcquisitionType": "2D",
  "MagneticFieldStrength": 3,
  "Manufacturer": "Siemens",
  "ManufacturersModelName": "TrioTim",
  "Modality": "MR",
  "MultibandAccelerationFactor": 8,
  "PartialFourier": 0.875,
  "PatientPosition": "HFS",
  "PercentPhaseFOV": 100,
  "PercentSampling": 100,
  "PhaseEncodingDirection": "j-",
  "PhaseEncodingSteps": 91,
  "PhaseResolution": 1,
  "PixelBandwidth": 1923,
  "ProcedureStepDescription": "Cole^Michael",
  "ProtocolName": "cmrr_mbep2d_bold_2mm_MB8_Task_8x",
  "PulseSequenceDetails": "%CustomerSeq%\\cmrr_mbep2d_bold",
  "ReceiveCoilName": "32Ch_Head",
  "ReconMatrixPE": 104,
  "RepetitionTime": 0.785,
  "SAR": 0.232638,
  "ScanOptions": "PFP\\FS",
  "ScanningSequence": "EP",
  "SequenceName": "epfid2d1_104",
  "SequenceVariant": "SK\\SS",
  "SeriesDescription": "cmrr_mbep2d_bold_2mm_MB8_Task_8x",
  "SeriesNumber": 27,
  "ShimSetting": [2147, -402, -7236, 428, -61, -158, 317, 56],
  "SliceThickness": 2,
  "SliceTiming": [0, 0.4375, 0.0875, 0.525, 0.175, 0.6125, 0.2625, 0.7, 0.35, 0, 0.4375, 0.0875, 0.525, 0.175, 0.6125, 0.2625, 0.7, 0.35, 0, 0.4375, 0.0875, 0.525, 0.175, 0.6125, 0.2625, 0.7, 0.35, 0, 0.4375, 0.0875, 0.525, 0.175, 0.6125, 0.2625, 0.7, 0.35, 0, 0.4375, 0.0875, 0.525, 0.175, 0.6125, 0.2625, 0.7, 0.35, 0, 0.4375, 0.0875, 0.525, 0.175, 0.6125, 0.2625, 0.7, 0.35, 0, 0.4375, 0.0875, 0.525, 0.175, 0.6125, 0.2625, 0.7, 0.35, 0, 0.4375, 0.0875, 0.525, 0.175, 0.6125, 0.2625, 0.7, 0.35],
  "SoftwareVersions": "syngo MR B19",
  "SpacingBetweenSlices": 2,
  "StationName": "MRC35450",
  "TaskName": "cpro",
  "TotalReadoutTime": 0.0710717,
  "TxRefAmp": 400.655,
  "dcmmeta_affine": [
    [-1.9994029998779297, 5.255463975117891e-08, 0.04886435717344284, 104.94612884521484],
    [-0.007980766706168652, 1.973144292831421, -0.32655441761016846, -69.6917495727539],
    [0.04820822551846504, 0.326651930809021, 1.97255539894104, -122.21481323242188],
    [0.0, 0.0, 0.0, 1.0]
],
  "dcmmeta_reorient_transform": [
    [0.0, -1.0, 0.0, 103.0],
    [1.0, 0.0, 0.0, 0.0],
    [0.0, 0.0, 1.0, 0.0],
    [0.0, 0.0, 0.0, 1.0]
],
  "dcmmeta_shape": [104, 104, 72, 581],
  "dcmmeta_slice_dim": 2,
  "dcmmeta_version": 0.6,
  "global": {
    "const": {
      "AcquisitionMatrix": [104, 0, 0, 104],
      "AngioFlag": "N",
      "BitsAllocated": 16,
      "BitsStored": 12,
      "Columns": 936,
      "EchoNumbers": 1,
      "EchoTime": 34.8,
      "EchoTrainLength": 1,
      "FlipAngle": 55.0,
      "HighBit": 11,
      "ImageOrientationPatient": [0.99970148976069, 0.00399038323931, 0.02410411192837, 2.627732e-08, 0.98657216152114, -0.1633259627601],
      "ImagePositionPatient": [-936.69779883688, -957.69015487185, 27.262915806199],
      "ImageType": [
        "ORIGINAL",
        "PRIMARY",
        "M",
        "MB",
        "ND",
        "MOSAIC"
],
      "ImagedNucleus": "1H",
      "ImagingFrequency": 123.234523,
      "InPlanePhaseEncodingDirection": "COL",
      "MRAcquisitionType": "2D",
      "MagneticFieldStrength": 3.0,
      "Manufacturer": "SIEMENS",
      "ManufacturerModelName": "TrioTim",
      "Modality": "MR",
      "NumberOfAverages": 1.0,
      "NumberOfPhaseEncodingSteps": 91,
      "PercentPhaseFieldOfView": 100.0,
      "PercentSampling": 100.0,
      "PerformedProcedureStepStartTime": "141355.343000",
      "PhotometricInterpretation": "MONOCHROME2",
      "PixelBandwidth": 1923.0,
      "PixelRepresentation": 0,
      "PixelSpacing": [2.0, 2.0],
      "ProtocolName": "cmrr_mbep2d_bold_2mm_MB8_Task_8x",
      "RepetitionTime": 785.0,
      "Rows": 936,
      "SAR": 0.23263826550902,
      "SamplesPerPixel": 1,
      "ScanOptions": [
        "PFP",
        "FS"
],
      "ScanningSequence": "EP",
      "SequenceName": "epfid2d1_104",
      "SequenceVariant": [
        "SK",
        "SS"
],
      "SeriesDescription": "cmrr_mbep2d_bold_2mm_MB8_Task_8x",
      "SeriesNumber": 27,
      "SeriesTime": "160329.375000",
      "SliceLocation": -106.59460242395,
      "SliceThickness": 2.0,
      "SmallestImagePixelValue": 0,
      "SoftwareVersions": "syngo MR B19",
      "SpacingBetweenSlices": 2.0000000281526,
      "SpecificCharacterSet": "ISO_IR 100",
      "StudyID": "1",
      "StudyTime": "141355.312000",
      "TransmitCoilName": "Body",
      "VariableFlipAngleFlag": "N",
      "WindowCenterWidthExplanation": "Algo1",
      "dBdt": 0.0},
    "slices": {}
  },
  "time": {
    "samples": {
      "AcquisitionNumber": [1, 2, 3, 4, 5, 6, 7, 8, 9, 10, 11, 12, 13, 14, 15, 16, 17, 18, 19, 20, 21, 22, 23, 24, 25, 26, 27, 28, 29, 30, 31, 32, 33, 34, 35, 36, 37, 38, 39, 40, 41, 42, 43, 44, 45, 46, 47, 48, 49, 50, 51, 52, 53, 54, 55, 56, 57, 58, 59, 60, 61, 62, 63, 64, 65, 66, 67, 68, 69, 70, 71, 72, 73, 74, 75, 76, 77, 78, 79, 80, 81, 82, 83, 84, 85, 86, 87, 88, 89, 90, 91, 92, 93, 94, 95, 96, 97, 98, 99, 100, 101, 102, 103, 104, 105, 106, 107, 108, 109, 110, 111, 112, 113, 114, 115, 116, 117, 118, 119, 120, 121, 122, 123, 124, 125, 126, 127, 128, 129, 130, 131, 132, 133, 134, 135, 136, 137, 138, 139, 140, 141, 142, 143, 144, 145, 146, 147, 148, 149, 150, 151, 152, 153, 154, 155, 156, 157, 158, 159, 160, 161, 162, 163, 164, 165, 166, 167, 168, 169, 170, 171, 172, 173, 174, 175, 176, 177, 178, 179, 180, 181, 182, 183, 184, 185, 186, 187, 188, 189, 190, 191, 192, 193, 194, 195, 196, 197, 198, 199, 200, 201, 202, 203, 204, 205, 206, 207, 208, 209, 210, 211, 212, 213, 214, 215, 216, 217, 218, 219, 220, 221, 222, 223, 224, 225, 226, 227, 228, 229, 230, 231, 232, 233, 234, 235, 236, 237, 238, 239, 240, 241, 242, 243, 244, 245, 246, 247, 248, 249, 250, 251, 252, 253, 254, 255, 256, 257, 258, 259, 260, 261, 262, 263, 264, 265, 266, 267, 268, 269, 270, 271, 272, 273, 274, 275, 276, 277, 278, 279, 280, 281, 282, 283, 284, 285, 286, 287, 288, 289, 290, 291, 292, 293, 294, 295, 296, 297, 298, 299, 300, 301, 302, 303, 304, 305, 306, 307, 308, 309, 310, 311, 312, 313, 314, 315, 316, 317, 318, 319, 320, 321, 322, 323, 324, 325, 326, 327, 328, 329, 330, 331, 332, 333, 334, 335, 336, 337, 338, 339, 340, 341, 342, 343, 344, 345, 346, 347, 348, 349, 350, 351, 352, 353, 354, 355, 356, 357, 358, 359, 360, 361, 362, 363, 364, 365, 366, 367, 368, 369, 370, 371, 372, 373, 374, 375, 376, 377, 378, 379, 380, 381, 382, 383, 384, 385, 386, 387, 388, 389, 390, 391, 392, 393, 394, 395, 396, 397, 398, 399, 400, 401, 402, 403, 404, 405, 406, 407, 408, 409, 410, 411, 412, 413, 414, 415, 416, 417, 418, 419, 420, 421, 422, 423, 424, 425, 426, 427, 428, 429, 430, 431, 432, 433, 434, 435, 436, 437, 438, 439, 440, 441, 442, 443, 444, 445, 446, 447, 448, 449, 450, 451, 452, 453, 454, 455, 456, 457, 458, 459, 460, 461, 462, 463, 464, 465, 466, 467, 468, 469, 470, 471, 472, 473, 474, 475, 476, 477, 478, 479, 480, 481, 482, 483, 484, 485, 486, 487, 488, 489, 490, 491, 492, 493, 494, 495, 496, 497, 498, 499, 500, 501, 502, 503, 504, 505, 506, 507, 508, 509, 510, 511, 512, 513, 514, 515, 516, 517, 518, 519, 520, 521, 522, 523, 524, 525, 526, 527, 528, 529, 530, 531, 532, 533, 534, 535, 536, 537, 538, 539, 540, 541, 542, 543, 544, 545, 546, 547, 548, 549, 550, 551, 552, 553, 554, 555, 556, 557, 558, 559, 560, 561, 562, 563, 564, 565, 566, 567, 568, 569, 570, 571, 572, 573, 574, 575, 576, 577, 578, 579, 580, 581],
      "AcquisitionTime": ["160310.710000", "160311.500000", "160312.287500", "160313.075000", "160313.862500", "160314.652500", "160315.440000", "160316.227500", "160317.015000", "160317.805000", "160318.592500", "160319.380000", "160320.170000", "160320.957500", "160321.745000", "160322.532500", "160323.322500", "160324.110000", "160324.897500", "160325.685000", "160326.475000", "160327.262500", "160328.050000", "160328.837500", "160329.627500", "160330.415000", "160331.202500", "160331.990000", "160332.780000", "160333.567500", "160334.355000", "160335.142500", "160335.932500", "160336.720000", "160337.507500", "160338.297500", "160339.085000", "160339.872500", "160340.660000", "160341.450000", "160342.237500", "160343.025000", "160343.812500", "160344.602500", "160345.390000", "160346.177500", "160346.965000", "160347.755000", "160348.542500", "160349.330000", "160350.117500", "160350.907500", "160351.695000", "160352.482500", "160353.270000", "160354.060000", "160354.847500", "160355.635000", "160356.425000", "160357.212500", "160358.000000", "160358.787500", "160359.577500", "160400.365000", "160401.152500", "160401.940000", "160402.730000", "160403.517500", "160404.305000", "160405.092500", "160405.882500", "160406.670000", "160407.457500", "160408.245000", "160409.035000", "160409.822500", "160410.610000", "160411.400000", "160412.187500", "160412.975000", "160413.762500", "160414.552500", "160415.340000", "160416.127500", "160416.915000", "160417.705000", "160418.492500", "160419.280000", "160420.067500", "160420.857500", "160421.645000", "160422.432500", "160423.220000", "160424.010000", "160424.797500", "160425.585000", "160426.372500", "160427.162500", "160427.950000", "160428.737500", "160429.527500", "160430.315000", "160431.102500", "160431.890000", "160432.680000", "160433.467500", "160434.255000", "160435.042500", "160435.832500", "160436.620000", "160437.407500", "160438.195000", "160438.985000", "160439.772500", "160440.560000", "160441.347500", "160442.137500", "160442.925000", "160443.712500", "160444.500000", "160445.290000", "160446.077500", "160446.865000", "160447.655000", "160448.442500", "160449.230000", "160450.017500", "160450.807500", "160451.595000", "160452.382500", "160453.170000", "160453.960000", "160454.747500", "160455.535000", "160456.322500", "160457.112500", "160457.900000", "160458.687500", "160459.475000", "160500.265000", "160501.052500", "160501.840000", "160502.627500", "160503.417500", "160504.205000", "160504.992500", "160505.782500", "160506.570000", "160507.357500", "160508.145000", "160508.935000", "160509.722500", "160510.510000", "160511.297500", "160512.087500", "160512.875000", "160513.662500", "160514.450000", "160515.240000", "160516.027500", "160516.815000", "160517.602500", "160518.392500", "160519.180000", "160519.967500", "160520.755000", "160521.545000", "160522.332500", "160523.120000", "160523.910000", "160524.697500", "160525.485000", "160526.272500", "160527.062500", "160527.850000", "160528.637500", "160529.425000", "160530.215000", "160531.002500", "160531.790000", "160532.577500", "160533.367500", "160534.155000", "160534.942500", "160535.730000", "160536.520000", "160537.307500", "160538.095000", "160538.882500", "160539.672500", "160540.460000", "160541.247500", "160542.037500", "160542.825000", "160543.612500", "160544.400000", "160545.190000", "160545.977500", "160546.765000", "160547.552500", "160548.342500", "160549.130000", "160549.917500", "160550.705000", "160551.495000", "160552.282500", "160553.070000", "160553.857500", "160554.647500", "160555.435000", "160556.222500", "160557.010000", "160557.800000", "160558.587500", "160559.375000", "160600.165000", "160600.952500", "160601.740000", "160602.527500", "160603.317500", "160604.105000", "160604.892500", "160605.680000", "160606.470000", "160607.257500", "160608.045000", "160608.832500", "160609.622500", "160610.410000", "160611.197500", "160611.985000", "160612.775000", "160613.562500", "160614.350000", "160615.137500", "160615.927500", "160616.715000", "160617.502500", "160618.292500", "160619.080000", "160619.867500", "160620.655000", "160621.445000", "160622.232500", "160623.020000", "160623.807500", "160624.597500", "160625.385000", "160626.172500", "160626.960000", "160627.750000", "160628.537500", "160629.325000", "160630.112500", "160630.902500", "160631.690000", "160632.477500", "160633.265000", "160634.055000", "160634.842500", "160635.630000", "160636.420000", "160637.207500", "160637.995000", "160638.782500", "160639.572500", "160640.360000", "160641.147500", "160641.935000", "160642.725000", "160643.512500", "160644.300000", "160645.087500", "160645.877500", "160646.665000", "160647.452500", "160648.240000", "160649.030000", "160649.817500", "160650.605000", "160651.392500", "160652.182500", "160652.970000", "160653.757500", "160654.547500", "160655.335000", "160656.122500", "160656.910000", "160657.700000", "160658.487500", "160659.275000", "160700.062500", "160700.852500", "160701.640000", "160702.427500", "160703.215000", "160704.005000", "160704.792500", "160705.580000", "160706.367500", "160707.157500", "160707.945000", "160708.732500", "160709.520000", "160710.310000", "160711.097500", "160711.885000", "160712.675000", "160713.462500", "160714.250000", "160715.037500", "160715.827500", "160716.615000", "160717.402500", "160718.190000", "160718.980000", "160719.767500", "160720.555000", "160721.342500", "160722.132500", "160722.920000", "160723.707500", "160724.495000", "160725.285000", "160726.072500", "160726.860000", "160727.650000", "160728.437500", "160729.225000", "160730.012500", "160730.802500", "160731.590000", "160732.377500", "160733.165000", "160733.955000", "160734.742500", "160735.530000", "160736.317500", "160737.107500", "160737.895000", "160738.682500", "160739.470000", "160740.260000", "160741.047500", "160741.835000", "160742.622500", "160743.412500", "160744.200000", "160744.987500", "160745.777500", "160746.565000", "160747.352500", "160748.140000", "160748.930000", "160749.717500", "160750.505000", "160751.292500", "160752.082500", "160752.870000", "160753.657500", "160754.445000", "160755.235000", "160756.022500", "160756.810000", "160757.597500", "160758.387500", "160759.175000", "160759.962500", "160800.750000", "160801.540000", "160802.327500", "160803.115000", "160803.905000", "160804.692500", "160805.480000", "160806.267500", "160807.057500", "160807.845000", "160808.632500", "160809.420000", "160810.210000", "160810.997500", "160811.785000", "160812.572500", "160813.362500", "160814.150000", "160814.937500", "160815.725000", "160816.515000", "160817.302500", "160818.090000", "160818.877500", "160819.667500", "160820.455000", "160821.242500", "160822.032500", "160822.820000", "160823.607500", "160824.395000", "160825.185000", "160825.972500", "160826.760000", "160827.547500", "160828.337500", "160829.125000", "160829.912500", "160830.700000", "160831.490000", "160832.277500", "160833.065000", "160833.852500", "160834.642500", "160835.430000", "160836.217500", "160837.005000", "160837.795000", "160838.582500", "160839.370000", "160840.160000", "160840.947500", "160841.735000", "160842.522500", "160843.312500", "160844.100000", "160844.887500", "160845.675000", "160846.465000", "160847.252500", "160848.040000", "160848.827500", "160849.617500", "160850.405000", "160851.192500", "160851.980000", "160852.770000", "160853.557500", "160854.345000", "160855.132500", "160855.922500", "160856.710000", "160857.497500", "160858.287500", "160859.075000", "160859.862500", "160900.650000", "160901.440000", "160902.227500", "160903.015000", "160903.802500", "160904.592500", "160905.380000", "160906.167500", "160906.955000", "160907.745000", "160908.532500", "160909.320000", "160910.107500", "160910.897500", "160911.685000", "160912.472500", "160913.260000", "160914.050000", "160914.837500", "160915.625000", "160916.415000", "160917.202500", "160917.990000", "160918.777500", "160919.567500", "160920.355000", "160921.142500", "160921.930000", "160922.720000", "160923.507500", "160924.295000", "160925.082500", "160925.872500", "160926.660000", "160927.447500", "160928.235000", "160929.025000", "160929.812500", "160930.600000", "160931.387500", "160932.177500", "160932.965000", "160933.752500", "160934.542500", "160935.330000", "160936.117500", "160936.905000", "160937.695000", "160938.482500", "160939.270000", "160940.057500", "160940.847500", "160941.635000", "160942.422500", "160943.210000", "160944.000000", "160944.787500", "160945.575000", "160946.362500", "160947.152500", "160947.940000", "160948.727500", "160949.515000", "160950.305000", "160951.092500", "160951.880000", "160952.670000", "160953.457500", "160954.245000", "160955.032500", "160955.822500", "160956.610000", "160957.397500", "160958.185000", "160958.975000", "160959.762500", "161000.550000", "161001.337500", "161002.127500", "161002.915000", "161003.702500", "161004.490000", "161005.280000", "161006.067500", "161006.855000", "161007.642500", "161008.432500", "161009.220000", "161010.007500", "161010.797500", "161011.585000", "161012.372500", "161013.160000", "161013.950000", "161014.737500", "161015.525000", "161016.312500", "161017.102500", "161017.890000", "161018.677500", "161019.465000", "161020.255000", "161021.042500", "161021.830000", "161022.617500", "161023.407500", "161024.195000", "161024.982500", "161025.770000", "161026.560000", "161027.347500", "161028.135000", "161028.925000", "161029.712500", "161030.500000", "161031.287500", "161032.077500", "161032.865000", "161033.652500", "161034.440000", "161035.230000", "161036.017500", "161036.805000", "161037.592500", "161038.382500", "161039.170000", "161039.957500", "161040.745000", "161041.535000", "161042.322500", "161043.110000", "161043.900000", "161044.687500", "161045.475000", "161046.262500", "161047.052500", "161047.840000"],
      "ContentTime": ["160329.375000", "160329.390000", "160329.390000", "160329.390000", "160329.390000", "160329.390000", "160329.390000", "160329.390000", "160329.390000", "160329.406000", "160329.406000", "160329.406000", "160329.406000", "160329.406000", "160329.406000", "160329.406000", "160329.406000", "160329.421000", "160329.421000", "160329.421000", "160349.343000", "160349.343000", "160349.343000", "160349.359000", "160349.359000", "160349.359000", "160349.359000", "160349.359000", "160349.359000", "160349.359000", "160349.375000", "160349.375000", "160349.375000", "160349.375000", "160349.375000", "160349.375000", "160349.375000", "160349.375000", "160349.390000", "160349.390000", "160349.390000", "160349.390000", "160349.390000", "160349.390000", "160349.390000", "160349.406000", "160409.343000", "160409.343000", "160409.359000", "160409.359000", "160409.359000", "160409.359000", "160409.359000", "160409.359000", "160409.359000", "160409.375000", "160409.375000", "160409.375000", "160409.375000", "160409.375000", "160409.375000", "160409.375000", "160409.390000", "160409.390000", "160409.390000", "160409.390000", "160409.390000", "160409.390000", "160409.390000", "160409.406000", "160409.406000", "160429.343000", "160429.343000", "160429.343000", "160429.359000", "160429.359000", "160429.359000", "160429.359000", "160429.359000", "160429.359000", "160429.359000", "160429.375000", "160429.375000", "160429.375000", "160429.375000", "160429.375000", "160429.375000", "160429.375000", "160429.390000", "160429.390000", "160429.390000", "160429.390000", "160429.390000", "160429.390000", "160429.406000", "160429.406000", "160429.406000", "160449.343000", "160449.343000", "160449.343000", "160449.359000", "160449.359000", "160449.359000", "160449.359000", "160449.359000", "160449.359000", "160449.359000", "160449.375000", "160449.375000", "160449.375000", "160449.375000", "160449.375000", "160449.375000", "160449.375000", "160449.375000", "160449.390000", "160449.390000", "160449.390000", "160449.390000", "160449.390000", "160449.406000", "160449.406000", "160509.343000", "160509.343000", "160509.343000", "160509.359000", "160509.359000", "160509.359000", "160509.359000", "160509.359000", "160509.359000", "160509.359000", "160509.375000", "160509.375000", "160509.375000", "160509.375000", "160509.375000", "160509.375000", "160509.375000", "160509.375000", "160509.390000", "160509.390000", "160509.390000", "160509.390000", "160509.390000", "160509.390000", "160509.390000", "160509.406000", "160529.343000", "160529.343000", "160529.343000", "160529.359000", "160529.359000", "160529.359000", "160529.359000", "160529.359000", "160529.359000", "160529.359000", "160529.375000", "160529.375000", "160529.375000", "160529.375000", "160529.375000", "160529.375000", "160529.375000", "160529.390000", "160529.390000", "160529.390000", "160529.390000", "160529.390000", "160529.390000", "160529.390000", "160529.390000", "160549.343000", "160549.343000", "160549.343000", "160549.359000", "160549.359000", "160549.359000", "160549.359000", "160549.359000", "160549.359000", "160549.375000", "160549.375000", "160549.375000", "160549.375000", "160549.375000", "160549.375000", "160549.390000", "160549.390000", "160549.390000", "160549.390000", "160549.390000", "160549.390000", "160549.390000", "160549.390000", "160549.406000", "160549.406000", "160549.406000", "160609.343000", "160609.343000", "160609.359000", "160609.359000", "160609.359000", "160609.359000", "160609.359000", "160609.359000", "160609.359000", "160609.359000", "160609.375000", "160609.375000", "160609.375000", "160609.375000", "160609.375000", "160609.390000", "160609.390000", "160609.390000", "160609.390000", "160609.390000", "160609.390000", "160609.390000", "160609.390000", "160609.406000", "160609.406000", "160629.343000", "160629.343000", "160629.343000", "160629.359000", "160629.359000", "160629.359000", "160629.359000", "160629.359000", "160629.359000", "160629.359000", "160629.375000", "160629.375000", "160629.375000", "160629.375000", "160629.375000", "160629.375000", "160629.375000", "160629.390000", "160629.390000", "160629.390000", "160629.390000", "160629.390000", "160629.390000", "160629.406000", "160629.406000", "160629.406000", "160649.343000", "160649.343000", "160649.343000", "160649.359000", "160649.359000", "160649.359000", "160649.359000", "160649.359000", "160649.359000", "160649.359000", "160649.375000", "160649.375000", "160649.375000", "160649.375000", "160649.375000", "160649.375000", "160649.375000", "160649.375000", "160649.390000", "160649.390000", "160649.390000", "160649.390000", "160649.390000", "160649.390000", "160649.406000", "160709.343000", "160709.343000", "160709.343000", "160709.359000", "160709.359000", "160709.359000", "160709.359000", "160709.359000", "160709.375000", "160709.375000", "160709.375000", "160709.375000", "160709.375000", "160709.375000", "160709.375000", "160709.390000", "160709.390000", "160709.390000", "160709.390000", "160709.390000", "160709.390000", "160709.390000", "160709.390000", "160709.406000", "160709.406000", "160709.406000", "160729.343000", "160729.343000", "160729.343000", "160729.359000", "160729.359000", "160729.359000", "160729.359000", "160729.359000", "160729.359000", "160729.359000", "160729.375000", "160729.375000", "160729.375000", "160729.375000", "160729.375000", "160729.390000", "160729.390000", "160729.390000", "160729.390000", "160729.390000", "160729.390000", "160729.390000", "160729.406000", "160729.406000", "160729.406000", "160749.343000", "160749.343000", "160749.343000", "160749.359000", "160749.359000", "160749.359000", "160749.359000", "160749.359000", "160749.359000", "160749.359000", "160749.375000", "160749.375000", "160749.375000", "160749.375000", "160749.375000", "160749.375000", "160749.375000", "160749.375000", "160749.390000", "160749.390000", "160749.390000", "160749.390000", "160749.390000", "160749.390000", "160749.390000", "160749.406000", "160809.343000", "160809.343000", "160809.359000", "160809.359000", "160809.359000", "160809.359000", "160809.359000", "160809.359000", "160809.359000", "160809.359000", "160809.375000", "160809.375000", "160809.375000", "160809.375000", "160809.375000", "160809.375000", "160809.375000", "160809.375000", "160809.390000", "160809.390000", "160809.390000", "160809.390000", "160809.390000", "160809.390000", "160809.390000", "160829.343000", "160829.343000", "160829.343000", "160829.359000", "160829.359000", "160829.359000", "160829.359000", "160829.359000", "160829.375000", "160829.375000", "160829.375000", "160829.375000", "160829.375000", "160829.375000", "160829.375000", "160829.390000", "160829.390000", "160829.390000", "160829.390000", "160829.390000", "160829.390000", "160829.390000", "160829.406000", "160829.406000", "160829.406000", "160829.406000", "160849.343000", "160849.343000", "160849.359000", "160849.359000", "160849.359000", "160849.359000", "160849.359000", "160849.359000", "160849.359000", "160849.359000", "160849.375000", "160849.375000", "160849.375000", "160849.375000", "160849.375000", "160849.375000", "160849.375000", "160849.390000", "160849.390000", "160849.390000", "160849.390000", "160849.390000", "160849.390000", "160849.390000", "160849.390000", "160909.343000", "160909.343000", "160909.343000", "160909.359000", "160909.359000", "160909.359000", "160909.359000", "160909.359000", "160909.359000", "160909.359000", "160909.375000", "160909.375000", "160909.375000", "160909.375000", "160909.375000", "160909.375000", "160909.375000", "160909.375000", "160909.390000", "160909.390000", "160909.390000", "160909.390000", "160909.390000", "160909.406000", "160909.406000", "160909.406000", "160929.343000", "160929.343000", "160929.343000", "160929.359000", "160929.359000", "160929.359000", "160929.359000", "160929.359000", "160929.359000", "160929.359000", "160929.375000", "160929.375000", "160929.375000", "160929.375000", "160929.375000", "160929.375000", "160929.375000", "160929.390000", "160929.390000", "160929.390000", "160929.390000", "160929.390000", "160929.390000", "160929.390000", "160929.390000", "160949.343000", "160949.343000", "160949.343000", "160949.359000", "160949.359000", "160949.359000", "160949.359000", "160949.359000", "160949.359000", "160949.359000", "160949.375000", "160949.375000", "160949.375000", "160949.375000", "160949.375000", "160949.375000", "160949.375000", "160949.390000", "160949.390000", "160949.390000", "160949.390000", "160949.390000", "160949.390000", "160949.390000", "160949.390000", "160949.406000", "161009.343000", "161009.343000", "161009.343000", "161009.359000", "161009.359000", "161009.359000", "161009.359000", "161009.359000", "161009.375000", "161009.375000", "161009.375000", "161009.375000", "161009.375000", "161009.375000", "161009.375000", "161009.390000", "161009.390000", "161009.390000", "161009.390000", "161009.390000", "161009.390000", "161009.390000", "161009.406000", "161009.406000", "161009.406000", "161029.343000", "161029.343000", "161029.359000", "161029.359000", "161029.359000", "161029.359000", "161029.359000", "161029.359000", "161029.359000", "161029.359000", "161029.375000", "161029.375000", "161029.375000", "161029.375000", "161029.375000", "161029.390000", "161029.390000", "161029.390000", "161029.390000", "161029.390000", "161029.406000", "161029.406000", "161029.406000", "161029.406000", "161029.406000", "161049.062000", "161049.062000", "161049.062000", "161049.062000", "161049.062000", "161049.062000", "161049.078000", "161049.078000", "161049.078000", "161049.078000", "161049.078000", "161049.078000", "161049.093000", "161049.093000", "161049.093000", "161049.093000", "161049.093000", "161049.093000", "161049.093000", "161049.109000", "161049.109000", "161049.109000", "161049.125000", "161049.125000", "161049.140000", "161049.140000"],
