{
  "AcquisitionMatrixPE": 104,
  "AcquisitionNumber": 1,
  "AcquisitionTime": "15:31:0.707500",
  "BandwidthPerPixelPhaseEncode": 13.935,
  "BaseResolution": 104,
  "CoilString": "C:HEA;HEP",
  "ConversionSoftware": "dcm2niix",
  "ConversionSoftwareVersion": "v1.0.20210317",
  "DerivedVendorReportedEchoSpacing": 0.000690017,
  "DeviceSerialNumber": "35450",
  "DwellTime": 2.5e-06,
  "EchoTime": 0.0348,
  "EffectiveEchoSpacing": 0.000690017,
  "FlipAngle": 55,
  "ImageComments": "Unaliased MB8/PE3 (remote)",
  "ImageOrientationPatientDICOM": [0.999701, 0.00399038, 0.0241041, 2.62773e-08, 0.986572, -0.163326],
  "ImageType": [
    "ORIGINAL",
    "PRIMARY",
    "M",
    "MB",
    "ND",
    "MOSAIC"
],
  "ImagingFrequency": 123.235,
  "InPlanePhaseEncodingDirectionDICOM": "COL",
  "InstitutionAddress": "Univeristy Ave. 197,Newark,North East,US,07102-1814",
  "InstitutionName": "RUBIC",
  "InstitutionalDepartmentName": "Department",
  "MRAcquisitionType": "2D",
  "MagneticFieldStrength": 3,
  "Manufacturer": "Siemens",
  "ManufacturersModelName": "TrioTim",
  "Modality": "MR",
  "MultibandAccelerationFactor": 8,
  "PartialFourier": 0.875,
  "PatientPosition": "HFS",
  "PercentPhaseFOV": 100,
  "PercentSampling": 100,
  "PhaseEncodingDirection": "j-",
  "PhaseEncodingSteps": 91,
  "PhaseResolution": 1,
  "PixelBandwidth": 1923,
  "ProcedureStepDescription": "Cole^Michael",
  "ProtocolName": "cmrr_mbep2d_bold_2mm_MB8_Task_8x",
  "PulseSequenceDetails": "%CustomerSeq%\\cmrr_mbep2d_bold",
  "ReceiveCoilName": "32Ch_Head",
  "ReconMatrixPE": 104,
  "RepetitionTime": 0.785,
  "SAR": 0.232638,
  "ScanOptions": "PFP\\FS",
  "ScanningSequence": "EP",
  "SequenceName": "epfid2d1_104",
  "SequenceVariant": "SK\\SS",
  "SeriesDescription": "cmrr_mbep2d_bold_2mm_MB8_Task_8x",
  "SeriesNumber": 19,
  "ShimSetting": [2147, -402, -7236, 428, -61, -158, 317, 56],
  "SliceThickness": 2,
  "SliceTiming": [0, 0.4375, 0.0875, 0.525, 0.175, 0.6125, 0.2625, 0.7, 0.35, 0, 0.4375, 0.0875, 0.525, 0.175, 0.6125, 0.2625, 0.7, 0.35, 0, 0.4375, 0.0875, 0.525, 0.175, 0.6125, 0.2625, 0.7, 0.35, 0, 0.4375, 0.0875, 0.525, 0.175, 0.6125, 0.2625, 0.7, 0.35, 0, 0.4375, 0.0875, 0.525, 0.175, 0.6125, 0.2625, 0.7, 0.35, 0, 0.4375, 0.0875, 0.525, 0.175, 0.6125, 0.2625, 0.7, 0.35, 0, 0.4375, 0.0875, 0.525, 0.175, 0.6125, 0.2625, 0.7, 0.35, 0, 0.4375, 0.0875, 0.525, 0.175, 0.6125, 0.2625, 0.7, 0.35],
  "SoftwareVersions": "syngo MR B19",
  "SpacingBetweenSlices": 2,
  "StationName": "MRC35450",
  "TaskName": "cpro",
  "TotalReadoutTime": 0.0710717,
  "TxRefAmp": 400.655,
  "dcmmeta_affine": [
    [-1.9994029998779297, 5.255463975117891e-08, 0.04886435717344284, 104.94612884521484],
    [-0.007980766706168652, 1.973144292831421, -0.32655441761016846, -69.6917495727539],
    [0.04820822551846504, 0.326651930809021, 1.97255539894104, -122.21481323242188],
    [0.0, 0.0, 0.0, 1.0]
],
  "dcmmeta_reorient_transform": [
    [0.0, -1.0, 0.0, 103.0],
    [1.0, 0.0, 0.0, 0.0],
    [0.0, 0.0, 1.0, 0.0],
    [0.0, 0.0, 0.0, 1.0]
],
  "dcmmeta_shape": [104, 104, 72, 581],
  "dcmmeta_slice_dim": 2,
  "dcmmeta_version": 0.6,
  "global": {
    "const": {
      "AcquisitionMatrix": [104, 0, 0, 104],
      "AngioFlag": "N",
      "BitsAllocated": 16,
      "BitsStored": 12,
      "Columns": 936,
      "EchoNumbers": 1,
      "EchoTime": 34.8,
      "EchoTrainLength": 1,
      "FlipAngle": 55.0,
      "HighBit": 11,
      "ImageOrientationPatient": [0.99970148976069, 0.00399038323931, 0.02410411192837, 2.627732e-08, 0.98657216152114, -0.1633259627601],
      "ImagePositionPatient": [-936.69779883688, -957.69015487185, 27.262915806199],
      "ImageType": [
        "ORIGINAL",
        "PRIMARY",
        "M",
        "MB",
        "ND",
        "MOSAIC"
],
      "ImagedNucleus": "1H",
      "ImagingFrequency": 123.234523,
      "InPlanePhaseEncodingDirection": "COL",
      "MRAcquisitionType": "2D",
      "MagneticFieldStrength": 3.0,
      "Manufacturer": "SIEMENS",
      "ManufacturerModelName": "TrioTim",
      "Modality": "MR",
      "NumberOfAverages": 1.0,
      "NumberOfPhaseEncodingSteps": 91,
      "PercentPhaseFieldOfView": 100.0,
      "PercentSampling": 100.0,
      "PerformedProcedureStepStartTime": "141355.343000",
      "PhotometricInterpretation": "MONOCHROME2",
      "PixelBandwidth": 1923.0,
      "PixelRepresentation": 0,
      "PixelSpacing": [2.0, 2.0],
      "ProtocolName": "cmrr_mbep2d_bold_2mm_MB8_Task_8x",
      "RepetitionTime": 785.0,
      "Rows": 936,
      "SAR": 0.23263826550902,
      "SamplesPerPixel": 1,
      "ScanOptions": [
        "PFP",
        "FS"
],
      "ScanningSequence": "EP",
      "SequenceName": "epfid2d1_104",
      "SequenceVariant": [
        "SK",
        "SS"
],
      "SeriesDescription": "cmrr_mbep2d_bold_2mm_MB8_Task_8x",
      "SeriesNumber": 19,
      "SeriesTime": "153135.671000",
      "SliceLocation": -106.59460242395,
      "SliceThickness": 2.0,
      "SmallestImagePixelValue": 0,
      "SoftwareVersions": "syngo MR B19",
      "SpacingBetweenSlices": 2.0000000281526,
      "SpecificCharacterSet": "ISO_IR 100",
      "StudyID": "1",
      "StudyTime": "141355.312000",
      "TransmitCoilName": "Body",
      "VariableFlipAngleFlag": "N",
      "WindowCenterWidthExplanation": "Algo1",
      "dBdt": 0.0},
    "slices": {}
  },
  "time": {
    "samples": {
      "AcquisitionNumber": [1, 2, 3, 4, 5, 6, 7, 8, 9, 10, 11, 12, 13, 14, 15, 16, 17, 18, 19, 20, 21, 22, 23, 24, 25, 26, 27, 28, 29, 30, 31, 32, 33, 34, 35, 36, 37, 38, 39, 40, 41, 42, 43, 44, 45, 46, 47, 48, 49, 50, 51, 52, 53, 54, 55, 56, 57, 58, 59, 60, 61, 62, 63, 64, 65, 66, 67, 68, 69, 70, 71, 72, 73, 74, 75, 76, 77, 78, 79, 80, 81, 82, 83, 84, 85, 86, 87, 88, 89, 90, 91, 92, 93, 94, 95, 96, 97, 98, 99, 100, 101, 102, 103, 104, 105, 106, 107, 108, 109, 110, 111, 112, 113, 114, 115, 116, 117, 118, 119, 120, 121, 122, 123, 124, 125, 126, 127, 128, 129, 130, 131, 132, 133, 134, 135, 136, 137, 138, 139, 140, 141, 142, 143, 144, 145, 146, 147, 148, 149, 150, 151, 152, 153, 154, 155, 156, 157, 158, 159, 160, 161, 162, 163, 164, 165, 166, 167, 168, 169, 170, 171, 172, 173, 174, 175, 176, 177, 178, 179, 180, 181, 182, 183, 184, 185, 186, 187, 188, 189, 190, 191, 192, 193, 194, 195, 196, 197, 198, 199, 200, 201, 202, 203, 204, 205, 206, 207, 208, 209, 210, 211, 212, 213, 214, 215, 216, 217, 218, 219, 220, 221, 222, 223, 224, 225, 226, 227, 228, 229, 230, 231, 232, 233, 234, 235, 236, 237, 238, 239, 240, 241, 242, 243, 244, 245, 246, 247, 248, 249, 250, 251, 252, 253, 254, 255, 256, 257, 258, 259, 260, 261, 262, 263, 264, 265, 266, 267, 268, 269, 270, 271, 272, 273, 274, 275, 276, 277, 278, 279, 280, 281, 282, 283, 284, 285, 286, 287, 288, 289, 290, 291, 292, 293, 294, 295, 296, 297, 298, 299, 300, 301, 302, 303, 304, 305, 306, 307, 308, 309, 310, 311, 312, 313, 314, 315, 316, 317, 318, 319, 320, 321, 322, 323, 324, 325, 326, 327, 328, 329, 330, 331, 332, 333, 334, 335, 336, 337, 338, 339, 340, 341, 342, 343, 344, 345, 346, 347, 348, 349, 350, 351, 352, 353, 354, 355, 356, 357, 358, 359, 360, 361, 362, 363, 364, 365, 366, 367, 368, 369, 370, 371, 372, 373, 374, 375, 376, 377, 378, 379, 380, 381, 382, 383, 384, 385, 386, 387, 388, 389, 390, 391, 392, 393, 394, 395, 396, 397, 398, 399, 400, 401, 402, 403, 404, 405, 406, 407, 408, 409, 410, 411, 412, 413, 414, 415, 416, 417, 418, 419, 420, 421, 422, 423, 424, 425, 426, 427, 428, 429, 430, 431, 432, 433, 434, 435, 436, 437, 438, 439, 440, 441, 442, 443, 444, 445, 446, 447, 448, 449, 450, 451, 452, 453, 454, 455, 456, 457, 458, 459, 460, 461, 462, 463, 464, 465, 466, 467, 468, 469, 470, 471, 472, 473, 474, 475, 476, 477, 478, 479, 480, 481, 482, 483, 484, 485, 486, 487, 488, 489, 490, 491, 492, 493, 494, 495, 496, 497, 498, 499, 500, 501, 502, 503, 504, 505, 506, 507, 508, 509, 510, 511, 512, 513, 514, 515, 516, 517, 518, 519, 520, 521, 522, 523, 524, 525, 526, 527, 528, 529, 530, 531, 532, 533, 534, 535, 536, 537, 538, 539, 540, 541, 542, 543, 544, 545, 546, 547, 548, 549, 550, 551, 552, 553, 554, 555, 556, 557, 558, 559, 560, 561, 562, 563, 564, 565, 566, 567, 568, 569, 570, 571, 572, 573, 574, 575, 576, 577, 578, 579, 580, 581],
      "AcquisitionTime": ["153100.707500", "153101.495000", "153102.282500", "153103.070000", "153103.860000", "153104.647500", "153105.435000", "153106.222500", "153107.012500", "153107.800000", "153108.587500", "153109.375000", "153110.165000", "153110.952500", "153111.740000", "153112.527500", "153113.317500", "153114.105000", "153114.892500", "153115.682500", "153116.470000", "153117.257500", "153118.045000", "153118.835000", "153119.622500", "153120.410000", "153121.197500", "153121.987500", "153122.775000", "153123.562500", "153124.350000", "153125.140000", "153125.927500", "153126.715000", "153127.502500", "153128.292500", "153129.080000", "153129.867500", "153130.655000", "153131.445000", "153132.232500", "153133.020000", "153133.810000", "153134.597500", "153135.385000", "153136.172500", "153136.962500", "153137.750000", "153138.537500", "153139.325000", "153140.115000", "153140.902500", "153141.690000", "153142.477500", "153143.267500", "153144.055000", "153144.842500", "153145.630000", "153146.420000", "153147.207500", "153147.995000", "153148.782500", "153149.572500", "153150.360000", "153151.147500", "153151.937500", "153152.725000", "153153.512500", "153154.300000", "153155.090000", "153155.877500", "153156.665000", "153157.452500", "153158.242500", "153159.030000", "153159.817500", "153200.605000", "153201.395000", "153202.182500", "153202.970000", "153203.757500", "153204.547500", "153205.335000", "153206.122500", "153206.910000", "153207.700000", "153208.487500", "153209.275000", "153210.065000", "153210.852500", "153211.640000", "153212.427500", "153213.217500", "153214.005000", "153214.792500", "153215.580000", "153216.370000", "153217.157500", "153217.945000", "153218.732500", "153219.522500", "153220.310000", "153221.097500", "153221.885000", "153222.675000", "153223.462500", "153224.250000", "153225.037500", "153225.827500", "153226.615000", "153227.402500", "153228.192500", "153228.980000", "153229.767500", "153230.555000", "153231.345000", "153232.132500", "153232.920000", "153233.707500", "153234.497500", "153235.285000", "153236.072500", "153236.860000", "153237.650000", "153238.437500", "153239.225000", "153240.012500", "153240.802500", "153241.590000", "153242.377500", "153243.165000", "153243.955000", "153244.742500", "153245.530000", "153246.320000", "153247.107500", "153247.895000", "153248.682500", "153249.472500", "153250.260000", "153251.047500", "153251.835000", "153252.625000", "153253.412500", "153254.200000", "153254.987500", "153255.777500", "153256.565000", "153257.352500", "153258.140000", "153258.930000", "153259.717500", "153300.505000", "153301.295000", "153302.082500", "153302.870000", "153303.657500", "153304.447500", "153305.235000", "153306.022500", "153306.810000", "153307.600000", "153308.387500", "153309.175000", "153309.962500", "153310.752500", "153311.540000", "153312.327500", "153313.115000", "153313.905000", "153314.692500", "153315.480000", "153316.267500", "153317.057500", "153317.845000", "153318.632500", "153319.422500", "153320.210000", "153320.997500", "153321.785000", "153322.575000", "153323.362500", "153324.150000", "153324.937500", "153325.727500", "153326.515000", "153327.302500", "153328.090000", "153328.880000", "153329.667500", "153330.455000", "153331.242500", "153332.032500", "153332.820000", "153333.607500", "153334.395000", "153335.185000", "153335.972500", "153336.760000", "153337.550000", "153338.337500", "153339.125000", "153339.912500", "153340.702500", "153341.490000", "153342.277500", "153343.065000", "153343.855000", "153344.642500", "153345.430000", "153346.217500", "153347.007500", "153347.795000", "153348.582500", "153349.370000", "153350.160000", "153350.947500", "153351.735000", "153352.522500", "153353.312500", "153354.100000", "153354.887500", "153355.677500", "153356.465000", "153357.252500", "153358.040000", "153358.830000", "153359.617500", "153400.405000", "153401.192500", "153401.982500", "153402.770000", "153403.557500", "153404.345000", "153405.135000", "153405.922500", "153406.710000", "153407.497500", "153408.287500", "153409.075000", "153409.862500", "153410.650000", "153411.440000", "153412.227500", "153413.015000", "153413.805000", "153414.592500", "153415.380000", "153416.167500", "153416.957500", "153417.745000", "153418.532500", "153419.320000", "153420.110000", "153420.897500", "153421.685000", "153422.472500", "153423.262500", "153424.050000", "153424.837500", "153425.625000", "153426.415000", "153427.202500", "153427.990000", "153428.777500", "153429.567500", "153430.355000", "153431.142500", "153431.932500", "153432.720000", "153433.507500", "153434.295000", "153435.085000", "153435.872500", "153436.660000", "153437.447500", "153438.237500", "153439.025000", "153439.812500", "153440.600000", "153441.390000", "153442.177500", "153442.965000", "153443.752500", "153444.542500", "153445.330000", "153446.117500", "153446.905000", "153447.695000", "153448.482500", "153449.270000", "153450.060000", "153450.847500", "153451.635000", "153452.422500", "153453.212500", "153454.000000", "153454.787500", "153455.575000", "153456.365000", "153457.152500", "153457.940000", "153458.727500", "153459.517500", "153500.305000", "153501.092500", "153501.880000", "153502.670000", "153503.457500", "153504.245000", "153505.032500", "153505.822500", "153506.610000", "153507.397500", "153508.187500", "153508.975000", "153509.762500", "153510.550000", "153511.340000", "153512.127500", "153512.915000", "153513.702500", "153514.492500", "153515.280000", "153516.067500", "153516.855000", "153517.645000", "153518.432500", "153519.220000", "153520.007500", "153520.797500", "153521.585000", "153522.372500", "153523.160000", "153523.950000", "153524.737500", "153525.525000", "153526.315000", "153527.102500", "153527.890000", "153528.677500", "153529.467500", "153530.255000", "153531.042500", "153531.830000", "153532.620000", "153533.407500", "153534.195000", "153534.982500", "153535.772500", "153536.560000", "153537.347500", "153538.135000", "153538.925000", "153539.712500", "153540.500000", "153541.287500", "153542.077500", "153542.865000", "153543.652500", "153544.442500", "153545.230000", "153546.017500", "153546.805000", "153547.595000", "153548.382500", "153549.170000", "153549.957500", "153550.747500", "153551.535000", "153552.322500", "153553.110000", "153553.900000", "153554.687500", "153555.475000", "153556.262500", "153557.052500", "153557.840000", "153558.627500", "153559.415000", "153600.205000", "153600.992500", "153601.780000", "153602.570000", "153603.357500", "153604.145000", "153604.932500", "153605.722500", "153606.510000", "153607.297500", "153608.085000", "153608.875000", "153609.662500", "153610.450000", "153611.237500", "153612.027500", "153612.815000", "153613.602500", "153614.390000", "153615.180000", "153615.967500", "153616.755000", "153617.545000", "153618.332500", "153619.120000", "153619.907500", "153620.697500", "153621.485000", "153622.272500", "153623.060000", "153623.850000", "153624.637500", "153625.425000", "153626.212500", "153627.002500", "153627.790000", "153628.577500", "153629.365000", "153630.155000", "153630.942500", "153631.730000", "153632.517500", "153633.307500", "153634.095000", "153634.882500", "153635.672500", "153636.460000", "153637.247500", "153638.035000", "153638.825000", "153639.612500", "153640.400000", "153641.187500", "153641.977500", "153642.765000", "153643.552500", "153644.340000", "153645.130000", "153645.917500", "153646.705000", "153647.492500", "153648.282500", "153649.070000", "153649.857500", "153650.645000", "153651.435000", "153652.222500", "153653.010000", "153653.800000", "153654.587500", "153655.375000", "153656.162500", "153656.952500", "153657.740000", "153658.527500", "153659.315000", "153700.105000", "153700.892500", "153701.680000", "153702.467500", "153703.257500", "153704.045000", "153704.832500", "153705.620000", "153706.410000", "153707.197500", "153707.985000", "153708.772500", "153709.562500", "153710.350000", "153711.137500", "153711.927500", "153712.715000", "153713.502500", "153714.290000", "153715.080000", "153715.867500", "153716.655000", "153717.442500", "153718.232500", "153719.020000", "153719.807500", "153720.595000", "153721.385000", "153722.172500", "153722.960000", "153723.747500", "153724.537500", "153725.325000", "153726.112500", "153726.900000", "153727.690000", "153728.477500", "153729.265000", "153730.055000", "153730.842500", "153731.630000", "153732.417500", "153733.207500", "153733.995000", "153734.782500", "153735.570000", "153736.360000", "153737.147500", "153737.935000", "153738.722500", "153739.512500", "153740.300000", "153741.087500", "153741.875000", "153742.665000", "153743.452500", "153744.240000", "153745.027500", "153745.817500", "153746.605000", "153747.392500", "153748.182500", "153748.970000", "153749.757500", "153750.545000", "153751.335000", "153752.122500", "153752.910000", "153753.697500", "153754.487500", "153755.275000", "153756.062500", "153756.850000", "153757.640000", "153758.427500", "153759.215000", "153800.002500", "153800.792500", "153801.580000", "153802.367500", "153803.155000", "153803.945000", "153804.732500", "153805.520000", "153806.310000", "153807.097500", "153807.885000", "153808.672500", "153809.462500", "153810.250000", "153811.037500", "153811.825000", "153812.615000", "153813.402500", "153814.190000", "153814.977500", "153815.767500", "153816.555000", "153817.342500", "153818.130000", "153818.920000", "153819.707500", "153820.495000", "153821.282500", "153822.072500", "153822.860000", "153823.647500", "153824.437500", "153825.225000", "153826.012500", "153826.800000", "153827.590000", "153828.377500", "153829.165000", "153829.952500", "153830.742500", "153831.530000", "153832.317500", "153833.105000", "153833.895000", "153834.682500", "153835.470000", "153836.257500", "153837.047500", "153837.835000"],
      "ContentTime": ["153135.671000", "153135.671000", "153135.687000", "153135.687000", "153135.687000", "153135.687000", "153135.687000", "153135.687000", "153135.687000", "153135.687000", "153135.703000", "153135.703000", "153135.703000", "153135.703000", "153135.703000", "153135.703000", "153135.703000", "153135.718000", "153135.718000", "153135.718000", "153135.718000", "153135.718000", "153135.718000", "153135.718000", "153135.734000", "153135.734000", "153135.734000", "153135.734000", "153135.734000", "153135.734000", "153135.734000", "153135.750000", "153135.750000", "153135.750000", "153135.750000", "153135.750000", "153135.750000", "153135.750000", "153135.750000", "153135.765000", "153135.765000", "153135.765000", "153155.640000", "153155.640000", "153155.640000", "153155.656000", "153155.656000", "153155.656000", "153155.656000", "153155.656000", "153155.656000", "153155.656000", "153155.671000", "153155.671000", "153155.671000", "153155.671000", "153155.671000", "153155.671000", "153155.671000", "153155.671000", "153155.687000", "153155.687000", "153155.687000", "153155.687000", "153155.687000", "153155.687000", "153155.703000", "153215.640000", "153215.640000", "153215.640000", "153215.656000", "153215.656000", "153215.656000", "153215.656000", "153215.656000", "153215.656000", "153215.656000", "153215.671000", "153215.671000", "153215.671000", "153215.671000", "153215.671000", "153215.671000", "153215.671000", "153215.671000", "153215.687000", "153215.687000", "153215.687000", "153215.687000", "153215.687000", "153215.687000", "153215.687000", "153235.640000", "153235.640000", "153235.640000", "153235.656000", "153235.656000", "153235.656000", "153235.656000", "153235.656000", "153235.656000", "153235.671000", "153235.671000", "153235.671000", "153235.671000", "153235.671000", "153235.671000", "153235.671000", "153235.687000", "153235.687000", "153235.687000", "153235.687000", "153235.687000", "153235.687000", "153235.703000", "153235.703000", "153235.703000", "153235.703000", "153255.640000", "153255.640000", "153255.656000", "153255.656000", "153255.656000", "153255.656000", "153255.656000", "153255.656000", "153255.656000", "153255.671000", "153255.671000", "153255.671000", "153255.671000", "153255.671000", "153255.671000", "153255.671000", "153255.687000", "153255.687000", "153255.687000", "153255.687000", "153255.687000", "153255.687000", "153255.687000", "153255.687000", "153255.703000", "153315.640000", "153315.640000", "153315.640000", "153315.656000", "153315.656000", "153315.656000", "153315.656000", "153315.656000", "153315.656000", "153315.656000", "153315.671000", "153315.671000", "153315.671000", "153315.671000", "153315.671000", "153315.671000", "153315.671000", "153315.687000", "153315.687000", "153315.687000", "153315.687000", "153315.687000", "153315.687000", "153315.687000", "153315.687000", "153315.703000", "153335.640000", "153335.640000", "153335.640000", "153335.656000", "153335.656000", "153335.656000", "153335.656000", "153335.656000", "153335.656000", "153335.656000", "153335.671000", "153335.671000", "153335.671000", "153335.671000", "153335.671000", "153335.671000", "153335.671000", "153335.687000", "153335.687000", "153335.687000", "153335.687000", "153335.687000", "153335.687000", "153335.703000", "153335.703000", "153355.640000", "153355.640000", "153355.640000", "153355.656000", "153355.656000", "153355.656000", "153355.656000", "153355.656000", "153355.656000", "153355.656000", "153355.671000", "153355.671000", "153355.671000", "153355.671000", "153355.671000", "153355.671000", "153355.671000", "153355.671000", "153355.687000", "153355.687000", "153355.687000", "153355.687000", "153355.687000", "153355.687000", "153355.687000", "153355.703000", "153415.640000", "153415.640000", "153415.640000", "153415.656000", "153415.656000", "153415.656000", "153415.656000", "153415.656000", "153415.656000", "153415.671000", "153415.671000", "153415.671000", "153415.671000", "153415.671000", "153415.671000", "153415.671000", "153415.687000", "153415.687000", "153415.687000", "153415.687000", "153415.687000", "153415.687000", "153415.687000", "153415.687000", "153415.703000", "153435.640000", "153435.640000", "153435.640000", "153435.656000", "153435.656000", "153435.656000", "153435.656000", "153435.656000", "153435.656000", "153435.656000", "153435.671000", "153435.671000", "153435.671000", "153435.671000", "153435.671000", "153435.671000", "153435.671000", "153435.671000", "153435.687000", "153435.687000", "153435.687000", "153435.687000", "153435.687000", "153435.687000", "153435.687000", "153435.703000", "153455.640000", "153455.640000", "153455.640000", "153455.656000", "153455.656000", "153455.656000", "153455.656000", "153455.656000", "153455.656000", "153455.656000", "153455.671000", "153455.671000", "153455.671000", "153455.671000", "153455.671000", "153455.671000", "153455.671000", "153455.687000", "153455.687000", "153455.687000", "153455.687000", "153455.687000", "153455.687000", "153455.687000", "153455.687000", "153515.640000", "153515.640000", "153515.640000", "153515.656000", "153515.656000", "153515.656000", "153515.656000", "153515.656000", "153515.656000", "153515.656000", "153515.671000", "153515.671000", "153515.671000", "153515.671000", "153515.671000", "153515.671000", "153515.671000", "153515.671000", "153515.687000", "153515.687000", "153515.687000", "153515.687000", "153515.687000", "153515.687000", "153515.703000", "153515.703000", "153535.640000", "153535.640000", "153535.640000", "153535.656000", "153535.656000", "153535.656000", "153535.656000", "153535.656000", "153535.656000", "153535.656000", "153535.671000", "153535.671000", "153535.671000", "153535.671000", "153535.671000", "153535.671000", "153535.687000", "153535.687000", "153535.687000", "153535.687000", "153535.687000", "153535.687000", "153535.703000", "153535.703000", "153535.703000", "153555.640000", "153555.640000", "153555.640000", "153555.656000", "153555.656000", "153555.656000", "153555.656000", "153555.656000", "153555.656000", "153555.656000", "153555.671000", "153555.671000", "153555.671000", "153555.671000", "153555.671000", "153555.671000", "153555.671000", "153555.687000", "153555.687000", "153555.687000", "153555.687000", "153555.687000", "153555.687000", "153555.687000", "153555.687000", "153555.703000", "153615.640000", "153615.640000", "153615.656000", "153615.656000", "153615.656000", "153615.656000", "153615.656000", "153615.656000", "153615.656000", "153615.656000", "153615.671000", "153615.671000", "153615.671000", "153615.671000", "153615.671000", "153615.671000", "153615.671000", "153615.687000", "153615.687000", "153615.687000", "153615.687000", "153615.687000", "153615.687000", "153615.703000", "153615.703000", "153635.640000", "153635.640000", "153635.656000", "153635.656000", "153635.656000", "153635.656000", "153635.656000", "153635.656000", "153635.656000", "153635.656000", "153635.671000", "153635.671000", "153635.671000", "153635.671000", "153635.671000", "153635.671000", "153635.671000", "153635.687000", "153635.687000", "153635.687000", "153635.687000", "153635.687000", "153635.687000", "153635.687000", "153635.687000", "153635.703000", "153655.640000", "153655.640000", "153655.640000", "153655.656000", "153655.656000", "153655.656000", "153655.656000", "153655.656000", "153655.656000", "153655.656000", "153655.671000", "153655.671000", "153655.671000", "153655.671000", "153655.671000", "153655.671000", "153655.671000", "153655.687000", "153655.687000", "153655.687000", "153655.687000", "153655.687000", "153655.687000", "153655.703000", "153655.703000", "153715.640000", "153715.640000", "153715.640000", "153715.656000", "153715.656000", "153715.656000", "153715.656000", "153715.656000", "153715.656000", "153715.656000", "153715.671000", "153715.671000", "153715.671000", "153715.671000", "153715.671000", "153715.671000", "153715.671000", "153715.687000", "153715.687000", "153715.687000", "153715.687000", "153715.687000", "153715.687000", "153715.687000", "153715.687000", "153715.703000", "153735.640000", "153735.640000", "153735.656000", "153735.656000", "153735.656000", "153735.656000", "153735.656000", "153735.656000", "153735.656000", "153735.656000", "153735.671000", "153735.671000", "153735.671000", "153735.671000", "153735.671000", "153735.687000", "153735.687000", "153735.687000", "153735.687000", "153735.687000", "153735.687000", "153735.687000", "153735.687000", "153735.703000", "153735.703000", "153755.640000", "153755.640000", "153755.640000", "153755.656000", "153755.656000", "153755.656000", "153755.656000", "153755.656000", "153755.656000", "153755.671000", "153755.671000", "153755.671000", "153755.671000", "153755.671000", "153755.671000", "153755.671000", "153755.671000", "153755.687000", "153755.687000", "153755.687000", "153755.687000", "153755.687000", "153755.687000", "153755.687000", "153755.703000", "153755.703000", "153815.640000", "153815.640000", "153815.640000", "153815.656000", "153815.656000", "153815.656000", "153815.656000", "153815.656000", "153815.656000", "153815.656000", "153815.671000", "153815.671000", "153815.671000", "153815.671000", "153815.671000", "153815.671000", "153815.671000", "153815.687000", "153815.687000", "153815.687000", "153815.687000", "153815.687000", "153815.687000", "153815.687000", "153815.687000", "153835.640000", "153835.640000", "153835.640000", "153835.656000", "153835.656000", "153835.656000", "153835.656000", "153835.656000", "153835.656000", "153835.656000", "153835.671000", "153835.671000", "153835.671000", "153835.671000", "153835.671000", "153835.671000", "153835.671000", "153835.671000", "153835.687000", "153835.687000", "153835.687000", "153835.687000", "153835.687000", "153835.687000", "153835.687000", "153835.703000", "153838.828000", "153838.828000", "153838.828000", "153838.828000"],
