{
  "AcquisitionMatrixPE": 104,
  "AcquisitionNumber": 1,
  "AcquisitionTime": "14:34:24.707500",
  "BandwidthPerPixelPhaseEncode": 13.935,
  "BaseResolution": 104,
  "CoilString": "C:HEA;HEP",
  "ConversionSoftware": "dcm2niix",
  "ConversionSoftwareVersion": "v1.0.20210317",
  "DerivedVendorReportedEchoSpacing": 0.000690017,
  "DeviceSerialNumber": "35450",
  "DwellTime": 2.5e-06,
  "EchoTime": 0.0348,
  "EffectiveEchoSpacing": 0.000690017,
  "FlipAngle": 55,
  "ImageComments": "Unaliased MB8/PE3 (remote)",
  "ImageOrientationPatientDICOM": [1, 0, 0, 0, 0.999945, -0.0104718],
  "ImageType": [
    "ORIGINAL",
    "PRIMARY",
    "M",
    "MB",
    "ND",
    "MOSAIC"
],
  "ImagingFrequency": 123.235,
  "InPlanePhaseEncodingDirectionDICOM": "COL",
  "InstitutionAddress": "Univeristy Ave. 197,Newark,North East,US,07102-1814",
  "InstitutionName": "RUBIC",
  "InstitutionalDepartmentName": "Department",
  "MRAcquisitionType": "2D",
  "MagneticFieldStrength": 3,
  "Manufacturer": "Siemens",
  "ManufacturersModelName": "TrioTim",
  "Modality": "MR",
  "MultibandAccelerationFactor": 8,
  "PartialFourier": 0.875,
  "PatientPosition": "HFS",
  "PercentPhaseFOV": 100,
  "PercentSampling": 100,
  "PhaseEncodingDirection": "j-",
  "PhaseEncodingSteps": 91,
  "PhaseResolution": 1,
  "PixelBandwidth": 1923,
  "ProcedureStepDescription": "Cole^Michael",
  "ProtocolName": "cmrr_mbep2d_bold_2mm_MB8_Task_8x",
  "PulseSequenceDetails": "%CustomerSeq%\\cmrr_mbep2d_bold",
  "ReceiveCoilName": "32Ch_Head",
  "ReconMatrixPE": 104,
  "RepetitionTime": 0.785,
  "SAR": 0.127948,
  "ScanOptions": "PFP\\FS",
  "ScanningSequence": "EP",
  "SequenceName": "epfid2d1_104",
  "SequenceVariant": "SK\\SS",
  "SeriesDescription": "cmrr_mbep2d_bold_2mm_MB8_Task_8x",
  "SeriesNumber": 17,
  "ShimSetting": [2101, -457, -7426, 707, -2, -216, -815, -38],
  "SliceThickness": 2,
  "SliceTiming": [0, 0.4375, 0.0875, 0.525, 0.175, 0.6125, 0.2625, 0.7, 0.35, 0, 0.4375, 0.0875, 0.525, 0.175, 0.6125, 0.2625, 0.7, 0.35, 0, 0.4375, 0.0875, 0.525, 0.175, 0.6125, 0.2625, 0.7, 0.35, 0, 0.4375, 0.0875, 0.525, 0.175, 0.6125, 0.2625, 0.7, 0.35, 0, 0.4375, 0.0875, 0.525, 0.175, 0.6125, 0.2625, 0.7, 0.35, 0, 0.4375, 0.0875, 0.525, 0.175, 0.6125, 0.2625, 0.7, 0.35, 0, 0.4375, 0.0875, 0.525, 0.175, 0.6125, 0.2625, 0.7, 0.35, 0, 0.4375, 0.0875, 0.525, 0.175, 0.6125, 0.2625, 0.7, 0.35],
  "SoftwareVersions": "syngo MR B19",
  "SpacingBetweenSlices": 2,
  "StationName": "MRC35450",
  "TaskName": "cpro",
  "TotalReadoutTime": 0.0710717,
  "TxRefAmp": 323.471,
  "dcmmeta_affine": [
    [-2.0, 0.0, 0.0, 105.3559341430664],
    [0.0, 1.9998903274536133, -0.020943567156791687, -78.2510986328125],
    [0.0, 0.020943567156791687, 1.9998903274536133, -98.45664978027344],
    [0.0, 0.0, 0.0, 1.0]
],
  "dcmmeta_reorient_transform": [
    [0.0, -1.0, 0.0, 103.0],
    [1.0, 0.0, 0.0, 0.0],
    [0.0, 0.0, 1.0, 0.0],
    [0.0, 0.0, 0.0, 1.0]
],
  "dcmmeta_shape": [104, 104, 72, 581],
  "dcmmeta_slice_dim": 2,
  "dcmmeta_version": 0.6,
  "global": {
    "const": {
      "AcquisitionMatrix": [104, 0, 0, 104],
      "AngioFlag": "N",
      "BitsAllocated": 16,
      "BitsStored": 12,
      "Columns": 936,
      "EchoNumbers": 1,
      "EchoTime": 34.8,
      "EchoTrainLength": 1,
      "FlipAngle": 55.0,
      "HighBit": 11,
      "ImageOrientationPatient": [1.0, 0.0, 0.0, 0.0, 0.9999451693678, -0.010471783898],
      "ImagePositionPatient": [-937.35593223572, -959.69198373456, -87.58693718795],
      "ImageType": [
        "ORIGINAL",
        "PRIMARY",
        "M",
        "MB",
        "ND",
        "MOSAIC"
],
      "ImagedNucleus": "1H",
      "ImagingFrequency": 123.234557,
      "InPlanePhaseEncodingDirection": "COL",
      "MRAcquisitionType": "2D",
      "MagneticFieldStrength": 3.0,
      "Manufacturer": "SIEMENS",
      "ManufacturerModelName": "TrioTim",
      "Modality": "MR",
      "NumberOfAverages": 1.0,
      "NumberOfPhaseEncodingSteps": 91,
      "PercentPhaseFieldOfView": 100.0,
      "PercentSampling": 100.0,
      "PerformedProcedureStepStartTime": "132830.609000",
      "PhotometricInterpretation": "MONOCHROME2",
      "PixelBandwidth": 1923.0,
      "PixelRepresentation": 0,
      "PixelSpacing": [2.0, 2.0],
      "ProtocolName": "cmrr_mbep2d_bold_2mm_MB8_Task_8x",
      "RepetitionTime": 785.0,
      "Rows": 936,
      "SAR": 0.12794807561933,
      "SamplesPerPixel": 1,
      "ScanOptions": [
        "PFP",
        "FS"
],
      "ScanningSequence": "EP",
      "SequenceName": "epfid2d1_104",
      "SequenceVariant": [
        "SK",
        "SS"
],
      "SeriesDescription": "cmrr_mbep2d_bold_2mm_MB8_Task_8x",
      "SeriesNumber": 17,
      "SeriesTime": "143449.421000",
      "SliceLocation": -97.631821803149,
      "SliceThickness": 2.0,
      "SmallestImagePixelValue": 0,
      "SoftwareVersions": "syngo MR B19",
      "SpacingBetweenSlices": 1.999999948495,
      "SpecificCharacterSet": "ISO_IR 100",
      "StudyID": "1",
      "StudyTime": "132830.578000",
      "TransmitCoilName": "Body",
      "VariableFlipAngleFlag": "N",
      "WindowCenterWidthExplanation": "Algo1",
      "dBdt": 0.0},
    "slices": {}
  },
  "time": {
    "samples": {
      "AcquisitionNumber": [1, 2, 3, 4, 5, 6, 7, 8, 9, 10, 11, 12, 13, 14, 15, 16, 17, 18, 19, 20, 21, 22, 23, 24, 25, 26, 27, 28, 29, 30, 31, 32, 33, 34, 35, 36, 37, 38, 39, 40, 41, 42, 43, 44, 45, 46, 47, 48, 49, 50, 51, 52, 53, 54, 55, 56, 57, 58, 59, 60, 61, 62, 63, 64, 65, 66, 67, 68, 69, 70, 71, 72, 73, 74, 75, 76, 77, 78, 79, 80, 81, 82, 83, 84, 85, 86, 87, 88, 89, 90, 91, 92, 93, 94, 95, 96, 97, 98, 99, 100, 101, 102, 103, 104, 105, 106, 107, 108, 109, 110, 111, 112, 113, 114, 115, 116, 117, 118, 119, 120, 121, 122, 123, 124, 125, 126, 127, 128, 129, 130, 131, 132, 133, 134, 135, 136, 137, 138, 139, 140, 141, 142, 143, 144, 145, 146, 147, 148, 149, 150, 151, 152, 153, 154, 155, 156, 157, 158, 159, 160, 161, 162, 163, 164, 165, 166, 167, 168, 169, 170, 171, 172, 173, 174, 175, 176, 177, 178, 179, 180, 181, 182, 183, 184, 185, 186, 187, 188, 189, 190, 191, 192, 193, 194, 195, 196, 197, 198, 199, 200, 201, 202, 203, 204, 205, 206, 207, 208, 209, 210, 211, 212, 213, 214, 215, 216, 217, 218, 219, 220, 221, 222, 223, 224, 225, 226, 227, 228, 229, 230, 231, 232, 233, 234, 235, 236, 237, 238, 239, 240, 241, 242, 243, 244, 245, 246, 247, 248, 249, 250, 251, 252, 253, 254, 255, 256, 257, 258, 259, 260, 261, 262, 263, 264, 265, 266, 267, 268, 269, 270, 271, 272, 273, 274, 275, 276, 277, 278, 279, 280, 281, 282, 283, 284, 285, 286, 287, 288, 289, 290, 291, 292, 293, 294, 295, 296, 297, 298, 299, 300, 301, 302, 303, 304, 305, 306, 307, 308, 309, 310, 311, 312, 313, 314, 315, 316, 317, 318, 319, 320, 321, 322, 323, 324, 325, 326, 327, 328, 329, 330, 331, 332, 333, 334, 335, 336, 337, 338, 339, 340, 341, 342, 343, 344, 345, 346, 347, 348, 349, 350, 351, 352, 353, 354, 355, 356, 357, 358, 359, 360, 361, 362, 363, 364, 365, 366, 367, 368, 369, 370, 371, 372, 373, 374, 375, 376, 377, 378, 379, 380, 381, 382, 383, 384, 385, 386, 387, 388, 389, 390, 391, 392, 393, 394, 395, 396, 397, 398, 399, 400, 401, 402, 403, 404, 405, 406, 407, 408, 409, 410, 411, 412, 413, 414, 415, 416, 417, 418, 419, 420, 421, 422, 423, 424, 425, 426, 427, 428, 429, 430, 431, 432, 433, 434, 435, 436, 437, 438, 439, 440, 441, 442, 443, 444, 445, 446, 447, 448, 449, 450, 451, 452, 453, 454, 455, 456, 457, 458, 459, 460, 461, 462, 463, 464, 465, 466, 467, 468, 469, 470, 471, 472, 473, 474, 475, 476, 477, 478, 479, 480, 481, 482, 483, 484, 485, 486, 487, 488, 489, 490, 491, 492, 493, 494, 495, 496, 497, 498, 499, 500, 501, 502, 503, 504, 505, 506, 507, 508, 509, 510, 511, 512, 513, 514, 515, 516, 517, 518, 519, 520, 521, 522, 523, 524, 525, 526, 527, 528, 529, 530, 531, 532, 533, 534, 535, 536, 537, 538, 539, 540, 541, 542, 543, 544, 545, 546, 547, 548, 549, 550, 551, 552, 553, 554, 555, 556, 557, 558, 559, 560, 561, 562, 563, 564, 565, 566, 567, 568, 569, 570, 571, 572, 573, 574, 575, 576, 577, 578, 579, 580, 581],
      "AcquisitionTime": ["143424.707500", "143425.495000", "143426.282500", "143427.070000", "143427.860000", "143428.647500", "143429.435000", "143430.222500", "143431.012500", "143431.800000", "143432.587500", "143433.377500", "143434.165000", "143434.952500", "143435.740000", "143436.530000", "143437.317500", "143438.105000", "143438.892500", "143439.682500", "143440.470000", "143441.257500", "143442.045000", "143442.835000", "143443.622500", "143444.410000", "143445.197500", "143445.987500", "143446.775000", "143447.562500", "143448.350000", "143449.140000", "143449.927500", "143450.715000", "143451.505000", "143452.292500", "143453.080000", "143453.867500", "143454.657500", "143455.445000", "143456.232500", "143457.020000", "143457.810000", "143458.597500", "143459.385000", "143500.172500", "143500.962500", "143501.750000", "143502.537500", "143503.325000", "143504.115000", "143504.902500", "143505.690000", "143506.477500", "143507.267500", "143508.055000", "143508.842500", "143509.632500", "143510.420000", "143511.207500", "143511.995000", "143512.785000", "143513.572500", "143514.360000", "143515.147500", "143515.937500", "143516.725000", "143517.512500", "143518.300000", "143519.090000", "143519.877500", "143520.665000", "143521.452500", "143522.242500", "143523.030000", "143523.817500", "143524.605000", "143525.395000", "143526.182500", "143526.970000", "143527.760000", "143528.547500", "143529.335000", "143530.122500", "143530.912500", "143531.700000", "143532.487500", "143533.275000", "143534.065000", "143534.852500", "143535.640000", "143536.427500", "143537.217500", "143538.005000", "143538.792500", "143539.580000", "143540.370000", "143541.157500", "143541.945000", "143542.732500", "143543.522500", "143544.310000", "143545.097500", "143545.887500", "143546.675000", "143547.462500", "143548.250000", "143549.040000", "143549.827500", "143550.615000", "143551.402500", "143552.192500", "143552.980000", "143553.767500", "143554.555000", "143555.345000", "143556.132500", "143556.920000", "143557.707500", "143558.497500", "143559.285000", "143600.072500", "143600.860000", "143601.650000", "143602.437500", "143603.225000", "143604.015000", "143604.802500", "143605.590000", "143606.377500", "143607.167500", "143607.955000", "143608.742500", "143609.530000", "143610.320000", "143611.107500", "143611.895000", "143612.682500", "143613.472500", "143614.260000", "143615.047500", "143615.835000", "143616.625000", "143617.412500", "143618.200000", "143618.987500", "143619.777500", "143620.565000", "143621.352500", "143622.142500", "143622.930000", "143623.717500", "143624.505000", "143625.295000", "143626.082500", "143626.870000", "143627.657500", "143628.447500", "143629.235000", "143630.022500", "143630.810000", "143631.600000", "143632.387500", "143633.175000", "143633.962500", "143634.752500", "143635.540000", "143636.327500", "143637.115000", "143637.905000", "143638.692500", "143639.480000", "143640.270000", "143641.057500", "143641.845000", "143642.632500", "143643.422500", "143644.210000", "143644.997500", "143645.785000", "143646.575000", "143647.362500", "143648.150000", "143648.937500", "143649.727500", "143650.515000", "143651.302500", "143652.090000", "143652.880000", "143653.667500", "143654.455000", "143655.245000", "143656.032500", "143656.820000", "143657.607500", "143658.397500", "143659.185000", "143659.972500", "143700.760000", "143701.550000", "143702.337500", "143703.125000", "143703.912500", "143704.702500", "143705.490000", "143706.277500", "143707.065000", "143707.855000", "143708.642500", "143709.430000", "143710.217500", "143711.007500", "143711.795000", "143712.582500", "143713.372500", "143714.160000", "143714.947500", "143715.735000", "143716.525000", "143717.312500", "143718.100000", "143718.887500", "143719.677500", "143720.465000", "143721.252500", "143722.040000", "143722.830000", "143723.617500", "143724.405000", "143725.192500", "143725.982500", "143726.770000", "143727.557500", "143728.345000", "143729.135000", "143729.922500", "143730.710000", "143731.500000", "143732.287500", "143733.075000", "143733.862500", "143734.652500", "143735.440000", "143736.227500", "143737.015000", "143737.805000", "143738.592500", "143739.380000", "143740.167500", "143740.957500", "143741.745000", "143742.532500", "143743.320000", "143744.110000", "143744.897500", "143745.685000", "143746.472500", "143747.262500", "143748.050000", "143748.837500", "143749.627500", "143750.415000", "143751.202500", "143751.990000", "143752.780000", "143753.567500", "143754.355000", "143755.142500", "143755.932500", "143756.720000", "143757.507500", "143758.295000", "143759.085000", "143759.872500", "143800.660000", "143801.447500", "143802.237500", "143803.025000", "143803.812500", "143804.600000", "143805.390000", "143806.177500", "143806.965000", "143807.755000", "143808.542500", "143809.330000", "143810.117500", "143810.907500", "143811.695000", "143812.482500", "143813.270000", "143814.060000", "143814.847500", "143815.635000", "143816.422500", "143817.212500", "143818.000000", "143818.787500", "143819.575000", "143820.365000", "143821.152500", "143821.940000", "143822.727500", "143823.517500", "143824.305000", "143825.092500", "143825.882500", "143826.670000", "143827.457500", "143828.245000", "143829.035000", "143829.822500", "143830.610000", "143831.397500", "143832.187500", "143832.975000", "143833.762500", "143834.550000", "143835.340000", "143836.127500", "143836.915000", "143837.702500", "143838.492500", "143839.280000", "143840.067500", "143840.855000", "143841.645000", "143842.432500", "143843.220000", "143844.010000", "143844.797500", "143845.585000", "143846.372500", "143847.162500", "143847.950000", "143848.737500", "143849.525000", "143850.315000", "143851.102500", "143851.890000", "143852.677500", "143853.467500", "143854.255000", "143855.042500", "143855.830000", "143856.620000", "143857.407500", "143858.195000", "143858.982500", "143859.772500", "143900.560000", "143901.347500", "143902.137500", "143902.925000", "143903.712500", "143904.500000", "143905.290000", "143906.077500", "143906.865000", "143907.652500", "143908.442500", "143909.230000", "143910.017500", "143910.805000", "143911.595000", "143912.382500", "143913.170000", "143913.957500", "143914.747500", "143915.535000", "143916.322500", "143917.110000", "143917.900000", "143918.687500", "143919.475000", "143920.265000", "143921.052500", "143921.840000", "143922.627500", "143923.417500", "143924.205000", "143924.992500", "143925.780000", "143926.570000", "143927.357500", "143928.145000", "143928.932500", "143929.722500", "143930.510000", "143931.297500", "143932.085000", "143932.875000", "143933.662500", "143934.450000", "143935.237500", "143936.027500", "143936.815000", "143937.602500", "143938.392500", "143939.180000", "143939.967500", "143940.755000", "143941.545000", "143942.332500", "143943.120000", "143943.907500", "143944.697500", "143945.485000", "143946.272500", "143947.060000", "143947.850000", "143948.637500", "143949.425000", "143950.212500", "143951.002500", "143951.790000", "143952.577500", "143953.365000", "143954.155000", "143954.942500", "143955.730000", "143956.520000", "143957.307500", "143958.095000", "143958.882500", "143959.672500", "144000.460000", "144001.247500", "144002.035000", "144002.825000", "144003.612500", "144004.400000", "144005.187500", "144005.977500", "144006.765000", "144007.552500", "144008.340000", "144009.130000", "144009.917500", "144010.705000", "144011.495000", "144012.282500", "144013.070000", "144013.857500", "144014.647500", "144015.435000", "144016.222500", "144017.010000", "144017.800000", "144018.587500", "144019.375000", "144020.162500", "144020.952500", "144021.740000", "144022.527500", "144023.315000", "144024.105000", "144024.892500", "144025.680000", "144026.467500", "144027.257500", "144028.045000", "144028.832500", "144029.622500", "144030.410000", "144031.197500", "144031.985000", "144032.775000", "144033.562500", "144034.350000", "144035.137500", "144035.927500", "144036.715000", "144037.502500", "144038.290000", "144039.080000", "144039.867500", "144040.655000", "144041.442500", "144042.232500", "144043.020000", "144043.807500", "144044.595000", "144045.385000", "144046.172500", "144046.960000", "144047.750000", "144048.537500", "144049.325000", "144050.112500", "144050.902500", "144051.690000", "144052.477500", "144053.265000", "144054.055000", "144054.842500", "144055.630000", "144056.417500", "144057.207500", "144057.995000", "144058.782500", "144059.570000", "144100.360000", "144101.147500", "144101.935000", "144102.722500", "144103.512500", "144104.300000", "144105.087500", "144105.877500", "144106.665000", "144107.452500", "144108.240000", "144109.030000", "144109.817500", "144110.605000", "144111.392500", "144112.182500", "144112.970000", "144113.757500", "144114.545000", "144115.335000", "144116.122500", "144116.910000", "144117.697500", "144118.487500", "144119.275000", "144120.062500", "144120.850000", "144121.640000", "144122.427500", "144123.215000", "144124.005000", "144124.792500", "144125.580000", "144126.367500", "144127.157500", "144127.945000", "144128.732500", "144129.520000", "144130.310000", "144131.097500", "144131.885000", "144132.672500", "144133.462500", "144134.250000", "144135.037500", "144135.825000", "144136.615000", "144137.402500", "144138.190000", "144138.977500", "144139.767500", "144140.555000", "144141.342500", "144142.132500", "144142.920000", "144143.707500", "144144.495000", "144145.285000", "144146.072500", "144146.860000", "144147.647500", "144148.437500", "144149.225000", "144150.012500", "144150.800000", "144151.590000", "144152.377500", "144153.165000", "144153.952500", "144154.742500", "144155.530000", "144156.317500", "144157.105000", "144157.895000", "144158.682500", "144159.470000", "144200.260000", "144201.047500", "144201.835000"],
      "ContentTime": ["143449.421000", "143449.421000", "143449.421000", "143449.421000", "143449.437000", "143449.437000", "143449.437000", "143449.437000", "143449.437000", "143449.437000", "143449.437000", "143449.453000", "143449.453000", "143449.453000", "143449.453000", "143449.453000", "143449.453000", "143449.453000", "143449.468000", "143449.468000", "143449.468000", "143449.484000", "143449.484000", "143449.484000", "143449.484000", "143449.484000", "143449.484000", "143449.500000", "143449.500000", "143509.390000", "143509.390000", "143509.390000", "143509.406000", "143509.406000", "143509.406000", "143509.406000", "143509.406000", "143509.406000", "143509.406000", "143509.421000", "143509.421000", "143509.421000", "143509.421000", "143509.421000", "143509.421000", "143509.421000", "143509.437000", "143509.437000", "143509.437000", "143509.437000", "143509.437000", "143509.437000", "143509.437000", "143509.453000", "143529.390000", "143529.390000", "143529.390000", "143529.406000", "143529.406000", "143529.406000", "143529.406000", "143529.406000", "143529.406000", "143529.406000", "143529.421000", "143529.421000", "143529.421000", "143529.421000", "143529.421000", "143529.421000", "143529.421000", "143529.437000", "143529.437000", "143529.437000", "143529.437000", "143529.437000", "143529.437000", "143529.437000", "143529.453000", "143529.453000", "143549.390000", "143549.390000", "143549.390000", "143549.406000", "143549.406000", "143549.406000", "143549.406000", "143549.406000", "143549.406000", "143549.406000", "143549.421000", "143549.421000", "143549.421000", "143549.421000", "143549.421000", "143549.421000", "143549.421000", "143549.437000", "143549.437000", "143549.437000", "143549.437000", "143549.437000", "143549.437000", "143549.437000", "143549.453000", "143609.390000", "143609.390000", "143609.390000", "143609.406000", "143609.406000", "143609.406000", "143609.406000", "143609.406000", "143609.406000", "143609.406000", "143609.421000", "143609.421000", "143609.421000", "143609.421000", "143609.421000", "143609.437000", "143609.437000", "143609.437000", "143609.437000", "143609.437000", "143609.437000", "143609.437000", "143609.453000", "143609.453000", "143609.453000", "143609.453000", "143629.390000", "143629.390000", "143629.390000", "143629.406000", "143629.406000", "143629.406000", "143629.406000", "143629.406000", "143629.406000", "143629.406000", "143629.421000", "143629.421000", "143629.421000", "143629.421000", "143629.421000", "143629.437000", "143629.437000", "143629.437000", "143629.437000", "143629.437000", "143629.437000", "143629.453000", "143629.453000", "143629.453000", "143629.453000", "143649.390000", "143649.390000", "143649.390000", "143649.406000", "143649.406000", "143649.406000", "143649.406000", "143649.406000", "143649.406000", "143649.406000", "143649.421000", "143649.421000", "143649.421000", "143649.421000", "143649.421000", "143649.421000", "143649.421000", "143649.437000", "143649.437000", "143649.437000", "143649.437000", "143649.437000", "143649.437000", "143649.437000", "143649.453000", "143649.453000", "143709.390000", "143709.390000", "143709.390000", "143709.406000", "143709.406000", "143709.406000", "143709.406000", "143709.406000", "143709.406000", "143709.406000", "143709.421000", "143709.421000", "143709.421000", "143709.421000", "143709.421000", "143709.421000", "143709.421000", "143709.437000", "143709.437000", "143709.437000", "143709.437000", "143709.437000", "143709.453000", "143709.453000", "143709.453000", "143729.390000", "143729.406000", "143729.406000", "143729.406000", "143729.406000", "143729.406000", "143729.406000", "143729.406000", "143729.421000", "143729.421000", "143729.421000", "143729.421000", "143729.421000", "143729.421000", "143729.421000", "143729.437000", "143729.437000", "143729.437000", "143729.437000", "143729.437000", "143729.437000", "143729.437000", "143729.453000", "143729.453000", "143729.453000", "143749.390000", "143749.390000", "143749.390000", "143749.406000", "143749.406000", "143749.406000", "143749.406000", "143749.406000", "143749.406000", "143749.406000", "143749.421000", "143749.421000", "143749.421000", "143749.421000", "143749.421000", "143749.437000", "143749.437000", "143749.437000", "143749.437000", "143749.437000", "143749.437000", "143749.437000", "143749.453000", "143749.453000", "143749.453000", "143749.453000", "143809.390000", "143809.390000", "143809.390000", "143809.406000", "143809.406000", "143809.406000", "143809.406000", "143809.406000", "143809.406000", "143809.531000", "143809.546000", "143809.546000", "143809.546000", "143809.546000", "143809.546000", "143809.546000", "143809.546000", "143809.562000", "143809.562000", "143809.562000", "143809.562000", "143809.562000", "143809.578000", "143809.578000", "143809.578000", "143829.390000", "143829.390000", "143829.390000", "143829.406000", "143829.406000", "143829.406000", "143829.406000", "143829.406000", "143829.406000", "143829.406000", "143829.421000", "143829.421000", "143829.421000", "143829.421000", "143829.421000", "143829.421000", "143829.437000", "143829.437000", "143829.437000", "143829.437000", "143829.437000", "143829.437000", "143829.437000", "143829.453000", "143829.453000", "143829.453000", "143849.390000", "143849.390000", "143849.390000", "143849.406000", "143849.406000", "143849.406000", "143849.406000", "143849.406000", "143849.406000", "143849.406000", "143849.421000", "143849.421000", "143849.421000", "143849.421000", "143849.421000", "143849.437000", "143849.437000", "143849.437000", "143849.437000", "143849.437000", "143849.437000", "143849.437000", "143849.453000", "143849.453000", "143849.453000", "143909.390000", "143909.390000", "143909.390000", "143909.406000", "143909.406000", "143909.406000", "143909.406000", "143909.421000", "143909.421000", "143909.421000", "143909.421000", "143909.421000", "143909.437000", "143909.437000", "143909.437000", "143909.437000", "143909.437000", "143909.437000", "143909.437000", "143909.453000", "143909.453000", "143909.453000", "143909.453000", "143909.453000", "143909.453000", "143909.453000", "143929.390000", "143929.390000", "143929.390000", "143929.406000", "143929.406000", "143929.406000", "143929.406000", "143929.406000", "143929.406000", "143929.437000", "143929.453000", "143929.453000", "143929.453000", "143929.453000", "143929.453000", "143929.453000", "143929.468000", "143929.468000", "143929.468000", "143929.468000", "143929.468000", "143929.484000", "143929.484000", "143929.484000", "143929.484000", "143949.390000", "143949.390000", "143949.390000", "143949.406000", "143949.406000", "143949.406000", "143949.406000", "143949.406000", "143949.406000", "143949.406000", "143949.421000", "143949.421000", "143949.421000", "143949.421000", "143949.421000", "143949.437000", "143949.437000", "143949.437000", "143949.437000", "143949.437000", "143949.437000", "143949.437000", "143949.453000", "143949.453000", "143949.453000", "143949.453000", "144009.390000", "144009.390000", "144009.390000", "144009.406000", "144009.406000", "144009.406000", "144009.406000", "144009.406000", "144009.406000", "144009.406000", "144009.421000", "144009.421000", "144009.421000", "144009.421000", "144009.421000", "144009.421000", "144009.421000", "144009.437000", "144009.437000", "144009.437000", "144009.437000", "144009.437000", "144009.437000", "144009.437000", "144009.453000", "144029.390000", "144029.390000", "144029.390000", "144029.406000", "144029.406000", "144029.406000", "144029.406000", "144029.406000", "144029.406000", "144029.406000", "144029.421000", "144029.421000", "144029.421000", "144029.421000", "144029.421000", "144029.437000", "144029.437000", "144029.437000", "144029.437000", "144029.437000", "144029.437000", "144029.453000", "144029.453000", "144029.453000", "144029.453000", "144029.453000", "144049.390000", "144049.390000", "144049.390000", "144049.406000", "144049.406000", "144049.406000", "144049.406000", "144049.406000", "144049.406000", "144049.484000", "144049.484000", "144049.500000", "144049.500000", "144049.500000", "144049.500000", "144049.500000", "144049.500000", "144049.500000", "144049.515000", "144049.515000", "144049.515000", "144049.515000", "144049.515000", "144049.515000", "144049.531000", "144109.390000", "144109.390000", "144109.390000", "144109.406000", "144109.406000", "144109.406000", "144109.406000", "144109.406000", "144109.406000", "144109.406000", "144109.421000", "144109.421000", "144109.421000", "144109.421000", "144109.421000", "144109.437000", "144109.437000", "144109.437000", "144109.437000", "144109.437000", "144109.437000", "144109.437000", "144109.453000", "144109.453000", "144109.453000", "144109.453000", "144129.390000", "144129.390000", "144129.390000", "144129.406000", "144129.406000", "144129.406000", "144129.406000", "144129.406000", "144129.406000", "144129.406000", "144129.421000", "144129.421000", "144129.421000", "144129.421000", "144129.421000", "144129.421000", "144129.437000", "144129.437000", "144129.437000", "144129.437000", "144129.437000", "144129.453000", "144129.453000", "144129.453000", "144129.453000", "144149.390000", "144149.390000", "144149.390000", "144149.406000", "144149.406000", "144149.406000", "144149.406000", "144149.406000", "144149.406000", "144149.406000", "144149.421000", "144149.421000", "144149.421000", "144149.421000", "144149.421000", "144149.421000", "144149.421000", "144149.437000", "144149.437000", "144149.437000", "144149.437000", "144149.437000", "144149.437000", "144149.453000", "144149.453000", "144149.453000", "144202.656000", "144202.656000", "144202.656000", "144202.656000", "144202.671000", "144202.671000", "144202.671000", "144202.671000", "144202.671000", "144202.671000", "144202.671000", "144202.687000", "144202.687000", "144202.687000", "144202.687000", "144202.687000", "144202.687000"],
