{
  "AcquisitionMatrixPE": 104,
  "AcquisitionNumber": 1,
  "AcquisitionTime": "14:58:25.695000",
  "BandwidthPerPixelPhaseEncode": 13.935,
  "BaseResolution": 104,
  "CoilString": "C:HEA;HEP",
  "ConversionSoftware": "dcm2niix",
  "ConversionSoftwareVersion": "v1.0.20210317",
  "DerivedVendorReportedEchoSpacing": 0.000690017,
  "DeviceSerialNumber": "35450",
  "DwellTime": 2.5e-06,
  "EchoTime": 0.0348,
  "EffectiveEchoSpacing": 0.000690017,
  "FlipAngle": 55,
  "ImageComments": "Unaliased MB8/PE3 (remote)",
  "ImageOrientationPatientDICOM": [1, 0, 0, 0, 0.999945, -0.0104718],
  "ImageType": [
    "ORIGINAL",
    "PRIMARY",
    "M",
    "MB",
    "ND",
    "MOSAIC"
],
  "ImagingFrequency": 123.235,
  "InPlanePhaseEncodingDirectionDICOM": "COL",
  "InstitutionAddress": "Univeristy Ave. 197,Newark,North East,US,07102-1814",
  "InstitutionName": "RUBIC",
  "InstitutionalDepartmentName": "Department",
  "MRAcquisitionType": "2D",
  "MagneticFieldStrength": 3,
  "Manufacturer": "Siemens",
  "ManufacturersModelName": "TrioTim",
  "Modality": "MR",
  "MultibandAccelerationFactor": 8,
  "PartialFourier": 0.875,
  "PatientPosition": "HFS",
  "PercentPhaseFOV": 100,
  "PercentSampling": 100,
  "PhaseEncodingDirection": "j-",
  "PhaseEncodingSteps": 91,
  "PhaseResolution": 1,
  "PixelBandwidth": 1923,
  "ProcedureStepDescription": "Cole^Michael",
  "ProtocolName": "cmrr_mbep2d_bold_2mm_MB8_Task_8x",
  "PulseSequenceDetails": "%CustomerSeq%\\cmrr_mbep2d_bold",
  "ReceiveCoilName": "32Ch_Head",
  "ReconMatrixPE": 104,
  "RepetitionTime": 0.785,
  "SAR": 0.127948,
  "ScanOptions": "PFP\\FS",
  "ScanningSequence": "EP",
  "SequenceName": "epfid2d1_104",
  "SequenceVariant": "SK\\SS",
  "SeriesDescription": "cmrr_mbep2d_bold_2mm_MB8_Task_8x",
  "SeriesNumber": 23,
  "ShimSetting": [2101, -457, -7426, 707, -2, -216, -815, -38],
  "SliceThickness": 2,
  "SliceTiming": [0, 0.44, 0.0875, 0.5275, 0.1775, 0.615, 0.265, 0.7025, 0.3525, 0, 0.44, 0.0875, 0.5275, 0.1775, 0.615, 0.265, 0.7025, 0.3525, 0, 0.44, 0.0875, 0.5275, 0.1775, 0.615, 0.265, 0.7025, 0.3525, 0, 0.44, 0.0875, 0.5275, 0.1775, 0.615, 0.265, 0.7025, 0.3525, 0, 0.44, 0.0875, 0.5275, 0.1775, 0.615, 0.265, 0.7025, 0.3525, 0, 0.44, 0.0875, 0.5275, 0.1775, 0.615, 0.265, 0.7025, 0.3525, 0, 0.44, 0.0875, 0.5275, 0.1775, 0.615, 0.265, 0.7025, 0.3525, 0, 0.44, 0.0875, 0.5275, 0.1775, 0.615, 0.265, 0.7025, 0.3525],
  "SoftwareVersions": "syngo MR B19",
  "SpacingBetweenSlices": 2,
  "StationName": "MRC35450",
  "TaskName": "cpro",
  "TotalReadoutTime": 0.0710717,
  "TxRefAmp": 323.471,
  "dcmmeta_affine": [
    [-2.0, 0.0, 0.0, 105.3559341430664],
    [0.0, 1.9998903274536133, -0.020943567156791687, -78.2510986328125],
    [0.0, 0.020943567156791687, 1.9998903274536133, -98.45664978027344],
    [0.0, 0.0, 0.0, 1.0]
],
  "dcmmeta_reorient_transform": [
    [0.0, -1.0, 0.0, 103.0],
    [1.0, 0.0, 0.0, 0.0],
    [0.0, 0.0, 1.0, 0.0],
    [0.0, 0.0, 0.0, 1.0]
],
  "dcmmeta_shape": [104, 104, 72, 581],
  "dcmmeta_slice_dim": 2,
  "dcmmeta_version": 0.6,
  "global": {
    "const": {
      "AcquisitionMatrix": [104, 0, 0, 104],
      "AngioFlag": "N",
      "BitsAllocated": 16,
      "BitsStored": 12,
      "Columns": 936,
      "EchoNumbers": 1,
      "EchoTime": 34.8,
      "EchoTrainLength": 1,
      "FlipAngle": 55.0,
      "HighBit": 11,
      "ImageOrientationPatient": [1.0, 0.0, 0.0, 0.0, 0.9999451693678, -0.010471783898],
      "ImagePositionPatient": [-937.35593223572, -959.69198373456, -87.58693718795],
      "ImageType": [
        "ORIGINAL",
        "PRIMARY",
        "M",
        "MB",
        "ND",
        "MOSAIC"
],
      "ImagedNucleus": "1H",
      "ImagingFrequency": 123.234557,
      "InPlanePhaseEncodingDirection": "COL",
      "MRAcquisitionType": "2D",
      "MagneticFieldStrength": 3.0,
      "Manufacturer": "SIEMENS",
      "ManufacturerModelName": "TrioTim",
      "Modality": "MR",
      "NumberOfAverages": 1.0,
      "NumberOfPhaseEncodingSteps": 91,
      "PercentPhaseFieldOfView": 100.0,
      "PercentSampling": 100.0,
      "PerformedProcedureStepStartTime": "132830.609000",
      "PhotometricInterpretation": "MONOCHROME2",
      "PixelBandwidth": 1923.0,
      "PixelRepresentation": 0,
      "PixelSpacing": [2.0, 2.0],
      "ProtocolName": "cmrr_mbep2d_bold_2mm_MB8_Task_8x",
      "RepetitionTime": 785.0,
      "Rows": 936,
      "SAR": 0.12794807561933,
      "SamplesPerPixel": 1,
      "ScanOptions": [
        "PFP",
        "FS"
],
      "ScanningSequence": "EP",
      "SequenceName": "epfid2d1_104",
      "SequenceVariant": [
        "SK",
        "SS"
],
      "SeriesDescription": "cmrr_mbep2d_bold_2mm_MB8_Task_8x",
      "SeriesNumber": 23,
      "SeriesTime": "145849.421000",
      "SliceLocation": -97.631821803149,
      "SliceThickness": 2.0,
      "SmallestImagePixelValue": 0,
      "SoftwareVersions": "syngo MR B19",
      "SpacingBetweenSlices": 1.999999948495,
      "SpecificCharacterSet": "ISO_IR 100",
      "StudyID": "1",
      "StudyTime": "132830.578000",
      "TransmitCoilName": "Body",
      "VariableFlipAngleFlag": "N",
      "WindowCenterWidthExplanation": "Algo1",
      "dBdt": 0.0},
    "slices": {}
  },
  "time": {
    "samples": {
      "AcquisitionNumber": [1, 2, 3, 4, 5, 6, 7, 8, 9, 10, 11, 12, 13, 14, 15, 16, 17, 18, 19, 20, 21, 22, 23, 24, 25, 26, 27, 28, 29, 30, 31, 32, 33, 34, 35, 36, 37, 38, 39, 40, 41, 42, 43, 44, 45, 46, 47, 48, 49, 50, 51, 52, 53, 54, 55, 56, 57, 58, 59, 60, 61, 62, 63, 64, 65, 66, 67, 68, 69, 70, 71, 72, 73, 74, 75, 76, 77, 78, 79, 80, 81, 82, 83, 84, 85, 86, 87, 88, 89, 90, 91, 92, 93, 94, 95, 96, 97, 98, 99, 100, 101, 102, 103, 104, 105, 106, 107, 108, 109, 110, 111, 112, 113, 114, 115, 116, 117, 118, 119, 120, 121, 122, 123, 124, 125, 126, 127, 128, 129, 130, 131, 132, 133, 134, 135, 136, 137, 138, 139, 140, 141, 142, 143, 144, 145, 146, 147, 148, 149, 150, 151, 152, 153, 154, 155, 156, 157, 158, 159, 160, 161, 162, 163, 164, 165, 166, 167, 168, 169, 170, 171, 172, 173, 174, 175, 176, 177, 178, 179, 180, 181, 182, 183, 184, 185, 186, 187, 188, 189, 190, 191, 192, 193, 194, 195, 196, 197, 198, 199, 200, 201, 202, 203, 204, 205, 206, 207, 208, 209, 210, 211, 212, 213, 214, 215, 216, 217, 218, 219, 220, 221, 222, 223, 224, 225, 226, 227, 228, 229, 230, 231, 232, 233, 234, 235, 236, 237, 238, 239, 240, 241, 242, 243, 244, 245, 246, 247, 248, 249, 250, 251, 252, 253, 254, 255, 256, 257, 258, 259, 260, 261, 262, 263, 264, 265, 266, 267, 268, 269, 270, 271, 272, 273, 274, 275, 276, 277, 278, 279, 280, 281, 282, 283, 284, 285, 286, 287, 288, 289, 290, 291, 292, 293, 294, 295, 296, 297, 298, 299, 300, 301, 302, 303, 304, 305, 306, 307, 308, 309, 310, 311, 312, 313, 314, 315, 316, 317, 318, 319, 320, 321, 322, 323, 324, 325, 326, 327, 328, 329, 330, 331, 332, 333, 334, 335, 336, 337, 338, 339, 340, 341, 342, 343, 344, 345, 346, 347, 348, 349, 350, 351, 352, 353, 354, 355, 356, 357, 358, 359, 360, 361, 362, 363, 364, 365, 366, 367, 368, 369, 370, 371, 372, 373, 374, 375, 376, 377, 378, 379, 380, 381, 382, 383, 384, 385, 386, 387, 388, 389, 390, 391, 392, 393, 394, 395, 396, 397, 398, 399, 400, 401, 402, 403, 404, 405, 406, 407, 408, 409, 410, 411, 412, 413, 414, 415, 416, 417, 418, 419, 420, 421, 422, 423, 424, 425, 426, 427, 428, 429, 430, 431, 432, 433, 434, 435, 436, 437, 438, 439, 440, 441, 442, 443, 444, 445, 446, 447, 448, 449, 450, 451, 452, 453, 454, 455, 456, 457, 458, 459, 460, 461, 462, 463, 464, 465, 466, 467, 468, 469, 470, 471, 472, 473, 474, 475, 476, 477, 478, 479, 480, 481, 482, 483, 484, 485, 486, 487, 488, 489, 490, 491, 492, 493, 494, 495, 496, 497, 498, 499, 500, 501, 502, 503, 504, 505, 506, 507, 508, 509, 510, 511, 512, 513, 514, 515, 516, 517, 518, 519, 520, 521, 522, 523, 524, 525, 526, 527, 528, 529, 530, 531, 532, 533, 534, 535, 536, 537, 538, 539, 540, 541, 542, 543, 544, 545, 546, 547, 548, 549, 550, 551, 552, 553, 554, 555, 556, 557, 558, 559, 560, 561, 562, 563, 564, 565, 566, 567, 568, 569, 570, 571, 572, 573, 574, 575, 576, 577, 578, 579, 580, 581],
      "AcquisitionTime": ["145825.695000", "145826.485000", "145827.272500", "145828.060000", "145828.850000", "145829.637500", "145830.425000", "145831.212500", "145832.002500", "145832.790000", "145833.577500", "145834.365000", "145835.155000", "145835.942500", "145836.730000", "145837.517500", "145838.307500", "145839.095000", "145839.882500", "145840.670000", "145841.460000", "145842.247500", "145843.035000", "145843.822500", "145844.612500", "145845.400000", "145846.187500", "145846.977500", "145847.765000", "145848.552500", "145849.340000", "145850.130000", "145850.917500", "145851.705000", "145852.492500", "145853.282500", "145854.070000", "145854.857500", "145855.645000", "145856.435000", "145857.222500", "145858.010000", "145858.797500", "145859.587500", "145900.375000", "145901.162500", "145901.950000", "145902.740000", "145903.527500", "145904.315000", "145905.105000", "145905.892500", "145906.680000", "145907.467500", "145908.257500", "145909.045000", "145909.832500", "145910.620000", "145911.410000", "145912.197500", "145912.985000", "145913.772500", "145914.562500", "145915.350000", "145916.137500", "145916.925000", "145917.715000", "145918.502500", "145919.290000", "145920.077500", "145920.867500", "145921.655000", "145922.442500", "145923.232500", "145924.020000", "145924.807500", "145925.595000", "145926.385000", "145927.172500", "145927.960000", "145928.747500", "145929.537500", "145930.325000", "145931.112500", "145931.900000", "145932.690000", "145933.477500", "145934.265000", "145935.052500", "145935.842500", "145936.630000", "145937.417500", "145938.205000", "145938.995000", "145939.782500", "145940.570000", "145941.360000", "145942.147500", "145942.935000", "145943.722500", "145944.512500", "145945.300000", "145946.087500", "145946.875000", "145947.665000", "145948.452500", "145949.240000", "145950.027500", "145950.817500", "145951.605000", "145952.392500", "145953.180000", "145953.970000", "145954.757500", "145955.545000", "145956.335000", "145957.122500", "145957.910000", "145958.697500", "145959.487500", "150000.275000", "150001.062500", "150001.850000", "150002.640000", "150003.427500", "150004.215000", "150005.002500", "150005.792500", "150006.580000", "150007.367500", "150008.155000", "150008.945000", "150009.732500", "150010.520000", "150011.307500", "150012.097500", "150012.885000", "150013.672500", "150014.462500", "150015.250000", "150016.037500", "150016.825000", "150017.615000", "150018.402500", "150019.190000", "150019.977500", "150020.767500", "150021.555000", "150022.342500", "150023.130000", "150023.920000", "150024.707500", "150025.495000", "150026.282500", "150027.072500", "150027.860000", "150028.647500", "150029.435000", "150030.225000", "150031.012500", "150031.800000", "150032.590000", "150033.377500", "150034.165000", "150034.952500", "150035.742500", "150036.530000", "150037.317500", "150038.105000", "150038.895000", "150039.682500", "150040.470000", "150041.257500", "150042.047500", "150042.835000", "150043.622500", "150044.410000", "150045.200000", "150045.987500", "150046.775000", "150047.562500", "150048.352500", "150049.140000", "150049.927500", "150050.717500", "150051.505000", "150052.292500", "150053.080000", "150053.870000", "150054.657500", "150055.445000", "150056.232500", "150057.022500", "150057.810000", "150058.597500", "150059.385000", "150100.175000", "150100.962500", "150101.750000", "150102.537500", "150103.327500", "150104.115000", "150104.902500", "150105.690000", "150106.480000", "150107.267500", "150108.055000", "150108.845000", "150109.632500", "150110.420000", "150111.207500", "150111.997500", "150112.785000", "150113.572500", "150114.360000", "150115.150000", "150115.937500", "150116.725000", "150117.512500", "150118.302500", "150119.090000", "150119.877500", "150120.665000", "150121.455000", "150122.242500", "150123.030000", "150123.817500", "150124.607500", "150125.395000", "150126.182500", "150126.972500", "150127.760000", "150128.547500", "150129.335000", "150130.125000", "150130.912500", "150131.700000", "150132.487500", "150133.277500", "150134.065000", "150134.852500", "150135.640000", "150136.430000", "150137.217500", "150138.005000", "150138.792500", "150139.582500", "150140.370000", "150141.157500", "150141.945000", "150142.735000", "150143.522500", "150144.310000", "150145.100000", "150145.887500", "150146.675000", "150147.462500", "150148.252500", "150149.040000", "150149.827500", "150150.615000", "150151.405000", "150152.192500", "150152.980000", "150153.767500", "150154.557500", "150155.345000", "150156.132500", "150156.920000", "150157.710000", "150158.497500", "150159.285000", "150200.072500", "150200.862500", "150201.650000", "150202.437500", "150203.227500", "150204.015000", "150204.802500", "150205.590000", "150206.380000", "150207.167500", "150207.955000", "150208.742500", "150209.532500", "150210.320000", "150211.107500", "150211.895000", "150212.685000", "150213.472500", "150214.260000", "150215.047500", "150215.837500", "150216.625000", "150217.412500", "150218.200000", "150218.990000", "150219.777500", "150220.565000", "150221.355000", "150222.142500", "150222.930000", "150223.717500", "150224.507500", "150225.295000", "150226.082500", "150226.870000", "150227.660000", "150228.447500", "150229.235000", "150230.022500", "150230.812500", "150231.600000", "150232.387500", "150233.175000", "150233.965000", "150234.752500", "150235.540000", "150236.327500", "150237.117500", "150237.905000", "150238.692500", "150239.482500", "150240.270000", "150241.057500", "150241.845000", "150242.635000", "150243.422500", "150244.210000", "150244.997500", "150245.787500", "150246.575000", "150247.362500", "150248.150000", "150248.940000", "150249.727500", "150250.515000", "150251.302500", "150252.092500", "150252.880000", "150253.667500", "150254.455000", "150255.245000", "150256.032500", "150256.820000", "150257.610000", "150258.397500", "150259.185000", "150259.972500", "150300.762500", "150301.550000", "150302.337500", "150303.125000", "150303.915000", "150304.702500", "150305.490000", "150306.277500", "150307.067500", "150307.855000", "150308.642500", "150309.430000", "150310.220000", "150311.007500", "150311.795000", "150312.585000", "150313.372500", "150314.160000", "150314.947500", "150315.737500", "150316.525000", "150317.312500", "150318.100000", "150318.890000", "150319.677500", "150320.465000", "150321.252500", "150322.042500", "150322.830000", "150323.617500", "150324.405000", "150325.195000", "150325.982500", "150326.770000", "150327.557500", "150328.347500", "150329.135000", "150329.922500", "150330.712500", "150331.500000", "150332.287500", "150333.075000", "150333.865000", "150334.652500", "150335.440000", "150336.227500", "150337.017500", "150337.805000", "150338.592500", "150339.380000", "150340.170000", "150340.957500", "150341.745000", "150342.532500", "150343.322500", "150344.110000", "150344.897500", "150345.685000", "150346.475000", "150347.262500", "150348.050000", "150348.840000", "150349.627500", "150350.415000", "150351.202500", "150351.992500", "150352.780000", "150353.567500", "150354.355000", "150355.145000", "150355.932500", "150356.720000", "150357.507500", "150358.297500", "150359.085000", "150359.872500", "150400.660000", "150401.450000", "150402.237500", "150403.025000", "150403.812500", "150404.602500", "150405.390000", "150406.177500", "150406.967500", "150407.755000", "150408.542500", "150409.330000", "150410.120000", "150410.907500", "150411.695000", "150412.482500", "150413.272500", "150414.060000", "150414.847500", "150415.635000", "150416.425000", "150417.212500", "150418.000000", "150418.787500", "150419.577500", "150420.365000", "150421.152500", "150421.940000", "150422.730000", "150423.517500", "150424.305000", "150425.095000", "150425.882500", "150426.670000", "150427.457500", "150428.247500", "150429.035000", "150429.822500", "150430.610000", "150431.400000", "150432.187500", "150432.975000", "150433.762500", "150434.552500", "150435.340000", "150436.127500", "150436.915000", "150437.705000", "150438.492500", "150439.280000", "150440.067500", "150440.857500", "150441.645000", "150442.432500", "150443.222500", "150444.010000", "150444.797500", "150445.585000", "150446.375000", "150447.162500", "150447.950000", "150448.737500", "150449.527500", "150450.315000", "150451.102500", "150451.890000", "150452.680000", "150453.467500", "150454.255000", "150455.042500", "150455.832500", "150456.620000", "150457.407500", "150458.195000", "150458.985000", "150459.772500", "150500.560000", "150501.350000", "150502.137500", "150502.925000", "150503.712500", "150504.502500", "150505.290000", "150506.077500", "150506.865000", "150507.655000", "150508.442500", "150509.230000", "150510.017500", "150510.807500", "150511.595000", "150512.382500", "150513.170000", "150513.960000", "150514.747500", "150515.535000", "150516.322500", "150517.112500", "150517.900000", "150518.687500", "150519.477500", "150520.265000", "150521.052500", "150521.840000", "150522.630000", "150523.417500", "150524.205000", "150524.992500", "150525.782500", "150526.570000", "150527.357500", "150528.145000", "150528.935000", "150529.722500", "150530.510000", "150531.297500", "150532.087500", "150532.875000", "150533.662500", "150534.450000", "150535.240000", "150536.027500", "150536.815000", "150537.605000", "150538.392500", "150539.180000", "150539.967500", "150540.757500", "150541.545000", "150542.332500", "150543.120000", "150543.910000", "150544.697500", "150545.485000", "150546.272500", "150547.062500", "150547.850000", "150548.637500", "150549.425000", "150550.215000", "150551.002500", "150551.790000", "150552.577500", "150553.367500", "150554.155000", "150554.942500", "150555.732500", "150556.520000", "150557.307500", "150558.095000", "150558.885000", "150559.672500", "150600.460000", "150601.247500", "150602.037500", "150602.825000"],
      "ContentTime": ["145849.421000", "145849.421000", "145849.421000", "145849.421000", "145849.421000", "145849.437000", "145849.437000", "145849.437000", "145849.437000", "145849.437000", "145849.437000", "145849.453000", "145849.453000", "145849.453000", "145849.453000", "145849.453000", "145849.453000", "145849.453000", "145849.468000", "145849.468000", "145849.468000", "145849.468000", "145849.468000", "145849.468000", "145849.468000", "145849.484000", "145849.484000", "145909.390000", "145909.390000", "145909.390000", "145909.406000", "145909.406000", "145909.406000", "145909.406000", "145909.406000", "145909.406000", "145909.406000", "145909.421000", "145909.421000", "145909.421000", "145909.421000", "145909.421000", "145909.421000", "145909.421000", "145909.437000", "145909.437000", "145909.437000", "145909.437000", "145909.437000", "145909.437000", "145909.453000", "145909.453000", "145909.453000", "145929.390000", "145929.390000", "145929.390000", "145929.406000", "145929.406000", "145929.406000", "145929.406000", "145929.406000", "145929.406000", "145929.406000", "145929.421000", "145929.421000", "145929.421000", "145929.421000", "145929.421000", "145929.421000", "145929.421000", "145929.437000", "145929.437000", "145929.437000", "145929.437000", "145929.437000", "145929.437000", "145929.437000", "145929.453000", "145949.390000", "145949.390000", "145949.390000", "145949.406000", "145949.406000", "145949.406000", "145949.406000", "145949.406000", "145949.406000", "145949.406000", "145949.421000", "145949.421000", "145949.421000", "145949.421000", "145949.421000", "145949.421000", "145949.421000", "145949.437000", "145949.437000", "145949.437000", "145949.437000", "145949.437000", "145949.437000", "145949.437000", "145949.453000", "145949.453000", "150009.390000", "150009.390000", "150009.390000", "150009.406000", "150009.406000", "150009.406000", "150009.406000", "150009.406000", "150009.406000", "150009.406000", "150009.421000", "150009.421000", "150009.421000", "150009.421000", "150009.421000", "150009.421000", "150009.421000", "150009.437000", "150009.437000", "150009.437000", "150009.437000", "150009.437000", "150009.437000", "150009.437000", "150009.453000", "150029.390000", "150029.390000", "150029.390000", "150029.406000", "150029.406000", "150029.406000", "150029.406000", "150029.406000", "150029.406000", "150029.406000", "150029.421000", "150029.421000", "150029.421000", "150029.421000", "150029.421000", "150029.421000", "150029.437000", "150029.437000", "150029.437000", "150029.437000", "150029.437000", "150029.453000", "150029.453000", "150029.453000", "150029.453000", "150029.453000", "150049.390000", "150049.390000", "150049.390000", "150049.406000", "150049.406000", "150049.406000", "150049.406000", "150049.406000", "150049.406000", "150049.406000", "150049.421000", "150049.421000", "150049.421000", "150049.421000", "150049.421000", "150049.421000", "150049.421000", "150049.437000", "150049.437000", "150049.437000", "150049.437000", "150049.437000", "150049.437000", "150049.437000", "150049.453000", "150109.390000", "150109.390000", "150109.390000", "150109.406000", "150109.406000", "150109.406000", "150109.406000", "150109.406000", "150109.406000", "150109.406000", "150109.421000", "150109.421000", "150109.421000", "150109.421000", "150109.421000", "150109.421000", "150109.421000", "150109.437000", "150109.437000", "150109.437000", "150109.437000", "150109.437000", "150109.437000", "150109.453000", "150109.453000", "150109.453000", "150129.390000", "150129.390000", "150129.390000", "150129.406000", "150129.406000", "150129.406000", "150129.406000", "150129.406000", "150129.406000", "150129.406000", "150129.421000", "150129.421000", "150129.421000", "150129.421000", "150129.421000", "150129.421000", "150129.421000", "150129.437000", "150129.437000", "150129.437000", "150129.437000", "150129.437000", "150129.437000", "150129.453000", "150129.453000", "150149.390000", "150149.406000", "150149.406000", "150149.406000", "150149.406000", "150149.406000", "150149.406000", "150149.421000", "150149.421000", "150149.421000", "150149.421000", "150149.421000", "150149.421000", "150149.421000", "150149.437000", "150149.437000", "150149.437000", "150149.437000", "150149.437000", "150149.437000", "150149.437000", "150149.453000", "150149.453000", "150149.453000", "150149.453000", "150149.453000", "150209.390000", "150209.390000", "150209.390000", "150209.406000", "150209.406000", "150209.406000", "150209.406000", "150209.406000", "150209.406000", "150209.406000", "150209.421000", "150209.421000", "150209.421000", "150209.421000", "150209.421000", "150209.421000", "150209.437000", "150209.437000", "150209.437000", "150209.437000", "150209.437000", "150209.453000", "150209.453000", "150209.468000", "150209.468000", "150229.390000", "150229.390000", "150229.390000", "150229.406000", "150229.406000", "150229.406000", "150229.406000", "150229.406000", "150229.406000", "150229.406000", "150229.421000", "150229.421000", "150229.421000", "150229.421000", "150229.421000", "150229.421000", "150229.421000", "150229.437000", "150229.437000", "150229.437000", "150229.437000", "150229.437000", "150229.437000", "150229.437000", "150229.453000", "150249.390000", "150249.390000", "150249.390000", "150249.406000", "150249.406000", "150249.406000", "150249.406000", "150249.406000", "150249.406000", "150249.421000", "150249.421000", "150249.421000", "150249.421000", "150249.421000", "150249.421000", "150249.421000", "150249.437000", "150249.437000", "150249.437000", "150249.437000", "150249.437000", "150249.437000", "150249.453000", "150249.453000", "150249.453000", "150249.453000", "150309.390000", "150309.390000", "150309.406000", "150309.406000", "150309.406000", "150309.406000", "150309.406000", "150309.406000", "150309.421000", "150309.421000", "150309.421000", "150309.421000", "150309.421000", "150309.421000", "150309.421000", "150309.437000", "150309.437000", "150309.437000", "150309.437000", "150309.437000", "150309.453000", "150309.453000", "150309.453000", "150309.453000", "150309.453000", "150329.390000", "150329.390000", "150329.390000", "150329.406000", "150329.406000", "150329.406000", "150329.406000", "150329.406000", "150329.406000", "150329.406000", "150329.421000", "150329.421000", "150329.421000", "150329.421000", "150329.421000", "150329.421000", "150329.421000", "150329.437000", "150329.437000", "150329.437000", "150329.437000", "150329.437000", "150329.437000", "150329.437000", "150329.453000", "150329.453000", "150349.390000", "150349.390000", "150349.390000", "150349.406000", "150349.406000", "150349.406000", "150349.406000", "150349.406000", "150349.406000", "150349.421000", "150349.421000", "150349.421000", "150349.421000", "150349.421000", "150349.421000", "150349.437000", "150349.437000", "150349.437000", "150349.437000", "150349.437000", "150349.437000", "150349.437000", "150349.453000", "150349.453000", "150349.453000", "150409.390000", "150409.390000", "150409.390000", "150409.406000", "150409.406000", "150409.406000", "150409.406000", "150409.406000", "150409.406000", "150409.406000", "150409.421000", "150409.421000", "150409.421000", "150409.421000", "150409.421000", "150409.421000", "150409.421000", "150409.437000", "150409.437000", "150409.437000", "150409.437000", "150409.437000", "150409.437000", "150409.437000", "150409.453000", "150409.453000", "150429.390000", "150429.390000", "150429.390000", "150429.406000", "150429.406000", "150429.406000", "150429.406000", "150429.406000", "150429.406000", "150429.406000", "150429.421000", "150429.421000", "150429.421000", "150429.421000", "150429.421000", "150429.421000", "150429.421000", "150429.437000", "150429.437000", "150429.437000", "150429.437000", "150429.437000", "150429.437000", "150429.453000", "150429.453000", "150449.390000", "150449.390000", "150449.406000", "150449.406000", "150449.406000", "150449.406000", "150449.406000", "150449.406000", "150449.421000", "150449.421000", "150449.421000", "150449.421000", "150449.421000", "150449.421000", "150449.437000", "150449.437000", "150449.437000", "150449.437000", "150449.437000", "150449.437000", "150449.453000", "150449.453000", "150449.453000", "150449.453000", "150449.453000", "150449.453000", "150509.390000", "150509.390000", "150509.390000", "150509.406000", "150509.406000", "150509.406000", "150509.406000", "150509.406000", "150509.406000", "150509.406000", "150509.421000", "150509.421000", "150509.421000", "150509.421000", "150509.421000", "150509.421000", "150509.421000", "150509.437000", "150509.437000", "150509.437000", "150509.437000", "150509.437000", "150509.437000", "150509.437000", "150509.453000", "150529.390000", "150529.390000", "150529.390000", "150529.406000", "150529.406000", "150529.406000", "150529.406000", "150529.406000", "150529.406000", "150529.406000", "150529.421000", "150529.421000", "150529.421000", "150529.421000", "150529.421000", "150529.421000", "150529.421000", "150529.437000", "150529.437000", "150529.437000", "150529.437000", "150529.437000", "150529.437000", "150529.437000", "150529.453000", "150529.453000", "150549.390000", "150549.390000", "150549.390000", "150549.406000", "150549.406000", "150549.406000", "150549.406000", "150549.406000", "150549.406000", "150549.406000", "150549.421000", "150549.421000", "150549.421000", "150549.421000", "150549.421000", "150549.437000", "150549.437000", "150549.437000", "150549.437000", "150549.437000", "150549.437000", "150549.437000", "150549.453000", "150549.453000", "150549.453000", "150603.750000", "150603.750000", "150603.750000", "150603.750000", "150603.750000", "150603.750000", "150603.765000", "150603.765000", "150603.765000", "150603.765000", "150603.765000", "150603.765000", "150603.765000", "150603.781000", "150603.781000", "150603.781000", "150603.781000", "150603.781000", "150603.781000"],
