{
  "AcquisitionMatrixPE": 104,
  "AcquisitionNumber": 1,
  "AcquisitionTime": "12:23:21.700000",
  "BandwidthPerPixelPhaseEncode": 13.935,
  "BaseResolution": 104,
  "CoilString": "C:HEA;HEP",
  "ConversionSoftware": "dcm2niix",
  "ConversionSoftwareVersion": "v1.0.20210317",
  "DerivedVendorReportedEchoSpacing": 0.000690017,
  "DeviceSerialNumber": "35450",
  "DwellTime": 2.5e-06,
  "EchoTime": 0.0348,
  "EffectiveEchoSpacing": 0.000690017,
  "FlipAngle": 55,
  "ImageComments": "Unaliased MB8/PE3 (remote)",
  "ImageOrientationPatientDICOM": [1, 0, 0, 0, 0.975149, -0.221548],
  "ImageType": [
    "ORIGINAL",
    "PRIMARY",
    "M",
    "MB",
    "ND",
    "MOSAIC"
],
  "ImagingFrequency": 123.234,
  "InPlanePhaseEncodingDirectionDICOM": "COL",
  "InstitutionAddress": "Univeristy Ave. 197,Newark,North East,US,07102-1814",
  "InstitutionName": "RUBIC",
  "InstitutionalDepartmentName": "Department",
  "MRAcquisitionType": "2D",
  "MagneticFieldStrength": 3,
  "Manufacturer": "Siemens",
  "ManufacturersModelName": "TrioTim",
  "Modality": "MR",
  "MultibandAccelerationFactor": 8,
  "PartialFourier": 0.875,
  "PatientPosition": "HFS",
  "PercentPhaseFOV": 100,
  "PercentSampling": 100,
  "PhaseEncodingDirection": "j-",
  "PhaseEncodingSteps": 91,
  "PhaseResolution": 1,
  "PixelBandwidth": 1923,
  "ProcedureStepDescription": "Cole^Michael",
  "ProtocolName": "cmrr_mbep2d_bold_2mm_MB8_Task_8x",
  "PulseSequenceDetails": "%CustomerSeq%\\cmrr_mbep2d_bold",
  "ReceiveCoilName": "32Ch_Head",
  "ReconMatrixPE": 104,
  "RepetitionTime": 0.785,
  "SAR": 0.127009,
  "ScanOptions": "PFP\\FS",
  "ScanningSequence": "EP",
  "SequenceName": "epfid2d1_104",
  "SequenceVariant": "SK\\SS",
  "SeriesDescription": "cmrr_mbep2d_bold_2mm_MB8_Task_8x",
  "SeriesNumber": 27,
  "ShimSetting": [2075, -364, -7263, 225, 220, -495, 72, 24],
  "SliceThickness": 2,
  "SliceTiming": [0, 0.4375, 0.0875, 0.525, 0.175, 0.6125, 0.2625, 0.7, 0.35, 0, 0.4375, 0.0875, 0.525, 0.175, 0.6125, 0.2625, 0.7, 0.35, 0, 0.4375, 0.0875, 0.525, 0.175, 0.6125, 0.2625, 0.7, 0.35, 0, 0.4375, 0.0875, 0.525, 0.175, 0.6125, 0.2625, 0.7, 0.35, 0, 0.4375, 0.0875, 0.525, 0.175, 0.6125, 0.2625, 0.7, 0.35, 0, 0.4375, 0.0875, 0.525, 0.175, 0.6125, 0.2625, 0.7, 0.35, 0, 0.4375, 0.0875, 0.525, 0.175, 0.6125, 0.2625, 0.7, 0.35, 0, 0.4375, 0.0875, 0.525, 0.175, 0.6125, 0.2625, 0.7, 0.35],
  "SoftwareVersions": "syngo MR B19",
  "SpacingBetweenSlices": 2,
  "StationName": "MRC35450",
  "TaskName": "cpro",
  "TotalReadoutTime": 0.0710717,
  "TxRefAmp": 456.615,
  "dcmmeta_affine": [
    [-2.0, 0.0, 0.0, 101.96610260009766],
    [0.0, 1.9502986669540405, -0.44309699535369873, -79.59001159667969],
    [0.0, 0.44309699535369873, 1.9502986669540405, -116.91829681396484],
    [0.0, 0.0, 0.0, 1.0]
],
  "dcmmeta_reorient_transform": [
    [0.0, -1.0, 0.0, 103.0],
    [1.0, 0.0, 0.0, 0.0],
    [0.0, 0.0, 1.0, 0.0],
    [0.0, 0.0, 0.0, 1.0]
],
  "dcmmeta_shape": [104, 104, 72, 581],
  "dcmmeta_slice_dim": 2,
  "dcmmeta_version": 0.6,
  "global": {
    "const": {
      "AcquisitionMatrix": [104, 0, 0, 104],
      "AngioFlag": "N",
      "BitsAllocated": 16,
      "BitsStored": 12,
      "Columns": 936,
      "EchoNumbers": 1,
      "EchoTime": 34.8,
      "EchoTrainLength": 1,
      "FlipAngle": 55.0,
      "HighBit": 11,
      "ImageOrientationPatient": [1.0, 0.0, 0.0, 0.0, 0.97514935362234, -0.2215485006267],
      "ImagePositionPatient": [-933.96610164642, -932.61501624295, 113.04904593961],
      "ImageType": [
        "ORIGINAL",
        "PRIMARY",
        "M",
        "MB",
        "ND",
        "MOSAIC"
],
      "ImagedNucleus": "1H",
      "ImagingFrequency": 123.234423,
      "InPlanePhaseEncodingDirection": "COL",
      "MRAcquisitionType": "2D",
      "MagneticFieldStrength": 3.0,
      "Manufacturer": "SIEMENS",
      "ManufacturerModelName": "TrioTim",
      "Modality": "MR",
      "NumberOfAverages": 1.0,
      "NumberOfPhaseEncodingSteps": 91,
      "PercentPhaseFieldOfView": 100.0,
      "PercentSampling": 100.0,
      "PerformedProcedureStepStartTime": "101946.203000",
      "PhotometricInterpretation": "MONOCHROME2",
      "PixelBandwidth": 1923.0,
      "PixelRepresentation": 0,
      "PixelSpacing": [2.0, 2.0],
      "ProtocolName": "cmrr_mbep2d_bold_2mm_MB8_Task_8x",
      "RepetitionTime": 785.0,
      "Rows": 936,
      "SAR": 0.12700902044393,
      "SamplesPerPixel": 1,
      "ScanOptions": [
        "PFP",
        "FS"
],
      "ScanningSequence": "EP",
      "SequenceName": "epfid2d1_104",
      "SequenceVariant": [
        "SK",
        "SS"
],
      "SeriesDescription": "cmrr_mbep2d_bold_2mm_MB8_Task_8x",
      "SeriesNumber": 27,
      "SeriesTime": "122353.640000",
      "SliceLocation": -96.37975443493,
      "SliceThickness": 2.0,
      "SmallestImagePixelValue": 0,
      "SoftwareVersions": "syngo MR B19",
      "SpacingBetweenSlices": 1.9999999740658,
      "SpecificCharacterSet": "ISO_IR 100",
      "StudyID": "1",
      "StudyTime": "101946.078000",
      "TransmitCoilName": "Body",
      "VariableFlipAngleFlag": "N",
      "WindowCenterWidthExplanation": "Algo1",
      "dBdt": 0.0},
    "slices": {}
  },
  "time": {
    "samples": {
      "AcquisitionNumber": [1, 2, 3, 4, 5, 6, 7, 8, 9, 10, 11, 12, 13, 14, 15, 16, 17, 18, 19, 20, 21, 22, 23, 24, 25, 26, 27, 28, 29, 30, 31, 32, 33, 34, 35, 36, 37, 38, 39, 40, 41, 42, 43, 44, 45, 46, 47, 48, 49, 50, 51, 52, 53, 54, 55, 56, 57, 58, 59, 60, 61, 62, 63, 64, 65, 66, 67, 68, 69, 70, 71, 72, 73, 74, 75, 76, 77, 78, 79, 80, 81, 82, 83, 84, 85, 86, 87, 88, 89, 90, 91, 92, 93, 94, 95, 96, 97, 98, 99, 100, 101, 102, 103, 104, 105, 106, 107, 108, 109, 110, 111, 112, 113, 114, 115, 116, 117, 118, 119, 120, 121, 122, 123, 124, 125, 126, 127, 128, 129, 130, 131, 132, 133, 134, 135, 136, 137, 138, 139, 140, 141, 142, 143, 144, 145, 146, 147, 148, 149, 150, 151, 152, 153, 154, 155, 156, 157, 158, 159, 160, 161, 162, 163, 164, 165, 166, 167, 168, 169, 170, 171, 172, 173, 174, 175, 176, 177, 178, 179, 180, 181, 182, 183, 184, 185, 186, 187, 188, 189, 190, 191, 192, 193, 194, 195, 196, 197, 198, 199, 200, 201, 202, 203, 204, 205, 206, 207, 208, 209, 210, 211, 212, 213, 214, 215, 216, 217, 218, 219, 220, 221, 222, 223, 224, 225, 226, 227, 228, 229, 230, 231, 232, 233, 234, 235, 236, 237, 238, 239, 240, 241, 242, 243, 244, 245, 246, 247, 248, 249, 250, 251, 252, 253, 254, 255, 256, 257, 258, 259, 260, 261, 262, 263, 264, 265, 266, 267, 268, 269, 270, 271, 272, 273, 274, 275, 276, 277, 278, 279, 280, 281, 282, 283, 284, 285, 286, 287, 288, 289, 290, 291, 292, 293, 294, 295, 296, 297, 298, 299, 300, 301, 302, 303, 304, 305, 306, 307, 308, 309, 310, 311, 312, 313, 314, 315, 316, 317, 318, 319, 320, 321, 322, 323, 324, 325, 326, 327, 328, 329, 330, 331, 332, 333, 334, 335, 336, 337, 338, 339, 340, 341, 342, 343, 344, 345, 346, 347, 348, 349, 350, 351, 352, 353, 354, 355, 356, 357, 358, 359, 360, 361, 362, 363, 364, 365, 366, 367, 368, 369, 370, 371, 372, 373, 374, 375, 376, 377, 378, 379, 380, 381, 382, 383, 384, 385, 386, 387, 388, 389, 390, 391, 392, 393, 394, 395, 396, 397, 398, 399, 400, 401, 402, 403, 404, 405, 406, 407, 408, 409, 410, 411, 412, 413, 414, 415, 416, 417, 418, 419, 420, 421, 422, 423, 424, 425, 426, 427, 428, 429, 430, 431, 432, 433, 434, 435, 436, 437, 438, 439, 440, 441, 442, 443, 444, 445, 446, 447, 448, 449, 450, 451, 452, 453, 454, 455, 456, 457, 458, 459, 460, 461, 462, 463, 464, 465, 466, 467, 468, 469, 470, 471, 472, 473, 474, 475, 476, 477, 478, 479, 480, 481, 482, 483, 484, 485, 486, 487, 488, 489, 490, 491, 492, 493, 494, 495, 496, 497, 498, 499, 500, 501, 502, 503, 504, 505, 506, 507, 508, 509, 510, 511, 512, 513, 514, 515, 516, 517, 518, 519, 520, 521, 522, 523, 524, 525, 526, 527, 528, 529, 530, 531, 532, 533, 534, 535, 536, 537, 538, 539, 540, 541, 542, 543, 544, 545, 546, 547, 548, 549, 550, 551, 552, 553, 554, 555, 556, 557, 558, 559, 560, 561, 562, 563, 564, 565, 566, 567, 568, 569, 570, 571, 572, 573, 574, 575, 576, 577, 578, 579, 580, 581],
      "AcquisitionTime": ["122321.700000", "122322.487500", "122323.275000", "122324.065000", "122324.852500", "122325.640000", "122326.430000", "122327.217500", "122328.005000", "122328.792500", "122329.582500", "122330.370000", "122331.157500", "122331.945000", "122332.735000", "122333.522500", "122334.310000", "122335.097500", "122335.887500", "122336.675000", "122337.462500", "122338.250000", "122339.040000", "122339.827500", "122340.615000", "122341.402500", "122342.192500", "122342.980000", "122343.767500", "122344.557500", "122345.345000", "122346.132500", "122346.920000", "122347.710000", "122348.497500", "122349.285000", "122350.072500", "122350.862500", "122351.650000", "122352.437500", "122353.225000", "122354.015000", "122354.802500", "122355.590000", "122356.377500", "122357.167500", "122357.955000", "122358.742500", "122359.530000", "122400.320000", "122401.107500", "122401.895000", "122402.685000", "122403.472500", "122404.260000", "122405.047500", "122405.837500", "122406.625000", "122407.412500", "122408.200000", "122408.990000", "122409.777500", "122410.565000", "122411.352500", "122412.142500", "122412.930000", "122413.717500", "122414.505000", "122415.295000", "122416.082500", "122416.870000", "122417.657500", "122418.447500", "122419.235000", "122420.022500", "122420.812500", "122421.600000", "122422.387500", "122423.175000", "122423.965000", "122424.752500", "122425.540000", "122426.327500", "122427.117500", "122427.905000", "122428.692500", "122429.480000", "122430.270000", "122431.057500", "122431.845000", "122432.632500", "122433.422500", "122434.210000", "122434.997500", "122435.785000", "122436.575000", "122437.362500", "122438.150000", "122438.940000", "122439.727500", "122440.515000", "122441.302500", "122442.092500", "122442.880000", "122443.667500", "122444.455000", "122445.245000", "122446.032500", "122446.820000", "122447.607500", "122448.397500", "122449.185000", "122449.972500", "122450.760000", "122451.550000", "122452.337500", "122453.125000", "122453.912500", "122454.702500", "122455.490000", "122456.277500", "122457.067500", "122457.855000", "122458.642500", "122459.430000", "122500.220000", "122501.007500", "122501.795000", "122502.582500", "122503.372500", "122504.160000", "122504.947500", "122505.735000", "122506.525000", "122507.312500", "122508.100000", "122508.887500", "122509.677500", "122510.465000", "122511.252500", "122512.040000", "122512.830000", "122513.617500", "122514.405000", "122515.195000", "122515.982500", "122516.770000", "122517.557500", "122518.347500", "122519.135000", "122519.922500", "122520.710000", "122521.500000", "122522.287500", "122523.075000", "122523.862500", "122524.652500", "122525.440000", "122526.227500", "122527.015000", "122527.805000", "122528.592500", "122529.380000", "122530.167500", "122530.957500", "122531.745000", "122532.532500", "122533.322500", "122534.110000", "122534.897500", "122535.685000", "122536.475000", "122537.262500", "122538.050000", "122538.837500", "122539.627500", "122540.415000", "122541.202500", "122541.990000", "122542.780000", "122543.567500", "122544.355000", "122545.142500", "122545.932500", "122546.720000", "122547.507500", "122548.295000", "122549.085000", "122549.872500", "122550.660000", "122551.450000", "122552.237500", "122553.025000", "122553.812500", "122554.602500", "122555.390000", "122556.177500", "122556.965000", "122557.755000", "122558.542500", "122559.330000", "122600.117500", "122600.907500", "122601.695000", "122602.482500", "122603.270000", "122604.060000", "122604.847500", "122605.635000", "122606.422500", "122607.212500", "122608.000000", "122608.787500", "122609.577500", "122610.365000", "122611.152500", "122611.940000", "122612.730000", "122613.517500", "122614.305000", "122615.092500", "122615.882500", "122616.670000", "122617.457500", "122618.245000", "122619.035000", "122619.822500", "122620.610000", "122621.397500", "122622.187500", "122622.975000", "122623.762500", "122624.552500", "122625.340000", "122626.127500", "122626.915000", "122627.705000", "122628.492500", "122629.280000", "122630.067500", "122630.857500", "122631.645000", "122632.432500", "122633.220000", "122634.010000", "122634.797500", "122635.585000", "122636.372500", "122637.162500", "122637.950000", "122638.737500", "122639.525000", "122640.315000", "122641.102500", "122641.890000", "122642.680000", "122643.467500", "122644.255000", "122645.042500", "122645.832500", "122646.620000", "122647.407500", "122648.195000", "122648.985000", "122649.772500", "122650.560000", "122651.347500", "122652.137500", "122652.925000", "122653.712500", "122654.500000", "122655.290000", "122656.077500", "122656.865000", "122657.652500", "122658.442500", "122659.230000", "122700.017500", "122700.807500", "122701.595000", "122702.382500", "122703.170000", "122703.960000", "122704.747500", "122705.535000", "122706.322500", "122707.112500", "122707.900000", "122708.687500", "122709.475000", "122710.265000", "122711.052500", "122711.840000", "122712.627500", "122713.417500", "122714.205000", "122714.992500", "122715.780000", "122716.570000", "122717.357500", "122718.145000", "122718.935000", "122719.722500", "122720.510000", "122721.297500", "122722.087500", "122722.875000", "122723.662500", "122724.450000", "122725.240000", "122726.027500", "122726.815000", "122727.602500", "122728.392500", "122729.180000", "122729.967500", "122730.755000", "122731.545000", "122732.332500", "122733.120000", "122733.907500", "122734.697500", "122735.485000", "122736.272500", "122737.062500", "122737.850000", "122738.637500", "122739.425000", "122740.215000", "122741.002500", "122741.790000", "122742.577500", "122743.367500", "122744.155000", "122744.942500", "122745.730000", "122746.520000", "122747.307500", "122748.095000", "122748.882500", "122749.672500", "122750.460000", "122751.247500", "122752.035000", "122752.825000", "122753.612500", "122754.400000", "122755.190000", "122755.977500", "122756.765000", "122757.552500", "122758.342500", "122759.130000", "122759.917500", "122800.705000", "122801.495000", "122802.282500", "122803.070000", "122803.857500", "122804.647500", "122805.435000", "122806.222500", "122807.010000", "122807.800000", "122808.587500", "122809.375000", "122810.162500", "122810.952500", "122811.740000", "122812.527500", "122813.317500", "122814.105000", "122814.892500", "122815.680000", "122816.470000", "122817.257500", "122818.045000", "122818.832500", "122819.622500", "122820.410000", "122821.197500", "122821.985000", "122822.775000", "122823.562500", "122824.350000", "122825.137500", "122825.927500", "122826.715000", "122827.502500", "122828.290000", "122829.080000", "122829.867500", "122830.655000", "122831.445000", "122832.232500", "122833.020000", "122833.807500", "122834.597500", "122835.385000", "122836.172500", "122836.960000", "122837.750000", "122838.537500", "122839.325000", "122840.112500", "122840.902500", "122841.690000", "122842.477500", "122843.265000", "122844.055000", "122844.842500", "122845.630000", "122846.417500", "122847.207500", "122847.995000", "122848.782500", "122849.572500", "122850.360000", "122851.147500", "122851.935000", "122852.725000", "122853.512500", "122854.300000", "122855.087500", "122855.877500", "122856.665000", "122857.452500", "122858.240000", "122859.030000", "122859.817500", "122900.605000", "122901.392500", "122902.182500", "122902.970000", "122903.757500", "122904.545000", "122905.335000", "122906.122500", "122906.910000", "122907.700000", "122908.487500", "122909.275000", "122910.062500", "122910.852500", "122911.640000", "122912.427500", "122913.215000", "122914.005000", "122914.792500", "122915.580000", "122916.367500", "122917.157500", "122917.945000", "122918.732500", "122919.520000", "122920.310000", "122921.097500", "122921.885000", "122922.672500", "122923.462500", "122924.250000", "122925.037500", "122925.827500", "122926.615000", "122927.402500", "122928.190000", "122928.980000", "122929.767500", "122930.555000", "122931.342500", "122932.132500", "122932.920000", "122933.707500", "122934.495000", "122935.285000", "122936.072500", "122936.860000", "122937.647500", "122938.437500", "122939.225000", "122940.012500", "122940.802500", "122941.590000", "122942.377500", "122943.165000", "122943.955000", "122944.742500", "122945.530000", "122946.317500", "122947.107500", "122947.895000", "122948.682500", "122949.470000", "122950.260000", "122951.047500", "122951.835000", "122952.622500", "122953.412500", "122954.200000", "122954.987500", "122955.775000", "122956.565000", "122957.352500", "122958.140000", "122958.930000", "122959.717500", "123000.505000", "123001.292500", "123002.082500", "123002.870000", "123003.657500", "123004.445000", "123005.235000", "123006.022500", "123006.810000", "123007.597500", "123008.387500", "123009.175000", "123009.962500", "123010.750000", "123011.540000", "123012.327500", "123013.115000", "123013.902500", "123014.692500", "123015.480000", "123016.267500", "123017.057500", "123017.845000", "123018.632500", "123019.420000", "123020.210000", "123020.997500", "123021.785000", "123022.572500", "123023.362500", "123024.150000", "123024.937500", "123025.725000", "123026.515000", "123027.302500", "123028.090000", "123028.877500", "123029.667500", "123030.455000", "123031.242500", "123032.030000", "123032.820000", "123033.607500", "123034.395000", "123035.185000", "123035.972500", "123036.760000", "123037.547500", "123038.337500", "123039.125000", "123039.912500", "123040.700000", "123041.490000", "123042.277500", "123043.065000", "123043.852500", "123044.642500", "123045.430000", "123046.217500", "123047.005000", "123047.795000", "123048.582500", "123049.370000", "123050.157500", "123050.947500", "123051.735000", "123052.522500", "123053.312500", "123054.100000", "123054.887500", "123055.675000", "123056.465000", "123057.252500", "123058.040000", "123058.827500"],
      "ContentTime": ["122353.640000", "122353.640000", "122353.640000", "122353.640000", "122353.640000", "122353.640000", "122353.656000", "122353.656000", "122353.656000", "122353.656000", "122353.656000", "122353.656000", "122353.656000", "122353.671000", "122353.671000", "122353.671000", "122353.671000", "122353.671000", "122353.671000", "122353.671000", "122353.671000", "122353.687000", "122353.687000", "122353.687000", "122353.687000", "122353.703000", "122353.703000", "122353.703000", "122353.703000", "122353.703000", "122353.703000", "122353.718000", "122353.718000", "122353.718000", "122353.718000", "122353.718000", "122353.718000", "122413.609000", "122413.625000", "122413.625000", "122413.625000", "122413.625000", "122413.625000", "122413.625000", "122413.625000", "122413.625000", "122413.640000", "122413.640000", "122413.640000", "122413.640000", "122413.640000", "122413.640000", "122413.656000", "122413.656000", "122413.656000", "122413.656000", "122413.656000", "122413.656000", "122413.671000", "122413.671000", "122413.671000", "122413.671000", "122413.671000", "122433.609000", "122433.625000", "122433.625000", "122433.625000", "122433.625000", "122433.625000", "122433.625000", "122433.625000", "122433.640000", "122433.640000", "122433.640000", "122433.640000", "122433.640000", "122433.640000", "122433.640000", "122433.640000", "122433.656000", "122433.656000", "122433.656000", "122433.656000", "122433.656000", "122433.671000", "122433.671000", "122433.671000", "122433.671000", "122453.609000", "122453.625000", "122453.625000", "122453.625000", "122453.625000", "122453.625000", "122453.625000", "122453.625000", "122453.625000", "122453.640000", "122453.640000", "122453.640000", "122453.640000", "122453.640000", "122453.640000", "122453.640000", "122453.656000", "122453.656000", "122453.656000", "122453.656000", "122453.656000", "122453.656000", "122453.656000", "122453.656000", "122453.671000", "122453.671000", "122513.609000", "122513.625000", "122513.625000", "122513.625000", "122513.625000", "122513.625000", "122513.625000", "122513.625000", "122513.640000", "122513.640000", "122513.640000", "122513.640000", "122513.640000", "122513.640000", "122513.640000", "122513.640000", "122513.656000", "122513.656000", "122513.656000", "122513.656000", "122513.656000", "122513.656000", "122513.656000", "122513.671000", "122513.671000", "122533.609000", "122533.625000", "122533.625000", "122533.625000", "122533.625000", "122533.625000", "122533.625000", "122533.625000", "122533.640000", "122533.640000", "122533.640000", "122533.640000", "122533.640000", "122533.640000", "122533.640000", "122533.656000", "122533.656000", "122533.656000", "122533.656000", "122533.656000", "122533.656000", "122533.656000", "122533.671000", "122533.671000", "122533.671000", "122533.671000", "122553.609000", "122553.625000", "122553.625000", "122553.625000", "122553.625000", "122553.625000", "122553.625000", "122553.625000", "122553.640000", "122553.640000", "122553.640000", "122553.640000", "122553.640000", "122553.640000", "122553.640000", "122553.640000", "122553.656000", "122553.656000", "122553.656000", "122553.656000", "122553.656000", "122553.656000", "122553.656000", "122553.671000", "122553.671000", "122613.609000", "122613.625000", "122613.625000", "122613.625000", "122613.625000", "122613.625000", "122613.625000", "122613.625000", "122613.625000", "122613.640000", "122613.640000", "122613.640000", "122613.640000", "122613.640000", "122613.640000", "122613.640000", "122613.656000", "122613.656000", "122613.656000", "122613.656000", "122613.656000", "122613.656000", "122613.656000", "122613.671000", "122613.671000", "122613.671000", "122633.609000", "122633.625000", "122633.625000", "122633.625000", "122633.625000", "122633.625000", "122633.625000", "122633.625000", "122633.625000", "122633.640000", "122633.640000", "122633.640000", "122633.640000", "122633.640000", "122633.640000", "122633.640000", "122633.656000", "122633.656000", "122633.656000", "122633.656000", "122633.656000", "122633.656000", "122633.656000", "122633.671000", "122633.671000", "122653.609000", "122653.625000", "122653.625000", "122653.625000", "122653.625000", "122653.625000", "122653.625000", "122653.625000", "122653.625000", "122653.640000", "122653.640000", "122653.640000", "122653.640000", "122653.640000", "122653.640000", "122653.656000", "122653.656000", "122653.656000", "122653.656000", "122653.656000", "122653.656000", "122653.656000", "122653.671000", "122653.671000", "122653.671000", "122713.609000", "122713.625000", "122713.625000", "122713.625000", "122713.625000", "122713.625000", "122713.625000", "122713.625000", "122713.640000", "122713.640000", "122713.640000", "122713.640000", "122713.640000", "122713.640000", "122713.640000", "122713.640000", "122713.656000", "122713.656000", "122713.656000", "122713.656000", "122713.656000", "122713.656000", "122713.656000", "122713.671000", "122713.671000", "122713.671000", "122733.609000", "122733.625000", "122733.625000", "122733.625000", "122733.625000", "122733.625000", "122733.625000", "122733.640000", "122733.640000", "122733.640000", "122733.640000", "122733.640000", "122733.640000", "122733.640000", "122733.656000", "122733.656000", "122733.656000", "122733.656000", "122733.656000", "122733.656000", "122733.656000", "122733.656000", "122733.671000", "122733.671000", "122733.671000", "122753.609000", "122753.625000", "122753.625000", "122753.625000", "122753.625000", "122753.625000", "122753.625000", "122753.625000", "122753.625000", "122753.640000", "122753.640000", "122753.640000", "122753.640000", "122753.640000", "122753.640000", "122753.640000", "122753.656000", "122753.656000", "122753.656000", "122753.656000", "122753.656000", "122753.656000", "122753.656000", "122753.656000", "122753.671000", "122753.671000", "122813.609000", "122813.625000", "122813.625000", "122813.625000", "122813.625000", "122813.625000", "122813.625000", "122813.625000", "122813.640000", "122813.640000", "122813.640000", "122813.656000", "122813.656000", "122813.656000", "122813.656000", "122813.656000", "122813.671000", "122813.671000", "122813.671000", "122813.671000", "122813.671000", "122813.671000", "122813.687000", "122813.687000", "122813.687000", "122833.609000", "122833.625000", "122833.625000", "122833.625000", "122833.625000", "122833.625000", "122833.625000", "122833.625000", "122833.640000", "122833.640000", "122833.640000", "122833.640000", "122833.640000", "122833.640000", "122833.640000", "122833.656000", "122833.656000", "122833.656000", "122833.656000", "122833.656000", "122833.656000", "122833.656000", "122833.656000", "122833.671000", "122833.671000", "122833.671000", "122853.609000", "122853.625000", "122853.625000", "122853.625000", "122853.625000", "122853.625000", "122853.625000", "122853.625000", "122853.640000", "122853.640000", "122853.640000", "122853.640000", "122853.640000", "122853.640000", "122853.640000", "122853.656000", "122853.656000", "122853.656000", "122853.656000", "122853.656000", "122853.656000", "122853.656000", "122853.671000", "122853.671000", "122853.671000", "122913.609000", "122913.625000", "122913.625000", "122913.625000", "122913.625000", "122913.625000", "122913.625000", "122913.625000", "122913.625000", "122913.640000", "122913.640000", "122913.640000", "122913.640000", "122913.640000", "122913.640000", "122913.640000", "122913.656000", "122913.656000", "122913.656000", "122913.656000", "122913.656000", "122913.656000", "122913.656000", "122913.656000", "122913.671000", "122913.671000", "122933.609000", "122933.625000", "122933.625000", "122933.625000", "122933.625000", "122933.625000", "122933.625000", "122933.625000", "122933.625000", "122933.640000", "122933.640000", "122933.640000", "122933.640000", "122933.656000", "122933.656000", "122933.656000", "122933.656000", "122933.656000", "122933.656000", "122933.656000", "122933.656000", "122933.671000", "122933.671000", "122933.671000", "122933.671000", "122953.609000", "122953.625000", "122953.625000", "122953.625000", "122953.625000", "122953.625000", "122953.625000", "122953.625000", "122953.640000", "122953.640000", "122953.640000", "122953.640000", "122953.640000", "122953.640000", "122953.640000", "122953.640000", "122953.656000", "122953.656000", "122953.656000", "122953.656000", "122953.656000", "122953.656000", "122953.671000", "122953.671000", "122953.671000", "122953.671000", "123013.609000", "123013.625000", "123013.625000", "123013.625000", "123013.625000", "123013.625000", "123013.625000", "123013.625000", "123013.625000", "123013.640000", "123013.640000", "123013.640000", "123013.640000", "123013.640000", "123013.640000", "123013.640000", "123013.656000", "123013.656000", "123013.656000", "123013.656000", "123013.656000", "123013.656000", "123013.656000", "123013.671000", "123013.671000", "123033.609000", "123033.625000", "123033.625000", "123033.625000", "123033.625000", "123033.625000", "123033.625000", "123033.625000", "123033.625000", "123033.640000", "123033.640000", "123033.640000", "123033.640000", "123033.640000", "123033.640000", "123033.640000", "123033.656000", "123033.656000", "123033.656000", "123033.656000", "123033.656000", "123033.656000", "123033.656000", "123033.656000", "123033.671000", "123033.671000", "123053.609000", "123053.625000", "123053.625000", "123053.625000", "123053.625000", "123053.625000", "123053.625000", "123053.625000", "123053.640000", "123053.640000", "123053.640000", "123053.640000", "123053.640000", "123053.640000", "123053.640000", "123053.640000", "123053.656000", "123053.656000", "123053.656000", "123053.656000", "123053.656000", "123053.671000", "123053.671000", "123053.671000", "123053.671000", "123100.171000", "123100.171000", "123100.187000", "123100.187000", "123100.187000", "123100.187000", "123100.187000", "123100.187000", "123100.187000"],
