{
  "AcquisitionMatrixPE": 104,
  "AcquisitionNumber": 1,
  "AcquisitionTime": "11:49:44.740000",
  "BandwidthPerPixelPhaseEncode": 13.935,
  "BaseResolution": 104,
  "CoilString": "C:HEA;HEP",
  "ConversionSoftware": "dcm2niix",
  "ConversionSoftwareVersion": "v1.0.20210317",
  "DerivedVendorReportedEchoSpacing": 0.000690017,
  "DeviceSerialNumber": "35450",
  "DwellTime": 2.5e-06,
  "EchoTime": 0.0348,
  "EffectiveEchoSpacing": 0.000690017,
  "FlipAngle": 55,
  "ImageComments": "Unaliased MB8/PE3 (remote)",
  "ImageOrientationPatientDICOM": [1, 0, 0, 0, 0.975149, -0.221548],
  "ImageType": [
    "ORIGINAL",
    "PRIMARY",
    "M",
    "MB",
    "ND",
    "MOSAIC"
],
  "ImagingFrequency": 123.234,
  "InPlanePhaseEncodingDirectionDICOM": "COL",
  "InstitutionAddress": "Univeristy Ave. 197,Newark,North East,US,07102-1814",
  "InstitutionName": "RUBIC",
  "InstitutionalDepartmentName": "Department",
  "MRAcquisitionType": "2D",
  "MagneticFieldStrength": 3,
  "Manufacturer": "Siemens",
  "ManufacturersModelName": "TrioTim",
  "Modality": "MR",
  "MultibandAccelerationFactor": 8,
  "PartialFourier": 0.875,
  "PatientPosition": "HFS",
  "PercentPhaseFOV": 100,
  "PercentSampling": 100,
  "PhaseEncodingDirection": "j-",
  "PhaseEncodingSteps": 91,
  "PhaseResolution": 1,
  "PixelBandwidth": 1923,
  "ProcedureStepDescription": "Cole^Michael",
  "ProtocolName": "cmrr_mbep2d_bold_2mm_MB8_Task_8x",
  "PulseSequenceDetails": "%CustomerSeq%\\cmrr_mbep2d_bold",
  "ReceiveCoilName": "32Ch_Head",
  "ReconMatrixPE": 104,
  "RepetitionTime": 0.785,
  "SAR": 0.127009,
  "ScanOptions": "PFP\\FS",
  "ScanningSequence": "EP",
  "SequenceName": "epfid2d1_104",
  "SequenceVariant": "SK\\SS",
  "SeriesDescription": "cmrr_mbep2d_bold_2mm_MB8_Task_8x",
  "SeriesNumber": 19,
  "ShimSetting": [2075, -364, -7263, 225, 220, -495, 72, 24],
  "SliceThickness": 2,
  "SliceTiming": [0, 0.4375, 0.0875, 0.525, 0.175, 0.6125, 0.2625, 0.7025, 0.35, 0, 0.4375, 0.0875, 0.525, 0.175, 0.6125, 0.2625, 0.7025, 0.35, 0, 0.4375, 0.0875, 0.525, 0.175, 0.6125, 0.2625, 0.7025, 0.35, 0, 0.4375, 0.0875, 0.525, 0.175, 0.6125, 0.2625, 0.7025, 0.35, 0, 0.4375, 0.0875, 0.525, 0.175, 0.6125, 0.2625, 0.7025, 0.35, 0, 0.4375, 0.0875, 0.525, 0.175, 0.6125, 0.2625, 0.7025, 0.35, 0, 0.4375, 0.0875, 0.525, 0.175, 0.6125, 0.2625, 0.7025, 0.35, 0, 0.4375, 0.0875, 0.525, 0.175, 0.6125, 0.2625, 0.7025, 0.35],
  "SoftwareVersions": "syngo MR B19",
  "SpacingBetweenSlices": 2,
  "StationName": "MRC35450",
  "TaskName": "cpro",
  "TotalReadoutTime": 0.0710717,
  "TxRefAmp": 456.615,
  "dcmmeta_affine": [
    [-2.0, 0.0, 0.0, 101.96610260009766],
    [0.0, 1.9502986669540405, -0.44309699535369873, -79.59001159667969],
    [0.0, 0.44309699535369873, 1.9502986669540405, -116.91829681396484],
    [0.0, 0.0, 0.0, 1.0]
],
  "dcmmeta_reorient_transform": [
    [0.0, -1.0, 0.0, 103.0],
    [1.0, 0.0, 0.0, 0.0],
    [0.0, 0.0, 1.0, 0.0],
    [0.0, 0.0, 0.0, 1.0]
],
  "dcmmeta_shape": [104, 104, 72, 581],
  "dcmmeta_slice_dim": 2,
  "dcmmeta_version": 0.6,
  "global": {
    "const": {
      "AcquisitionMatrix": [104, 0, 0, 104],
      "AngioFlag": "N",
      "BitsAllocated": 16,
      "BitsStored": 12,
      "Columns": 936,
      "EchoNumbers": 1,
      "EchoTime": 34.8,
      "EchoTrainLength": 1,
      "FlipAngle": 55.0,
      "HighBit": 11,
      "ImageOrientationPatient": [1.0, 0.0, 0.0, 0.0, 0.97514935362234, -0.2215485006267],
      "ImagePositionPatient": [-933.96610164642, -932.61501624295, 113.04904593961],
      "ImageType": [
        "ORIGINAL",
        "PRIMARY",
        "M",
        "MB",
        "ND",
        "MOSAIC"
],
      "ImagedNucleus": "1H",
      "ImagingFrequency": 123.234423,
      "InPlanePhaseEncodingDirection": "COL",
      "MRAcquisitionType": "2D",
      "MagneticFieldStrength": 3.0,
      "Manufacturer": "SIEMENS",
      "ManufacturerModelName": "TrioTim",
      "Modality": "MR",
      "NumberOfAverages": 1.0,
      "NumberOfPhaseEncodingSteps": 91,
      "PercentPhaseFieldOfView": 100.0,
      "PercentSampling": 100.0,
      "PerformedProcedureStepStartTime": "101946.203000",
      "PhotometricInterpretation": "MONOCHROME2",
      "PixelBandwidth": 1923.0,
      "PixelRepresentation": 0,
      "PixelSpacing": [2.0, 2.0],
      "ProtocolName": "cmrr_mbep2d_bold_2mm_MB8_Task_8x",
      "RepetitionTime": 785.0,
      "Rows": 936,
      "SAR": 0.12700902044393,
      "SamplesPerPixel": 1,
      "ScanOptions": [
        "PFP",
        "FS"
],
      "ScanningSequence": "EP",
      "SequenceName": "epfid2d1_104",
      "SequenceVariant": [
        "SK",
        "SS"
],
      "SeriesDescription": "cmrr_mbep2d_bold_2mm_MB8_Task_8x",
      "SeriesNumber": 19,
      "SeriesTime": "115021.562000",
      "SliceLocation": -96.37975443493,
      "SliceThickness": 2.0,
      "SmallestImagePixelValue": 0,
      "SoftwareVersions": "syngo MR B19",
      "SpacingBetweenSlices": 1.9999999740658,
      "SpecificCharacterSet": "ISO_IR 100",
      "StudyID": "1",
      "StudyTime": "101946.078000",
      "TransmitCoilName": "Body",
      "VariableFlipAngleFlag": "N",
      "WindowCenterWidthExplanation": "Algo1",
      "dBdt": 0.0},
    "slices": {}
  },
  "time": {
    "samples": {
      "AcquisitionNumber": [1, 2, 3, 4, 5, 6, 7, 8, 9, 10, 11, 12, 13, 14, 15, 16, 17, 18, 19, 20, 21, 22, 23, 24, 25, 26, 27, 28, 29, 30, 31, 32, 33, 34, 35, 36, 37, 38, 39, 40, 41, 42, 43, 44, 45, 46, 47, 48, 49, 50, 51, 52, 53, 54, 55, 56, 57, 58, 59, 60, 61, 62, 63, 64, 65, 66, 67, 68, 69, 70, 71, 72, 73, 74, 75, 76, 77, 78, 79, 80, 81, 82, 83, 84, 85, 86, 87, 88, 89, 90, 91, 92, 93, 94, 95, 96, 97, 98, 99, 100, 101, 102, 103, 104, 105, 106, 107, 108, 109, 110, 111, 112, 113, 114, 115, 116, 117, 118, 119, 120, 121, 122, 123, 124, 125, 126, 127, 128, 129, 130, 131, 132, 133, 134, 135, 136, 137, 138, 139, 140, 141, 142, 143, 144, 145, 146, 147, 148, 149, 150, 151, 152, 153, 154, 155, 156, 157, 158, 159, 160, 161, 162, 163, 164, 165, 166, 167, 168, 169, 170, 171, 172, 173, 174, 175, 176, 177, 178, 179, 180, 181, 182, 183, 184, 185, 186, 187, 188, 189, 190, 191, 192, 193, 194, 195, 196, 197, 198, 199, 200, 201, 202, 203, 204, 205, 206, 207, 208, 209, 210, 211, 212, 213, 214, 215, 216, 217, 218, 219, 220, 221, 222, 223, 224, 225, 226, 227, 228, 229, 230, 231, 232, 233, 234, 235, 236, 237, 238, 239, 240, 241, 242, 243, 244, 245, 246, 247, 248, 249, 250, 251, 252, 253, 254, 255, 256, 257, 258, 259, 260, 261, 262, 263, 264, 265, 266, 267, 268, 269, 270, 271, 272, 273, 274, 275, 276, 277, 278, 279, 280, 281, 282, 283, 284, 285, 286, 287, 288, 289, 290, 291, 292, 293, 294, 295, 296, 297, 298, 299, 300, 301, 302, 303, 304, 305, 306, 307, 308, 309, 310, 311, 312, 313, 314, 315, 316, 317, 318, 319, 320, 321, 322, 323, 324, 325, 326, 327, 328, 329, 330, 331, 332, 333, 334, 335, 336, 337, 338, 339, 340, 341, 342, 343, 344, 345, 346, 347, 348, 349, 350, 351, 352, 353, 354, 355, 356, 357, 358, 359, 360, 361, 362, 363, 364, 365, 366, 367, 368, 369, 370, 371, 372, 373, 374, 375, 376, 377, 378, 379, 380, 381, 382, 383, 384, 385, 386, 387, 388, 389, 390, 391, 392, 393, 394, 395, 396, 397, 398, 399, 400, 401, 402, 403, 404, 405, 406, 407, 408, 409, 410, 411, 412, 413, 414, 415, 416, 417, 418, 419, 420, 421, 422, 423, 424, 425, 426, 427, 428, 429, 430, 431, 432, 433, 434, 435, 436, 437, 438, 439, 440, 441, 442, 443, 444, 445, 446, 447, 448, 449, 450, 451, 452, 453, 454, 455, 456, 457, 458, 459, 460, 461, 462, 463, 464, 465, 466, 467, 468, 469, 470, 471, 472, 473, 474, 475, 476, 477, 478, 479, 480, 481, 482, 483, 484, 485, 486, 487, 488, 489, 490, 491, 492, 493, 494, 495, 496, 497, 498, 499, 500, 501, 502, 503, 504, 505, 506, 507, 508, 509, 510, 511, 512, 513, 514, 515, 516, 517, 518, 519, 520, 521, 522, 523, 524, 525, 526, 527, 528, 529, 530, 531, 532, 533, 534, 535, 536, 537, 538, 539, 540, 541, 542, 543, 544, 545, 546, 547, 548, 549, 550, 551, 552, 553, 554, 555, 556, 557, 558, 559, 560, 561, 562, 563, 564, 565, 566, 567, 568, 569, 570, 571, 572, 573, 574, 575, 576, 577, 578, 579, 580, 581],
      "AcquisitionTime": ["114944.740000", "114945.530000", "114946.317500", "114947.105000", "114947.892500", "114948.682500", "114949.470000", "114950.257500", "114951.045000", "114951.835000", "114952.622500", "114953.410000", "114954.200000", "114954.987500", "114955.775000", "114956.562500", "114957.352500", "114958.140000", "114958.927500", "114959.715000", "115000.505000", "115001.292500", "115002.080000", "115002.867500", "115003.657500", "115004.445000", "115005.232500", "115006.020000", "115006.810000", "115007.597500", "115008.385000", "115009.172500", "115009.962500", "115010.750000", "115011.537500", "115012.327500", "115013.115000", "115013.902500", "115014.690000", "115015.480000", "115016.267500", "115017.055000", "115017.842500", "115018.632500", "115019.420000", "115020.207500", "115020.995000", "115021.785000", "115022.572500", "115023.360000", "115024.147500", "115024.937500", "115025.725000", "115026.512500", "115027.302500", "115028.090000", "115028.877500", "115029.665000", "115030.455000", "115031.242500", "115032.030000", "115032.817500", "115033.607500", "115034.395000", "115035.182500", "115035.970000", "115036.760000", "115037.547500", "115038.335000", "115039.122500", "115039.912500", "115040.700000", "115041.487500", "115042.275000", "115043.065000", "115043.852500", "115044.640000", "115045.430000", "115046.217500", "115047.005000", "115047.792500", "115048.582500", "115049.370000", "115050.157500", "115050.945000", "115051.735000", "115052.522500", "115053.310000", "115054.097500", "115054.887500", "115055.675000", "115056.462500", "115057.250000", "115058.040000", "115058.827500", "115059.615000", "115100.402500", "115101.192500", "115101.980000", "115102.767500", "115103.557500", "115104.345000", "115105.132500", "115105.920000", "115106.710000", "115107.497500", "115108.285000", "115109.072500", "115109.862500", "115110.650000", "115111.437500", "115112.225000", "115113.015000", "115113.802500", "115114.590000", "115115.377500", "115116.167500", "115116.955000", "115117.742500", "115118.530000", "115119.320000", "115120.107500", "115120.895000", "115121.685000", "115122.472500", "115123.260000", "115124.047500", "115124.837500", "115125.625000", "115126.412500", "115127.200000", "115127.990000", "115128.777500", "115129.565000", "115130.352500", "115131.142500", "115131.930000", "115132.717500", "115133.505000", "115134.295000", "115135.082500", "115135.870000", "115136.657500", "115137.447500", "115138.235000", "115139.022500", "115139.812500", "115140.600000", "115141.387500", "115142.175000", "115142.965000", "115143.752500", "115144.540000", "115145.327500", "115146.117500", "115146.905000", "115147.692500", "115148.480000", "115149.270000", "115150.057500", "115150.845000", "115151.632500", "115152.422500", "115153.210000", "115153.997500", "115154.785000", "115155.575000", "115156.362500", "115157.150000", "115157.940000", "115158.727500", "115159.515000", "115200.302500", "115201.092500", "115201.880000", "115202.667500", "115203.455000", "115204.245000", "115205.032500", "115205.820000", "115206.607500", "115207.397500", "115208.185000", "115208.972500", "115209.760000", "115210.550000", "115211.337500", "115212.125000", "115212.912500", "115213.702500", "115214.490000", "115215.277500", "115216.067500", "115216.855000", "115217.642500", "115218.430000", "115219.220000", "115220.007500", "115220.795000", "115221.582500", "115222.372500", "115223.160000", "115223.947500", "115224.735000", "115225.525000", "115226.312500", "115227.100000", "115227.887500", "115228.677500", "115229.465000", "115230.252500", "115231.040000", "115231.830000", "115232.617500", "115233.405000", "115234.195000", "115234.982500", "115235.770000", "115236.557500", "115237.347500", "115238.135000", "115238.922500", "115239.710000", "115240.500000", "115241.287500", "115242.075000", "115242.862500", "115243.652500", "115244.440000", "115245.227500", "115246.015000", "115246.805000", "115247.592500", "115248.380000", "115249.167500", "115249.957500", "115250.745000", "115251.532500", "115252.322500", "115253.110000", "115253.897500", "115254.685000", "115255.475000", "115256.262500", "115257.050000", "115257.837500", "115258.627500", "115259.415000", "115300.202500", "115300.990000", "115301.780000", "115302.567500", "115303.355000", "115304.142500", "115304.932500", "115305.720000", "115306.507500", "115307.295000", "115308.085000", "115308.872500", "115309.660000", "115310.450000", "115311.237500", "115312.025000", "115312.812500", "115313.602500", "115314.390000", "115315.177500", "115315.965000", "115316.755000", "115317.542500", "115318.330000", "115319.117500", "115319.907500", "115320.695000", "115321.482500", "115322.270000", "115323.060000", "115323.847500", "115324.635000", "115325.422500", "115326.212500", "115327.000000", "115327.787500", "115328.577500", "115329.365000", "115330.152500", "115330.940000", "115331.730000", "115332.517500", "115333.305000", "115334.092500", "115334.882500", "115335.670000", "115336.457500", "115337.245000", "115338.035000", "115338.822500", "115339.610000", "115340.397500", "115341.187500", "115341.975000", "115342.762500", "115343.552500", "115344.340000", "115345.127500", "115345.915000", "115346.705000", "115347.492500", "115348.280000", "115349.067500", "115349.857500", "115350.645000", "115351.432500", "115352.220000", "115353.010000", "115353.797500", "115354.585000", "115355.372500", "115356.162500", "115356.950000", "115357.737500", "115358.525000", "115359.315000", "115400.102500", "115400.890000", "115401.680000", "115402.467500", "115403.255000", "115404.042500", "115404.832500", "115405.620000", "115406.407500", "115407.195000", "115407.985000", "115408.772500", "115409.560000", "115410.347500", "115411.137500", "115411.925000", "115412.712500", "115413.500000", "115414.290000", "115415.077500", "115415.865000", "115416.652500", "115417.442500", "115418.230000", "115419.017500", "115419.807500", "115420.595000", "115421.382500", "115422.170000", "115422.960000", "115423.747500", "115424.535000", "115425.322500", "115426.112500", "115426.900000", "115427.687500", "115428.475000", "115429.265000", "115430.052500", "115430.840000", "115431.627500", "115432.417500", "115433.205000", "115433.992500", "115434.780000", "115435.570000", "115436.357500", "115437.145000", "115437.935000", "115438.722500", "115439.510000", "115440.297500", "115441.087500", "115441.875000", "115442.662500", "115443.450000", "115444.240000", "115445.027500", "115445.815000", "115446.602500", "115447.392500", "115448.180000", "115448.967500", "115449.755000", "115450.545000", "115451.332500", "115452.120000", "115452.907500", "115453.697500", "115454.485000", "115455.272500", "115456.062500", "115456.850000", "115457.637500", "115458.425000", "115459.215000", "115500.002500", "115500.790000", "115501.577500", "115502.367500", "115503.155000", "115503.942500", "115504.730000", "115505.520000", "115506.307500", "115507.095000", "115507.882500", "115508.672500", "115509.460000", "115510.247500", "115511.035000", "115511.825000", "115512.612500", "115513.400000", "115514.190000", "115514.977500", "115515.765000", "115516.552500", "115517.342500", "115518.130000", "115518.917500", "115519.705000", "115520.495000", "115521.282500", "115522.070000", "115522.857500", "115523.647500", "115524.435000", "115525.222500", "115526.010000", "115526.800000", "115527.587500", "115528.375000", "115529.162500", "115529.952500", "115530.740000", "115531.527500", "115532.317500", "115533.105000", "115533.892500", "115534.680000", "115535.470000", "115536.257500", "115537.045000", "115537.832500", "115538.622500", "115539.410000", "115540.197500", "115540.985000", "115541.775000", "115542.562500", "115543.350000", "115544.137500", "115544.927500", "115545.715000", "115546.502500", "115547.290000", "115548.080000", "115548.867500", "115549.655000", "115550.445000", "115551.232500", "115552.020000", "115552.807500", "115553.597500", "115554.385000", "115555.172500", "115555.960000", "115556.750000", "115557.537500", "115558.325000", "115559.112500", "115559.902500", "115600.690000", "115601.477500", "115602.265000", "115603.055000", "115603.842500", "115604.630000", "115605.417500", "115606.207500", "115606.995000", "115607.782500", "115608.572500", "115609.360000", "115610.147500", "115610.935000", "115611.725000", "115612.512500", "115613.300000", "115614.087500", "115614.877500", "115615.665000", "115616.452500", "115617.240000", "115618.030000", "115618.817500", "115619.605000", "115620.392500", "115621.182500", "115621.970000", "115622.757500", "115623.545000", "115624.335000", "115625.122500", "115625.910000", "115626.700000", "115627.487500", "115628.275000", "115629.062500", "115629.852500", "115630.640000", "115631.427500", "115632.215000", "115633.005000", "115633.792500", "115634.580000", "115635.367500", "115636.157500", "115636.945000", "115637.732500", "115638.520000", "115639.310000", "115640.097500", "115640.885000", "115641.672500", "115642.462500", "115643.250000", "115644.037500", "115644.827500", "115645.615000", "115646.402500", "115647.190000", "115647.980000", "115648.767500", "115649.555000", "115650.342500", "115651.132500", "115651.920000", "115652.707500", "115653.495000", "115654.285000", "115655.072500", "115655.860000", "115656.647500", "115657.437500", "115658.225000", "115659.012500", "115659.802500", "115700.590000", "115701.377500", "115702.165000", "115702.955000", "115703.742500", "115704.530000", "115705.317500", "115706.107500", "115706.895000", "115707.682500", "115708.470000", "115709.260000", "115710.047500", "115710.835000", "115711.622500", "115712.412500", "115713.200000", "115713.987500", "115714.775000", "115715.565000", "115716.352500", "115717.140000", "115717.930000", "115718.717500", "115719.505000", "115720.292500", "115721.082500", "115721.870000"],
      "ContentTime": ["115021.562000", "115021.562000", "115021.562000", "115021.562000", "115021.562000", "115021.578000", "115021.578000", "115021.578000", "115021.578000", "115021.578000", "115021.578000", "115021.578000", "115021.593000", "115021.593000", "115021.593000", "115021.593000", "115021.593000", "115021.593000", "115021.609000", "115021.609000", "115021.609000", "115021.609000", "115021.609000", "115021.609000", "115021.609000", "115021.625000", "115021.625000", "115021.625000", "115021.625000", "115021.625000", "115021.640000", "115021.640000", "115021.640000", "115021.640000", "115021.640000", "115021.640000", "115021.640000", "115021.656000", "115021.656000", "115021.656000", "115021.656000", "115021.656000", "115021.656000", "115021.671000", "115041.531000", "115041.546000", "115041.546000", "115041.546000", "115041.546000", "115041.546000", "115041.546000", "115041.546000", "115041.546000", "115041.562000", "115041.562000", "115041.562000", "115041.562000", "115041.562000", "115041.562000", "115041.562000", "115041.578000", "115041.578000", "115041.578000", "115041.578000", "115041.578000", "115041.578000", "115041.578000", "115041.578000", "115041.593000", "115041.593000", "115101.531000", "115101.546000", "115101.546000", "115101.546000", "115101.546000", "115101.546000", "115101.546000", "115101.546000", "115101.562000", "115101.562000", "115101.562000", "115101.562000", "115101.562000", "115101.562000", "115101.562000", "115101.562000", "115101.578000", "115101.578000", "115101.578000", "115101.578000", "115101.578000", "115101.578000", "115101.578000", "115101.593000", "115101.593000", "115121.531000", "115121.546000", "115121.546000", "115121.546000", "115121.546000", "115121.546000", "115121.546000", "115121.546000", "115121.562000", "115121.562000", "115121.562000", "115121.562000", "115121.562000", "115121.562000", "115121.562000", "115121.578000", "115121.578000", "115121.578000", "115121.578000", "115121.578000", "115121.578000", "115121.578000", "115121.593000", "115121.593000", "115121.593000", "115121.593000", "115141.531000", "115141.546000", "115141.546000", "115141.546000", "115141.546000", "115141.546000", "115141.546000", "115141.546000", "115141.546000", "115141.562000", "115141.562000", "115141.562000", "115141.562000", "115141.578000", "115141.578000", "115141.578000", "115141.578000", "115141.578000", "115141.578000", "115141.578000", "115141.578000", "115141.593000", "115141.593000", "115141.593000", "115141.593000", "115201.531000", "115201.546000", "115201.546000", "115201.546000", "115201.546000", "115201.546000", "115201.546000", "115201.546000", "115201.546000", "115201.562000", "115201.562000", "115201.562000", "115201.562000", "115201.562000", "115201.562000", "115201.562000", "115201.578000", "115201.578000", "115201.578000", "115201.578000", "115201.578000", "115201.578000", "115201.578000", "115201.578000", "115201.593000", "115201.593000", "115221.531000", "115221.546000", "115221.546000", "115221.546000", "115221.546000", "115221.546000", "115221.546000", "115221.546000", "115221.546000", "115221.562000", "115221.562000", "115221.562000", "115221.562000", "115221.562000", "115221.562000", "115221.562000", "115221.578000", "115221.578000", "115221.578000", "115221.578000", "115221.578000", "115221.578000", "115221.578000", "115221.578000", "115221.593000", "115241.531000", "115241.546000", "115241.546000", "115241.546000", "115241.546000", "115241.546000", "115241.546000", "115241.562000", "115241.562000", "115241.562000", "115241.562000", "115241.562000", "115241.562000", "115241.578000", "115241.578000", "115241.578000", "115241.578000", "115241.578000", "115241.578000", "115241.578000", "115241.593000", "115241.593000", "115241.593000", "115241.593000", "115241.593000", "115241.593000", "115301.531000", "115301.546000", "115301.546000", "115301.546000", "115301.546000", "115301.546000", "115301.562000", "115301.562000", "115301.562000", "115301.562000", "115301.562000", "115301.562000", "115301.562000", "115301.562000", "115301.578000", "115301.578000", "115301.578000", "115301.578000", "115301.578000", "115301.578000", "115301.578000", "115301.578000", "115301.593000", "115301.593000", "115301.593000", "115321.531000", "115321.546000", "115321.546000", "115321.546000", "115321.546000", "115321.546000", "115321.546000", "115321.546000", "115321.562000", "115321.562000", "115321.562000", "115321.562000", "115321.562000", "115321.562000", "115321.562000", "115321.562000", "115321.578000", "115321.578000", "115321.578000", "115321.578000", "115321.578000", "115321.578000", "115321.593000", "115321.593000", "115321.593000", "115321.593000", "115341.531000", "115341.546000", "115341.546000", "115341.546000", "115341.546000", "115341.546000", "115341.546000", "115341.546000", "115341.562000", "115341.562000", "115341.562000", "115341.562000", "115341.562000", "115341.562000", "115341.562000", "115341.562000", "115341.578000", "115341.578000", "115341.578000", "115341.578000", "115341.578000", "115341.578000", "115341.578000", "115341.593000", "115341.593000", "115401.531000", "115401.546000", "115401.546000", "115401.546000", "115401.546000", "115401.546000", "115401.546000", "115401.546000", "115401.562000", "115401.562000", "115401.562000", "115401.562000", "115401.562000", "115401.562000", "115401.562000", "115401.578000", "115401.578000", "115401.578000", "115401.578000", "115401.578000", "115401.578000", "115401.578000", "115401.578000", "115401.593000", "115401.593000", "115401.593000", "115421.531000", "115421.546000", "115421.546000", "115421.546000", "115421.546000", "115421.546000", "115421.546000", "115421.546000", "115421.562000", "115421.562000", "115421.562000", "115421.562000", "115421.562000", "115421.562000", "115421.562000", "115421.562000", "115421.578000", "115421.578000", "115421.578000", "115421.578000", "115421.578000", "115421.578000", "115421.578000", "115421.578000", "115421.593000", "115441.531000", "115441.546000", "115441.546000", "115441.546000", "115441.546000", "115441.546000", "115441.546000", "115441.546000", "115441.562000", "115441.562000", "115441.562000", "115441.562000", "115441.562000", "115441.562000", "115441.562000", "115441.562000", "115441.578000", "115441.578000", "115441.578000", "115441.578000", "115441.578000", "115441.578000", "115441.578000", "115441.593000", "115441.593000", "115441.593000", "115501.531000", "115501.546000", "115501.546000", "115501.546000", "115501.546000", "115501.546000", "115501.546000", "115501.546000", "115501.562000", "115501.562000", "115501.562000", "115501.562000", "115501.562000", "115501.562000", "115501.562000", "115501.562000", "115501.578000", "115501.578000", "115501.578000", "115501.578000", "115501.578000", "115501.578000", "115501.578000", "115501.593000", "115501.593000", "115521.531000", "115521.546000", "115521.546000", "115521.546000", "115521.546000", "115521.546000", "115521.546000", "115521.546000", "115521.562000", "115521.562000", "115521.562000", "115521.562000", "115521.562000", "115521.562000", "115521.562000", "115521.562000", "115521.578000", "115521.578000", "115521.578000", "115521.578000", "115521.578000", "115521.593000", "115521.593000", "115521.593000", "115521.593000", "115541.531000", "115541.546000", "115541.546000", "115541.546000", "115541.546000", "115541.546000", "115541.546000", "115541.546000", "115541.562000", "115541.562000", "115541.562000", "115541.562000", "115541.562000", "115541.562000", "115541.562000", "115541.562000", "115541.578000", "115541.578000", "115541.578000", "115541.578000", "115541.578000", "115541.578000", "115541.578000", "115541.593000", "115541.593000", "115541.593000", "115601.531000", "115601.546000", "115601.546000", "115601.546000", "115601.546000", "115601.546000", "115601.546000", "115601.546000", "115601.562000", "115601.562000", "115601.562000", "115601.562000", "115601.562000", "115601.562000", "115601.562000", "115601.578000", "115601.578000", "115601.578000", "115601.578000", "115601.578000", "115601.578000", "115601.578000", "115601.593000", "115601.593000", "115601.593000", "115621.531000", "115621.546000", "115621.546000", "115621.546000", "115621.546000", "115621.546000", "115621.562000", "115621.562000", "115621.562000", "115621.562000", "115621.562000", "115621.562000", "115621.562000", "115621.562000", "115621.578000", "115621.578000", "115621.578000", "115621.578000", "115621.578000", "115621.578000", "115621.578000", "115621.593000", "115621.593000", "115621.593000", "115621.593000", "115621.593000", "115641.531000", "115641.546000", "115641.546000", "115641.546000", "115641.546000", "115641.546000", "115641.546000", "115641.546000", "115641.562000", "115641.562000", "115641.562000", "115641.562000", "115641.562000", "115641.578000", "115641.578000", "115641.578000", "115641.578000", "115641.578000", "115641.578000", "115641.578000", "115641.593000", "115641.593000", "115641.593000", "115641.593000", "115641.593000", "115701.531000", "115701.546000", "115701.546000", "115701.546000", "115701.546000", "115701.546000", "115701.546000", "115701.546000", "115701.562000", "115701.562000", "115701.562000", "115701.562000", "115701.562000", "115701.562000", "115701.562000", "115701.562000", "115701.578000", "115701.578000", "115701.578000", "115701.578000", "115701.578000", "115701.578000", "115701.578000", "115701.593000", "115701.593000", "115701.593000", "115721.531000", "115721.546000", "115721.546000", "115721.546000", "115721.546000", "115721.546000", "115721.546000", "115721.546000", "115721.562000", "115721.562000", "115721.562000", "115721.562000", "115721.578000", "115721.578000", "115721.578000", "115721.578000", "115721.578000", "115721.578000", "115721.578000", "115721.593000", "115721.593000", "115721.593000", "115721.593000", "115721.593000", "115721.609000", "115722.484000", "115722.484000"],
