{
  "AcquisitionMatrixPE": 104,
  "AcquisitionNumber": 1,
  "AcquisitionTime": "11:33:24.692500",
  "BandwidthPerPixelPhaseEncode": 13.935,
  "BaseResolution": 104,
  "CoilString": "C:HEA;HEP",
  "ConversionSoftware": "dcm2niix",
  "ConversionSoftwareVersion": "v1.0.20210317",
  "DerivedVendorReportedEchoSpacing": 0.000690017,
  "DeviceSerialNumber": "35450",
  "DwellTime": 2.5e-06,
  "EchoTime": 0.0348,
  "EffectiveEchoSpacing": 0.000690017,
  "FlipAngle": 55,
  "ImageComments": "Unaliased MB8/PE3 (remote)",
  "ImageOrientationPatientDICOM": [1, 0, 0, 0, 0.975149, -0.221548],
  "ImageType": [
    "ORIGINAL",
    "PRIMARY",
    "M",
    "MB",
    "ND",
    "MOSAIC"
],
  "ImagingFrequency": 123.234,
  "InPlanePhaseEncodingDirectionDICOM": "COL",
  "InstitutionAddress": "Univeristy Ave. 197,Newark,North East,US,07102-1814",
  "InstitutionName": "RUBIC",
  "InstitutionalDepartmentName": "Department",
  "MRAcquisitionType": "2D",
  "MagneticFieldStrength": 3,
  "Manufacturer": "Siemens",
  "ManufacturersModelName": "TrioTim",
  "Modality": "MR",
  "MultibandAccelerationFactor": 8,
  "PartialFourier": 0.875,
  "PatientPosition": "HFS",
  "PercentPhaseFOV": 100,
  "PercentSampling": 100,
  "PhaseEncodingDirection": "j-",
  "PhaseEncodingSteps": 91,
  "PhaseResolution": 1,
  "PixelBandwidth": 1923,
  "ProcedureStepDescription": "Cole^Michael",
  "ProtocolName": "cmrr_mbep2d_bold_2mm_MB8_Task_8x",
  "PulseSequenceDetails": "%CustomerSeq%\\cmrr_mbep2d_bold",
  "ReceiveCoilName": "32Ch_Head",
  "ReconMatrixPE": 104,
  "RepetitionTime": 0.785,
  "SAR": 0.127009,
  "ScanOptions": "PFP\\FS",
  "ScanningSequence": "EP",
  "SequenceName": "epfid2d1_104",
  "SequenceVariant": "SK\\SS",
  "SeriesDescription": "cmrr_mbep2d_bold_2mm_MB8_Task_8x",
  "SeriesNumber": 15,
  "ShimSetting": [2075, -364, -7263, 225, 220, -495, 72, 24],
  "SliceThickness": 2,
  "SliceTiming": [0, 0.4375, 0.0875, 0.525, 0.175, 0.6125, 0.2625, 0.7, 0.35, 0, 0.4375, 0.0875, 0.525, 0.175, 0.6125, 0.2625, 0.7, 0.35, 0, 0.4375, 0.0875, 0.525, 0.175, 0.6125, 0.2625, 0.7, 0.35, 0, 0.4375, 0.0875, 0.525, 0.175, 0.6125, 0.2625, 0.7, 0.35, 0, 0.4375, 0.0875, 0.525, 0.175, 0.6125, 0.2625, 0.7, 0.35, 0, 0.4375, 0.0875, 0.525, 0.175, 0.6125, 0.2625, 0.7, 0.35, 0, 0.4375, 0.0875, 0.525, 0.175, 0.6125, 0.2625, 0.7, 0.35, 0, 0.4375, 0.0875, 0.525, 0.175, 0.6125, 0.2625, 0.7, 0.35],
  "SoftwareVersions": "syngo MR B19",
  "SpacingBetweenSlices": 2,
  "StationName": "MRC35450",
  "TaskName": "cpro",
  "TotalReadoutTime": 0.0710717,
  "TxRefAmp": 456.615,
  "dcmmeta_affine": [
    [-2.0, 0.0, 0.0, 101.96610260009766],
    [0.0, 1.9502986669540405, -0.44309699535369873, -79.59001159667969],
    [0.0, 0.44309699535369873, 1.9502986669540405, -116.91829681396484],
    [0.0, 0.0, 0.0, 1.0]
],
  "dcmmeta_reorient_transform": [
    [0.0, -1.0, 0.0, 103.0],
    [1.0, 0.0, 0.0, 0.0],
    [0.0, 0.0, 1.0, 0.0],
    [0.0, 0.0, 0.0, 1.0]
],
  "dcmmeta_shape": [104, 104, 72, 581],
  "dcmmeta_slice_dim": 2,
  "dcmmeta_version": 0.6,
  "global": {
    "const": {
      "AcquisitionMatrix": [104, 0, 0, 104],
      "AngioFlag": "N",
      "BitsAllocated": 16,
      "BitsStored": 12,
      "Columns": 936,
      "EchoNumbers": 1,
      "EchoTime": 34.8,
      "EchoTrainLength": 1,
      "FlipAngle": 55.0,
      "HighBit": 11,
      "ImageOrientationPatient": [1.0, 0.0, 0.0, 0.0, 0.97514935362234, -0.2215485006267],
      "ImagePositionPatient": [-933.96610164642, -932.61501624295, 113.04904593961],
      "ImageType": [
        "ORIGINAL",
        "PRIMARY",
        "M",
        "MB",
        "ND",
        "MOSAIC"
],
      "ImagedNucleus": "1H",
      "ImagingFrequency": 123.234423,
      "InPlanePhaseEncodingDirection": "COL",
      "MRAcquisitionType": "2D",
      "MagneticFieldStrength": 3.0,
      "Manufacturer": "SIEMENS",
      "ManufacturerModelName": "TrioTim",
      "Modality": "MR",
      "NumberOfAverages": 1.0,
      "NumberOfPhaseEncodingSteps": 91,
      "PercentPhaseFieldOfView": 100.0,
      "PercentSampling": 100.0,
      "PerformedProcedureStepStartTime": "101946.203000",
      "PhotometricInterpretation": "MONOCHROME2",
      "PixelBandwidth": 1923.0,
      "PixelRepresentation": 0,
      "PixelSpacing": [2.0, 2.0],
      "ProtocolName": "cmrr_mbep2d_bold_2mm_MB8_Task_8x",
      "RepetitionTime": 785.0,
      "Rows": 936,
      "SAR": 0.12700902044393,
      "SamplesPerPixel": 1,
      "ScanOptions": [
        "PFP",
        "FS"
],
      "ScanningSequence": "EP",
      "SequenceName": "epfid2d1_104",
      "SequenceVariant": [
        "SK",
        "SS"
],
      "SeriesDescription": "cmrr_mbep2d_bold_2mm_MB8_Task_8x",
      "SeriesNumber": 15,
      "SeriesTime": "113353.640000",
      "SliceLocation": -96.37975443493,
      "SliceThickness": 2.0,
      "SmallestImagePixelValue": 0,
      "SoftwareVersions": "syngo MR B19",
      "SpacingBetweenSlices": 1.9999999740658,
      "SpecificCharacterSet": "ISO_IR 100",
      "StudyID": "1",
      "StudyTime": "101946.078000",
      "TransmitCoilName": "Body",
      "VariableFlipAngleFlag": "N",
      "WindowCenterWidthExplanation": "Algo1",
      "dBdt": 0.0},
    "slices": {}
  },
  "time": {
    "samples": {
      "AcquisitionNumber": [1, 2, 3, 4, 5, 6, 7, 8, 9, 10, 11, 12, 13, 14, 15, 16, 17, 18, 19, 20, 21, 22, 23, 24, 25, 26, 27, 28, 29, 30, 31, 32, 33, 34, 35, 36, 37, 38, 39, 40, 41, 42, 43, 44, 45, 46, 47, 48, 49, 50, 51, 52, 53, 54, 55, 56, 57, 58, 59, 60, 61, 62, 63, 64, 65, 66, 67, 68, 69, 70, 71, 72, 73, 74, 75, 76, 77, 78, 79, 80, 81, 82, 83, 84, 85, 86, 87, 88, 89, 90, 91, 92, 93, 94, 95, 96, 97, 98, 99, 100, 101, 102, 103, 104, 105, 106, 107, 108, 109, 110, 111, 112, 113, 114, 115, 116, 117, 118, 119, 120, 121, 122, 123, 124, 125, 126, 127, 128, 129, 130, 131, 132, 133, 134, 135, 136, 137, 138, 139, 140, 141, 142, 143, 144, 145, 146, 147, 148, 149, 150, 151, 152, 153, 154, 155, 156, 157, 158, 159, 160, 161, 162, 163, 164, 165, 166, 167, 168, 169, 170, 171, 172, 173, 174, 175, 176, 177, 178, 179, 180, 181, 182, 183, 184, 185, 186, 187, 188, 189, 190, 191, 192, 193, 194, 195, 196, 197, 198, 199, 200, 201, 202, 203, 204, 205, 206, 207, 208, 209, 210, 211, 212, 213, 214, 215, 216, 217, 218, 219, 220, 221, 222, 223, 224, 225, 226, 227, 228, 229, 230, 231, 232, 233, 234, 235, 236, 237, 238, 239, 240, 241, 242, 243, 244, 245, 246, 247, 248, 249, 250, 251, 252, 253, 254, 255, 256, 257, 258, 259, 260, 261, 262, 263, 264, 265, 266, 267, 268, 269, 270, 271, 272, 273, 274, 275, 276, 277, 278, 279, 280, 281, 282, 283, 284, 285, 286, 287, 288, 289, 290, 291, 292, 293, 294, 295, 296, 297, 298, 299, 300, 301, 302, 303, 304, 305, 306, 307, 308, 309, 310, 311, 312, 313, 314, 315, 316, 317, 318, 319, 320, 321, 322, 323, 324, 325, 326, 327, 328, 329, 330, 331, 332, 333, 334, 335, 336, 337, 338, 339, 340, 341, 342, 343, 344, 345, 346, 347, 348, 349, 350, 351, 352, 353, 354, 355, 356, 357, 358, 359, 360, 361, 362, 363, 364, 365, 366, 367, 368, 369, 370, 371, 372, 373, 374, 375, 376, 377, 378, 379, 380, 381, 382, 383, 384, 385, 386, 387, 388, 389, 390, 391, 392, 393, 394, 395, 396, 397, 398, 399, 400, 401, 402, 403, 404, 405, 406, 407, 408, 409, 410, 411, 412, 413, 414, 415, 416, 417, 418, 419, 420, 421, 422, 423, 424, 425, 426, 427, 428, 429, 430, 431, 432, 433, 434, 435, 436, 437, 438, 439, 440, 441, 442, 443, 444, 445, 446, 447, 448, 449, 450, 451, 452, 453, 454, 455, 456, 457, 458, 459, 460, 461, 462, 463, 464, 465, 466, 467, 468, 469, 470, 471, 472, 473, 474, 475, 476, 477, 478, 479, 480, 481, 482, 483, 484, 485, 486, 487, 488, 489, 490, 491, 492, 493, 494, 495, 496, 497, 498, 499, 500, 501, 502, 503, 504, 505, 506, 507, 508, 509, 510, 511, 512, 513, 514, 515, 516, 517, 518, 519, 520, 521, 522, 523, 524, 525, 526, 527, 528, 529, 530, 531, 532, 533, 534, 535, 536, 537, 538, 539, 540, 541, 542, 543, 544, 545, 546, 547, 548, 549, 550, 551, 552, 553, 554, 555, 556, 557, 558, 559, 560, 561, 562, 563, 564, 565, 566, 567, 568, 569, 570, 571, 572, 573, 574, 575, 576, 577, 578, 579, 580, 581],
      "AcquisitionTime": ["113324.692500", "113325.480000", "113326.270000", "113327.057500", "113327.845000", "113328.632500", "113329.422500", "113330.210000", "113330.997500", "113331.787500", "113332.575000", "113333.362500", "113334.150000", "113334.940000", "113335.727500", "113336.515000", "113337.302500", "113338.092500", "113338.880000", "113339.667500", "113340.455000", "113341.245000", "113342.032500", "113342.820000", "113343.607500", "113344.397500", "113345.185000", "113345.972500", "113346.760000", "113347.550000", "113348.337500", "113349.125000", "113349.915000", "113350.702500", "113351.490000", "113352.277500", "113353.067500", "113353.855000", "113354.642500", "113355.430000", "113356.220000", "113357.007500", "113357.795000", "113358.582500", "113359.372500", "113400.160000", "113400.947500", "113401.735000", "113402.525000", "113403.312500", "113404.100000", "113404.887500", "113405.677500", "113406.465000", "113407.252500", "113408.042500", "113408.830000", "113409.617500", "113410.405000", "113411.195000", "113411.982500", "113412.770000", "113413.557500", "113414.347500", "113415.135000", "113415.922500", "113416.710000", "113417.500000", "113418.287500", "113419.075000", "113419.862500", "113420.652500", "113421.440000", "113422.227500", "113423.015000", "113423.805000", "113424.592500", "113425.380000", "113426.170000", "113426.957500", "113427.745000", "113428.532500", "113429.322500", "113430.110000", "113430.897500", "113431.685000", "113432.475000", "113433.262500", "113434.050000", "113434.837500", "113435.627500", "113436.415000", "113437.202500", "113437.990000", "113438.780000", "113439.567500", "113440.355000", "113441.142500", "113441.932500", "113442.720000", "113443.507500", "113444.297500", "113445.085000", "113445.872500", "113446.660000", "113447.450000", "113448.237500", "113449.025000", "113449.812500", "113450.602500", "113451.390000", "113452.177500", "113452.965000", "113453.755000", "113454.542500", "113455.330000", "113456.117500", "113456.907500", "113457.695000", "113458.482500", "113459.270000", "113500.060000", "113500.847500", "113501.635000", "113502.425000", "113503.212500", "113504.000000", "113504.787500", "113505.577500", "113506.365000", "113507.152500", "113507.940000", "113508.730000", "113509.517500", "113510.305000", "113511.092500", "113511.882500", "113512.670000", "113513.457500", "113514.245000", "113515.035000", "113515.822500", "113516.610000", "113517.397500", "113518.187500", "113518.975000", "113519.762500", "113520.552500", "113521.340000", "113522.127500", "113522.915000", "113523.705000", "113524.492500", "113525.280000", "113526.067500", "113526.857500", "113527.645000", "113528.432500", "113529.220000", "113530.010000", "113530.797500", "113531.585000", "113532.372500", "113533.162500", "113533.950000", "113534.737500", "113535.525000", "113536.315000", "113537.102500", "113537.890000", "113538.680000", "113539.467500", "113540.255000", "113541.042500", "113541.832500", "113542.620000", "113543.407500", "113544.195000", "113544.985000", "113545.772500", "113546.560000", "113547.347500", "113548.137500", "113548.925000", "113549.712500", "113550.500000", "113551.290000", "113552.077500", "113552.865000", "113553.652500", "113554.442500", "113555.230000", "113556.017500", "113556.807500", "113557.595000", "113558.382500", "113559.170000", "113559.960000", "113600.747500", "113601.535000", "113602.322500", "113603.112500", "113603.900000", "113604.687500", "113605.475000", "113606.265000", "113607.052500", "113607.840000", "113608.627500", "113609.417500", "113610.205000", "113610.992500", "113611.782500", "113612.570000", "113613.357500", "113614.145000", "113614.935000", "113615.722500", "113616.510000", "113617.297500", "113618.087500", "113618.875000", "113619.662500", "113620.450000", "113621.240000", "113622.027500", "113622.815000", "113623.602500", "113624.392500", "113625.180000", "113625.967500", "113626.755000", "113627.545000", "113628.332500", "113629.120000", "113629.910000", "113630.697500", "113631.485000", "113632.272500", "113633.062500", "113633.850000", "113634.637500", "113635.425000", "113636.215000", "113637.002500", "113637.790000", "113638.577500", "113639.367500", "113640.155000", "113640.942500", "113641.730000", "113642.520000", "113643.307500", "113644.095000", "113644.882500", "113645.672500", "113646.460000", "113647.247500", "113648.037500", "113648.825000", "113649.612500", "113650.400000", "113651.190000", "113651.977500", "113652.765000", "113653.552500", "113654.342500", "113655.130000", "113655.917500", "113656.705000", "113657.495000", "113658.282500", "113659.070000", "113659.857500", "113700.647500", "113701.435000", "113702.222500", "113703.010000", "113703.800000", "113704.587500", "113705.375000", "113706.165000", "113706.952500", "113707.740000", "113708.527500", "113709.317500", "113710.105000", "113710.892500", "113711.680000", "113712.470000", "113713.257500", "113714.045000", "113714.832500", "113715.622500", "113716.410000", "113717.197500", "113717.985000", "113718.775000", "113719.562500", "113720.350000", "113721.137500", "113721.927500", "113722.715000", "113723.502500", "113724.292500", "113725.080000", "113725.867500", "113726.655000", "113727.445000", "113728.232500", "113729.020000", "113729.807500", "113730.597500", "113731.385000", "113732.172500", "113732.960000", "113733.750000", "113734.537500", "113735.325000", "113736.112500", "113736.902500", "113737.690000", "113738.477500", "113739.265000", "113740.055000", "113740.842500", "113741.630000", "113742.420000", "113743.207500", "113743.995000", "113744.782500", "113745.572500", "113746.360000", "113747.147500", "113747.935000", "113748.725000", "113749.512500", "113750.300000", "113751.087500", "113751.877500", "113752.665000", "113753.452500", "113754.240000", "113755.030000", "113755.817500", "113756.605000", "113757.392500", "113758.182500", "113758.970000", "113759.757500", "113800.547500", "113801.335000", "113802.122500", "113802.910000", "113803.700000", "113804.487500", "113805.275000", "113806.062500", "113806.852500", "113807.640000", "113808.427500", "113809.215000", "113810.005000", "113810.792500", "113811.580000", "113812.367500", "113813.157500", "113813.945000", "113814.732500", "113815.520000", "113816.310000", "113817.097500", "113817.885000", "113818.675000", "113819.462500", "113820.250000", "113821.037500", "113821.827500", "113822.615000", "113823.402500", "113824.190000", "113824.980000", "113825.767500", "113826.555000", "113827.342500", "113828.132500", "113828.920000", "113829.707500", "113830.495000", "113831.285000", "113832.072500", "113832.860000", "113833.647500", "113834.437500", "113835.225000", "113836.012500", "113836.802500", "113837.590000", "113838.377500", "113839.165000", "113839.955000", "113840.742500", "113841.530000", "113842.317500", "113843.107500", "113843.895000", "113844.682500", "113845.470000", "113846.260000", "113847.047500", "113847.835000", "113848.622500", "113849.412500", "113850.200000", "113850.987500", "113851.775000", "113852.565000", "113853.352500", "113854.140000", "113854.930000", "113855.717500", "113856.505000", "113857.292500", "113858.082500", "113858.870000", "113859.657500", "113900.445000", "113901.235000", "113902.022500", "113902.810000", "113903.597500", "113904.387500", "113905.175000", "113905.962500", "113906.750000", "113907.540000", "113908.327500", "113909.115000", "113909.902500", "113910.692500", "113911.480000", "113912.267500", "113913.057500", "113913.845000", "113914.632500", "113915.420000", "113916.210000", "113916.997500", "113917.785000", "113918.572500", "113919.362500", "113920.150000", "113920.937500", "113921.725000", "113922.515000", "113923.302500", "113924.090000", "113924.877500", "113925.667500", "113926.455000", "113927.242500", "113928.032500", "113928.820000", "113929.607500", "113930.395000", "113931.185000", "113931.972500", "113932.760000", "113933.547500", "113934.337500", "113935.125000", "113935.912500", "113936.700000", "113937.490000", "113938.277500", "113939.065000", "113939.852500", "113940.642500", "113941.430000", "113942.217500", "113943.005000", "113943.795000", "113944.582500", "113945.370000", "113946.160000", "113946.947500", "113947.735000", "113948.522500", "113949.312500", "113950.100000", "113950.887500", "113951.675000", "113952.465000", "113953.252500", "113954.040000", "113954.827500", "113955.617500", "113956.405000", "113957.192500", "113957.980000", "113958.770000", "113959.557500", "114000.345000", "114001.132500", "114001.922500", "114002.710000", "114003.497500", "114004.287500", "114005.075000", "114005.862500", "114006.650000", "114007.440000", "114008.227500", "114009.015000", "114009.802500", "114010.592500", "114011.380000", "114012.167500", "114012.955000", "114013.745000", "114014.532500", "114015.320000", "114016.107500", "114016.897500", "114017.685000", "114018.472500", "114019.260000", "114020.050000", "114020.837500", "114021.625000", "114022.415000", "114023.202500", "114023.990000", "114024.777500", "114025.567500", "114026.355000", "114027.142500", "114027.930000", "114028.720000", "114029.507500", "114030.295000", "114031.082500", "114031.872500", "114032.660000", "114033.447500", "114034.235000", "114035.025000", "114035.812500", "114036.600000", "114037.387500", "114038.177500", "114038.965000", "114039.752500", "114040.542500", "114041.330000", "114042.117500", "114042.905000", "114043.695000", "114044.482500", "114045.270000", "114046.057500", "114046.847500", "114047.635000", "114048.422500", "114049.210000", "114050.000000", "114050.787500", "114051.575000", "114052.362500", "114053.152500", "114053.940000", "114054.727500", "114055.515000", "114056.305000", "114057.092500", "114057.880000", "114058.670000", "114059.457500", "114100.245000", "114101.032500", "114101.822500"],
      "ContentTime": ["113353.640000", "113353.640000", "113353.656000", "113353.656000", "113353.656000", "113353.656000", "113353.656000", "113353.656000", "113353.656000", "113353.656000", "113353.671000", "113353.671000", "113353.671000", "113353.671000", "113353.671000", "113353.671000", "113353.671000", "113353.687000", "113353.687000", "113353.687000", "113353.687000", "113353.687000", "113353.687000", "113353.687000", "113353.687000", "113353.703000", "113353.703000", "113353.703000", "113353.703000", "113353.703000", "113353.703000", "113353.703000", "113353.718000", "113353.718000", "113353.718000", "113413.609000", "113413.625000", "113413.625000", "113413.625000", "113413.625000", "113413.625000", "113413.625000", "113413.625000", "113413.625000", "113413.640000", "113413.640000", "113413.640000", "113413.640000", "113413.640000", "113413.640000", "113413.640000", "113413.656000", "113413.656000", "113413.656000", "113413.671000", "113413.671000", "113413.671000", "113413.671000", "113413.671000", "113413.671000", "113433.609000", "113433.625000", "113433.625000", "113433.625000", "113433.625000", "113433.625000", "113433.625000", "113433.625000", "113433.625000", "113433.640000", "113433.640000", "113433.640000", "113433.640000", "113433.640000", "113433.640000", "113433.640000", "113433.656000", "113433.656000", "113433.656000", "113433.656000", "113433.656000", "113433.656000", "113433.656000", "113433.671000", "113433.671000", "113433.671000", "113453.609000", "113453.625000", "113453.625000", "113453.625000", "113453.625000", "113453.625000", "113453.625000", "113453.625000", "113453.640000", "113453.640000", "113453.640000", "113453.640000", "113453.640000", "113453.640000", "113453.640000", "113453.656000", "113453.656000", "113453.656000", "113453.656000", "113453.656000", "113453.656000", "113453.656000", "113453.656000", "113453.671000", "113453.671000", "113513.609000", "113513.625000", "113513.625000", "113513.625000", "113513.625000", "113513.625000", "113513.625000", "113513.625000", "113513.640000", "113513.640000", "113513.640000", "113513.640000", "113513.640000", "113513.640000", "113513.656000", "113513.656000", "113513.656000", "113513.656000", "113513.656000", "113513.656000", "113513.671000", "113513.671000", "113513.671000", "113513.671000", "113513.671000", "113513.671000", "113533.609000", "113533.625000", "113533.625000", "113533.625000", "113533.625000", "113533.625000", "113533.625000", "113533.625000", "113533.640000", "113533.640000", "113533.640000", "113533.640000", "113533.640000", "113533.640000", "113533.640000", "113533.640000", "113533.656000", "113533.656000", "113533.656000", "113533.656000", "113533.656000", "113533.656000", "113533.656000", "113533.671000", "113533.671000", "113553.609000", "113553.625000", "113553.625000", "113553.625000", "113553.625000", "113553.625000", "113553.625000", "113553.625000", "113553.640000", "113553.640000", "113553.640000", "113553.640000", "113553.640000", "113553.640000", "113553.640000", "113553.656000", "113553.656000", "113553.656000", "113553.656000", "113553.656000", "113553.656000", "113553.656000", "113553.671000", "113553.671000", "113553.671000", "113553.671000", "113613.609000", "113613.625000", "113613.625000", "113613.625000", "113613.625000", "113613.625000", "113613.625000", "113613.625000", "113613.625000", "113613.640000", "113613.640000", "113613.640000", "113613.640000", "113613.640000", "113613.640000", "113613.640000", "113613.656000", "113613.656000", "113613.656000", "113613.656000", "113613.656000", "113613.656000", "113613.656000", "113613.671000", "113613.671000", "113633.609000", "113633.625000", "113633.625000", "113633.625000", "113633.625000", "113633.625000", "113633.625000", "113633.625000", "113633.640000", "113633.640000", "113633.640000", "113633.640000", "113633.640000", "113633.640000", "113633.656000", "113633.656000", "113633.656000", "113633.656000", "113633.656000", "113633.656000", "113633.656000", "113633.671000", "113633.671000", "113633.671000", "113633.671000", "113653.609000", "113653.625000", "113653.625000", "113653.625000", "113653.625000", "113653.625000", "113653.625000", "113653.625000", "113653.625000", "113653.640000", "113653.640000", "113653.640000", "113653.640000", "113653.640000", "113653.640000", "113653.640000", "113653.656000", "113653.656000", "113653.656000", "113653.656000", "113653.656000", "113653.656000", "113653.656000", "113653.671000", "113653.671000", "113653.671000", "113713.609000", "113713.625000", "113713.625000", "113713.625000", "113713.640000", "113713.640000", "113713.640000", "113713.640000", "113713.640000", "113713.640000", "113713.640000", "113713.656000", "113713.656000", "113713.656000", "113713.656000", "113713.656000", "113713.656000", "113713.656000", "113713.656000", "113713.671000", "113713.671000", "113713.671000", "113713.671000", "113713.671000", "113713.687000", "113733.609000", "113733.625000", "113733.625000", "113733.625000", "113733.625000", "113733.625000", "113733.640000", "113733.640000", "113733.640000", "113733.640000", "113733.640000", "113733.656000", "113733.656000", "113733.656000", "113733.656000", "113733.656000", "113733.656000", "113733.656000", "113733.671000", "113733.671000", "113733.671000", "113733.671000", "113733.671000", "113733.671000", "113733.671000", "113733.687000", "113753.609000", "113753.625000", "113753.625000", "113753.625000", "113753.625000", "113753.625000", "113753.640000", "113753.640000", "113753.640000", "113753.640000", "113753.640000", "113753.640000", "113753.640000", "113753.640000", "113753.656000", "113753.656000", "113753.656000", "113753.656000", "113753.656000", "113753.671000", "113753.671000", "113753.671000", "113753.671000", "113753.671000", "113753.671000", "113813.609000", "113813.625000", "113813.625000", "113813.625000", "113813.625000", "113813.625000", "113813.625000", "113813.640000", "113813.640000", "113813.640000", "113813.640000", "113813.640000", "113813.640000", "113813.656000", "113813.656000", "113813.656000", "113813.656000", "113813.656000", "113813.656000", "113813.656000", "113813.656000", "113813.671000", "113813.671000", "113813.671000", "113813.671000", "113813.671000", "113833.609000", "113833.625000", "113833.625000", "113833.625000", "113833.625000", "113833.625000", "113833.625000", "113833.625000", "113833.625000", "113833.640000", "113833.640000", "113833.640000", "113833.640000", "113833.640000", "113833.640000", "113833.640000", "113833.656000", "113833.656000", "113833.656000", "113833.656000", "113833.656000", "113833.656000", "113833.656000", "113833.656000", "113833.671000", "113853.609000", "113853.625000", "113853.625000", "113853.625000", "113853.625000", "113853.625000", "113853.625000", "113853.625000", "113853.625000", "113853.640000", "113853.640000", "113853.640000", "113853.640000", "113853.640000", "113853.656000", "113853.656000", "113853.656000", "113853.656000", "113853.656000", "113853.656000", "113853.656000", "113853.671000", "113853.671000", "113853.671000", "113853.671000", "113853.671000", "113913.609000", "113913.625000", "113913.625000", "113913.625000", "113913.625000", "113913.625000", "113913.625000", "113913.640000", "113913.640000", "113913.640000", "113913.640000", "113913.640000", "113913.640000", "113913.640000", "113913.656000", "113913.656000", "113913.656000", "113913.656000", "113913.656000", "113913.656000", "113913.656000", "113913.656000", "113913.671000", "113913.671000", "113913.671000", "113933.609000", "113933.625000", "113933.625000", "113933.625000", "113933.625000", "113933.625000", "113933.625000", "113933.625000", "113933.625000", "113933.640000", "113933.640000", "113933.640000", "113933.640000", "113933.640000", "113933.640000", "113933.640000", "113933.656000", "113933.656000", "113933.656000", "113933.656000", "113933.656000", "113933.656000", "113933.656000", "113933.671000", "113933.671000", "113933.671000", "113953.609000", "113953.625000", "113953.625000", "113953.625000", "113953.625000", "113953.625000", "113953.625000", "113953.625000", "113953.625000", "113953.640000", "113953.640000", "113953.640000", "113953.640000", "113953.640000", "113953.640000", "113953.656000", "113953.656000", "113953.656000", "113953.656000", "113953.656000", "113953.671000", "113953.671000", "113953.671000", "113953.671000", "113953.671000", "114013.609000", "114013.625000", "114013.625000", "114013.625000", "114013.625000", "114013.625000", "114013.625000", "114013.625000", "114013.640000", "114013.640000", "114013.640000", "114013.640000", "114013.640000", "114013.640000", "114013.640000", "114013.640000", "114013.656000", "114013.656000", "114013.656000", "114013.656000", "114013.656000", "114013.656000", "114013.671000", "114013.671000", "114013.671000", "114013.671000", "114033.609000", "114033.625000", "114033.625000", "114033.625000", "114033.625000", "114033.625000", "114033.625000", "114033.640000", "114033.640000", "114033.640000", "114033.640000", "114033.640000", "114033.640000", "114033.656000", "114033.656000", "114033.656000", "114033.656000", "114033.656000", "114033.656000", "114033.656000", "114033.671000", "114033.671000", "114033.671000", "114033.671000", "114033.671000", "114053.609000", "114053.625000", "114053.625000", "114053.625000", "114053.625000", "114053.625000", "114053.625000", "114053.625000", "114053.625000", "114053.640000", "114053.640000", "114053.640000", "114053.640000", "114053.640000", "114053.640000", "114053.640000", "114053.656000", "114053.656000", "114053.656000", "114053.656000", "114053.656000", "114053.656000", "114053.656000", "114053.671000", "114053.671000", "114053.671000", "114102.187000", "114102.187000", "114102.187000", "114102.203000", "114102.203000", "114102.203000", "114102.203000", "114102.203000", "114102.203000", "114102.203000", "114102.218000"],
