{
  "AcquisitionMatrixPE": 104,
  "AcquisitionNumber": 1,
  "AcquisitionTime": "14:58:40.725000",
  "BandwidthPerPixelPhaseEncode": 13.935,
  "BaseResolution": 104,
  "CoilString": "C:HEA;HEP",
  "ConversionSoftware": "dcm2niix",
  "ConversionSoftwareVersion": "v1.0.20210317",
  "DerivedVendorReportedEchoSpacing": 0.000690017,
  "DeviceSerialNumber": "35450",
  "DwellTime": 2.5e-06,
  "EchoTime": 0.0348,
  "EffectiveEchoSpacing": 0.000690017,
  "FlipAngle": 55,
  "ImageComments": "Unaliased MB8/PE3",
  "ImageOrientationPatientDICOM": [0.999977, -0.00146741, 0.00667432, -6.77069e-08, 0.976671, 0.21474],
  "ImageType": [
    "ORIGINAL",
    "PRIMARY",
    "M",
    "MB",
    "ND",
    "MOSAIC"
],
  "ImagingFrequency": 123.235,
  "InPlanePhaseEncodingDirectionDICOM": "COL",
  "InstitutionAddress": "Univeristy Ave. 197,Newark,North East,US,07102-1814",
  "InstitutionName": "RUBIC",
  "InstitutionalDepartmentName": "Department",
  "MRAcquisitionType": "2D",
  "MagneticFieldStrength": 3,
  "Manufacturer": "Siemens",
  "ManufacturersModelName": "TrioTim",
  "Modality": "MR",
  "MultibandAccelerationFactor": 8,
  "PartialFourier": 0.875,
  "PatientPosition": "HFS",
  "PercentPhaseFOV": 100,
  "PercentSampling": 100,
  "PhaseEncodingDirection": "j-",
  "PhaseEncodingSteps": 91,
  "PhaseResolution": 1,
  "PixelBandwidth": 1923,
  "ProcedureStepDescription": "Cole^Michael",
  "ProtocolName": "cmrr_mbep2d_bold_2mm_MB8_Task_8x",
  "PulseSequenceDetails": "%CustomerSeq%\\cmrr_mbep2d_bold",
  "ReceiveCoilName": "32Ch_Head",
  "ReconMatrixPE": 104,
  "RepetitionTime": 0.785,
  "SAR": 0.110865,
  "ScanOptions": "PFP\\FS",
  "ScanningSequence": "EP",
  "SequenceName": "epfid2d1_104",
  "SequenceVariant": "SK\\SS",
  "SeriesDescription": "cmrr_mbep2d_bold_2mm_MB8_Task_8x",
  "SeriesNumber": 15,
  "ShimSetting": [2140, -501, -7271, 583, -109, -1022, 214, -14],
  "SliceThickness": 2,
  "SliceTiming": [0, 0.4375, 0.0875, 0.525, 0.175, 0.6125, 0.2625, 0.7, 0.35, 0, 0.4375, 0.0875, 0.525, 0.175, 0.6125, 0.2625, 0.7, 0.35, 0, 0.4375, 0.0875, 0.525, 0.175, 0.6125, 0.2625, 0.7, 0.35, 0, 0.4375, 0.0875, 0.525, 0.175, 0.6125, 0.2625, 0.7, 0.35, 0, 0.4375, 0.0875, 0.525, 0.175, 0.6125, 0.2625, 0.7, 0.35, 0, 0.4375, 0.0875, 0.525, 0.175, 0.6125, 0.2625, 0.7, 0.35, 0, 0.4375, 0.0875, 0.525, 0.175, 0.6125, 0.2625, 0.7, 0.35, 0, 0.4375, 0.0875, 0.525, 0.175, 0.6125, 0.2625, 0.7, 0.35],
  "SoftwareVersions": "syngo MR B19",
  "SpacingBetweenSlices": 2,
  "StationName": "MRC35450",
  "TaskName": "cpro",
  "TotalReadoutTime": 0.0710717,
  "TxRefAmp": 314.489,
  "dcmmeta_affine": [
    [-1.999953269958496, -1.3541389876081666e-07, 0.013667447492480278, 102.15644836425781],
    [0.002934816526249051, 1.9533424377441406, 0.42947015166282654, -87.62615203857422],
    [0.01334863156080246, -0.4294801950454712, 1.9532968997955322, -55.25704574584961],
    [0.0, 0.0, 0.0, 1.0]
],
  "dcmmeta_reorient_transform": [
    [0.0, -1.0, 0.0, 103.0],
    [1.0, 0.0, 0.0, 0.0],
    [0.0, 0.0, 1.0, 0.0],
    [0.0, 0.0, 0.0, 1.0]
],
  "dcmmeta_shape": [104, 104, 72, 581],
  "dcmmeta_slice_dim": 2,
  "dcmmeta_version": 0.6,
  "global": {
    "const": {
      "AcquisitionMatrix": [104, 0, 0, 104],
      "AngioFlag": "N",
      "BitsAllocated": 16,
      "BitsStored": 12,
      "Columns": 936,
      "EchoNumbers": 1,
      "EchoTime": 34.8,
      "EchoTrainLength": 1,
      "FlipAngle": 55.0,
      "HighBit": 11,
      "ImageOrientationPatient": [0.99997664983877, -0.0014674083062, 0.00667431570232, -6.7706947e-08, 0.97667123027296, 0.21474009396734],
      "ImagePositionPatient": [-934.13695395659, -924.93769947241, -283.71029522668],
      "ImageType": [
        "ORIGINAL",
        "PRIMARY",
        "M",
        "MB",
        "ND",
        "MOSAIC"
],
      "ImagedNucleus": "1H",
      "ImagingFrequency": 123.234629,
      "InPlanePhaseEncodingDirection": "COL",
      "MRAcquisitionType": "2D",
      "MagneticFieldStrength": 3.0,
      "Manufacturer": "SIEMENS",
      "ManufacturerModelName": "TrioTim",
      "Modality": "MR",
      "NumberOfAverages": 1.0,
      "NumberOfPhaseEncodingSteps": 91,
      "PercentPhaseFieldOfView": 100.0,
      "PercentSampling": 100.0,
      "PerformedProcedureStepStartTime": "140629.484000",
      "PhotometricInterpretation": "MONOCHROME2",
      "PixelBandwidth": 1923.0,
      "PixelRepresentation": 0,
      "PixelSpacing": [2.0, 2.0],
      "ProtocolName": "cmrr_mbep2d_bold_2mm_MB8_Task_8x",
      "RepetitionTime": 785.0,
      "Rows": 936,
      "SAR": 0.11086493819922,
      "SamplesPerPixel": 1,
      "ScanOptions": [
        "PFP",
        "FS"
],
      "ScanningSequence": "EP",
      "SequenceName": "epfid2d1_104",
      "SequenceVariant": [
        "SK",
        "SS"
],
      "SeriesDescription": "cmrr_mbep2d_bold_2mm_MB8_Task_8x",
      "SeriesNumber": 15,
      "SeriesTime": "153018.109000",
      "SliceLocation": -72.08500815856,
      "SliceThickness": 2.0,
      "SmallestImagePixelValue": 0,
      "SoftwareVersions": "syngo MR B19",
      "SpacingBetweenSlices": 2.0000000195831,
      "SpecificCharacterSet": "ISO_IR 100",
      "StudyID": "1",
      "StudyTime": "140629.453000",
      "TransmitCoilName": "Body",
      "VariableFlipAngleFlag": "N",
      "WindowCenterWidthExplanation": "Algo1",
      "dBdt": 0.0},
    "slices": {}
  },
  "time": {
    "samples": {
      "AcquisitionNumber": [1, 2, 3, 4, 5, 6, 7, 8, 9, 10, 11, 12, 13, 14, 15, 16, 17, 18, 19, 20, 21, 22, 23, 24, 25, 26, 27, 28, 29, 30, 31, 32, 33, 34, 35, 36, 37, 38, 39, 40, 41, 42, 43, 44, 45, 46, 47, 48, 49, 50, 51, 52, 53, 54, 55, 56, 57, 58, 59, 60, 61, 62, 63, 64, 65, 66, 67, 68, 69, 70, 71, 72, 73, 74, 75, 76, 77, 78, 79, 80, 81, 82, 83, 84, 85, 86, 87, 88, 89, 90, 91, 92, 93, 94, 95, 96, 97, 98, 99, 100, 101, 102, 103, 104, 105, 106, 107, 108, 109, 110, 111, 112, 113, 114, 115, 116, 117, 118, 119, 120, 121, 122, 123, 124, 125, 126, 127, 128, 129, 130, 131, 132, 133, 134, 135, 136, 137, 138, 139, 140, 141, 142, 143, 144, 145, 146, 147, 148, 149, 150, 151, 152, 153, 154, 155, 156, 157, 158, 159, 160, 161, 162, 163, 164, 165, 166, 167, 168, 169, 170, 171, 172, 173, 174, 175, 176, 177, 178, 179, 180, 181, 182, 183, 184, 185, 186, 187, 188, 189, 190, 191, 192, 193, 194, 195, 196, 197, 198, 199, 200, 201, 202, 203, 204, 205, 206, 207, 208, 209, 210, 211, 212, 213, 214, 215, 216, 217, 218, 219, 220, 221, 222, 223, 224, 225, 226, 227, 228, 229, 230, 231, 232, 233, 234, 235, 236, 237, 238, 239, 240, 241, 242, 243, 244, 245, 246, 247, 248, 249, 250, 251, 252, 253, 254, 255, 256, 257, 258, 259, 260, 261, 262, 263, 264, 265, 266, 267, 268, 269, 270, 271, 272, 273, 274, 275, 276, 277, 278, 279, 280, 281, 282, 283, 284, 285, 286, 287, 288, 289, 290, 291, 292, 293, 294, 295, 296, 297, 298, 299, 300, 301, 302, 303, 304, 305, 306, 307, 308, 309, 310, 311, 312, 313, 314, 315, 316, 317, 318, 319, 320, 321, 322, 323, 324, 325, 326, 327, 328, 329, 330, 331, 332, 333, 334, 335, 336, 337, 338, 339, 340, 341, 342, 343, 344, 345, 346, 347, 348, 349, 350, 351, 352, 353, 354, 355, 356, 357, 358, 359, 360, 361, 362, 363, 364, 365, 366, 367, 368, 369, 370, 371, 372, 373, 374, 375, 376, 377, 378, 379, 380, 381, 382, 383, 384, 385, 386, 387, 388, 389, 390, 391, 392, 393, 394, 395, 396, 397, 398, 399, 400, 401, 402, 403, 404, 405, 406, 407, 408, 409, 410, 411, 412, 413, 414, 415, 416, 417, 418, 419, 420, 421, 422, 423, 424, 425, 426, 427, 428, 429, 430, 431, 432, 433, 434, 435, 436, 437, 438, 439, 440, 441, 442, 443, 444, 445, 446, 447, 448, 449, 450, 451, 452, 453, 454, 455, 456, 457, 458, 459, 460, 461, 462, 463, 464, 465, 466, 467, 468, 469, 470, 471, 472, 473, 474, 475, 476, 477, 478, 479, 480, 481, 482, 483, 484, 485, 486, 487, 488, 489, 490, 491, 492, 493, 494, 495, 496, 497, 498, 499, 500, 501, 502, 503, 504, 505, 506, 507, 508, 509, 510, 511, 512, 513, 514, 515, 516, 517, 518, 519, 520, 521, 522, 523, 524, 525, 526, 527, 528, 529, 530, 531, 532, 533, 534, 535, 536, 537, 538, 539, 540, 541, 542, 543, 544, 545, 546, 547, 548, 549, 550, 551, 552, 553, 554, 555, 556, 557, 558, 559, 560, 561, 562, 563, 564, 565, 566, 567, 568, 569, 570, 571, 572, 573, 574, 575, 576, 577, 578, 579, 580, 581],
      "AcquisitionTime": ["145840.725000", "145841.515000", "145842.302500", "145843.090000", "145843.877500", "145844.667500", "145845.455000", "145846.242500", "145847.030000", "145847.820000", "145848.607500", "145849.395000", "145850.182500", "145850.972500", "145851.760000", "145852.547500", "145853.337500", "145854.125000", "145854.912500", "145855.700000", "145856.490000", "145857.277500", "145858.065000", "145858.852500", "145859.642500", "145900.430000", "145901.217500", "145902.005000", "145902.795000", "145903.582500", "145904.370000", "145905.157500", "145905.947500", "145906.735000", "145907.522500", "145908.310000", "145909.100000", "145909.887500", "145910.675000", "145911.465000", "145912.252500", "145913.040000", "145913.827500", "145914.617500", "145915.405000", "145916.192500", "145916.980000", "145917.770000", "145918.557500", "145919.345000", "145920.132500", "145920.922500", "145921.710000", "145922.497500", "145923.285000", "145924.075000", "145924.862500", "145925.650000", "145926.437500", "145927.227500", "145928.015000", "145928.802500", "145929.592500", "145930.380000", "145931.167500", "145931.955000", "145932.745000", "145933.532500", "145934.320000", "145935.107500", "145935.897500", "145936.685000", "145937.472500", "145938.260000", "145939.050000", "145939.837500", "145940.625000", "145941.412500", "145942.202500", "145942.990000", "145943.777500", "145944.565000", "145945.355000", "145946.142500", "145946.930000", "145947.720000", "145948.507500", "145949.295000", "145950.082500", "145950.872500", "145951.660000", "145952.447500", "145953.235000", "145954.025000", "145954.812500", "145955.600000", "145956.387500", "145957.177500", "145957.965000", "145958.752500", "145959.540000", "150000.330000", "150001.117500", "150001.905000", "150002.695000", "150003.482500", "150004.270000", "150005.057500", "150005.847500", "150006.635000", "150007.422500", "150008.210000", "150009.000000", "150009.787500", "150010.575000", "150011.362500", "150012.152500", "150012.940000", "150013.727500", "150014.515000", "150015.305000", "150016.092500", "150016.880000", "150017.667500", "150018.457500", "150019.245000", "150020.032500", "150020.822500", "150021.610000", "150022.397500", "150023.185000", "150023.975000", "150024.762500", "150025.550000", "150026.337500", "150027.127500", "150027.915000", "150028.702500", "150029.490000", "150030.280000", "150031.067500", "150031.855000", "150032.642500", "150033.432500", "150034.220000", "150035.007500", "150035.795000", "150036.585000", "150037.372500", "150038.160000", "150038.950000", "150039.737500", "150040.525000", "150041.312500", "150042.102500", "150042.890000", "150043.677500", "150044.465000", "150045.255000", "150046.042500", "150046.830000", "150047.617500", "150048.407500", "150049.195000", "150049.982500", "150050.770000", "150051.560000", "150052.347500", "150053.135000", "150053.922500", "150054.712500", "150055.500000", "150056.287500", "150057.077500", "150057.865000", "150058.652500", "150059.440000", "150100.230000", "150101.017500", "150101.805000", "150102.592500", "150103.382500", "150104.170000", "150104.957500", "150105.745000", "150106.535000", "150107.322500", "150108.110000", "150108.897500", "150109.687500", "150110.475000", "150111.262500", "150112.050000", "150112.840000", "150113.627500", "150114.415000", "150115.205000", "150115.992500", "150116.780000", "150117.567500", "150118.357500", "150119.145000", "150119.932500", "150120.720000", "150121.510000", "150122.297500", "150123.085000", "150123.872500", "150124.662500", "150125.450000", "150126.237500", "150127.025000", "150127.815000", "150128.602500", "150129.390000", "150130.177500", "150130.967500", "150131.755000", "150132.542500", "150133.332500", "150134.120000", "150134.907500", "150135.695000", "150136.485000", "150137.272500", "150138.060000", "150138.847500", "150139.637500", "150140.425000", "150141.212500", "150142.000000", "150142.790000", "150143.577500", "150144.365000", "150145.152500", "150145.942500", "150146.730000", "150147.517500", "150148.305000", "150149.095000", "150149.882500", "150150.670000", "150151.460000", "150152.247500", "150153.035000", "150153.822500", "150154.612500", "150155.400000", "150156.187500", "150156.975000", "150157.765000", "150158.552500", "150159.340000", "150200.127500", "150200.917500", "150201.705000", "150202.492500", "150203.280000", "150204.070000", "150204.857500", "150205.645000", "150206.432500", "150207.222500", "150208.010000", "150208.797500", "150209.587500", "150210.375000", "150211.162500", "150211.950000", "150212.740000", "150213.527500", "150214.315000", "150215.102500", "150215.892500", "150216.680000", "150217.467500", "150218.255000", "150219.045000", "150219.832500", "150220.620000", "150221.407500", "150222.197500", "150222.985000", "150223.772500", "150224.560000", "150225.350000", "150226.137500", "150226.925000", "150227.715000", "150228.502500", "150229.290000", "150230.077500", "150230.867500", "150231.655000", "150232.442500", "150233.230000", "150234.020000", "150234.807500", "150235.595000", "150236.382500", "150237.172500", "150237.960000", "150238.747500", "150239.535000", "150240.325000", "150241.112500", "150241.900000", "150242.687500", "150243.477500", "150244.265000", "150245.052500", "150245.842500", "150246.630000", "150247.417500", "150248.205000", "150248.995000", "150249.782500", "150250.570000", "150251.357500", "150252.147500", "150252.935000", "150253.722500", "150254.510000", "150255.300000", "150256.087500", "150256.875000", "150257.662500", "150258.452500", "150259.240000", "150300.027500", "150300.815000", "150301.605000", "150302.392500", "150303.180000", "150303.970000", "150304.757500", "150305.545000", "150306.332500", "150307.122500", "150307.910000", "150308.697500", "150309.485000", "150310.275000", "150311.062500", "150311.850000", "150312.637500", "150313.427500", "150314.215000", "150315.002500", "150315.790000", "150316.580000", "150317.367500", "150318.155000", "150318.945000", "150319.732500", "150320.520000", "150321.307500", "150322.097500", "150322.885000", "150323.672500", "150324.460000", "150325.250000", "150326.037500", "150326.825000", "150327.612500", "150328.402500", "150329.190000", "150329.977500", "150330.765000", "150331.555000", "150332.342500", "150333.130000", "150333.917500", "150334.707500", "150335.495000", "150336.282500", "150337.072500", "150337.860000", "150338.647500", "150339.435000", "150340.225000", "150341.012500", "150341.800000", "150342.587500", "150343.377500", "150344.165000", "150344.952500", "150345.740000", "150346.530000", "150347.317500", "150348.105000", "150348.892500", "150349.682500", "150350.470000", "150351.257500", "150352.045000", "150352.835000", "150353.622500", "150354.410000", "150355.200000", "150355.987500", "150356.775000", "150357.562500", "150358.352500", "150359.140000", "150359.927500", "150400.715000", "150401.505000", "150402.292500", "150403.080000", "150403.867500", "150404.657500", "150405.445000", "150406.232500", "150407.020000", "150407.810000", "150408.597500", "150409.385000", "150410.172500", "150410.962500", "150411.750000", "150412.537500", "150413.327500", "150414.115000", "150414.902500", "150415.690000", "150416.480000", "150417.267500", "150418.055000", "150418.842500", "150419.632500", "150420.420000", "150421.207500", "150421.995000", "150422.785000", "150423.572500", "150424.360000", "150425.147500", "150425.937500", "150426.725000", "150427.512500", "150428.300000", "150429.090000", "150429.877500", "150430.665000", "150431.455000", "150432.242500", "150433.030000", "150433.817500", "150434.607500", "150435.395000", "150436.182500", "150436.970000", "150437.760000", "150438.547500", "150439.335000", "150440.122500", "150440.912500", "150441.700000", "150442.487500", "150443.275000", "150444.065000", "150444.852500", "150445.640000", "150446.427500", "150447.217500", "150448.005000", "150448.792500", "150449.582500", "150450.370000", "150451.157500", "150451.945000", "150452.735000", "150453.522500", "150454.310000", "150455.097500", "150455.887500", "150456.675000", "150457.462500", "150458.250000", "150459.040000", "150459.827500", "150500.615000", "150501.402500", "150502.192500", "150502.980000", "150503.767500", "150504.555000", "150505.345000", "150506.132500", "150506.920000", "150507.710000", "150508.497500", "150509.285000", "150510.072500", "150510.862500", "150511.650000", "150512.437500", "150513.225000", "150514.015000", "150514.802500", "150515.590000", "150516.377500", "150517.167500", "150517.955000", "150518.742500", "150519.530000", "150520.320000", "150521.107500", "150521.895000", "150522.682500", "150523.472500", "150524.260000", "150525.047500", "150525.837500", "150526.625000", "150527.412500", "150528.200000", "150528.990000", "150529.777500", "150530.565000", "150531.352500", "150532.142500", "150532.930000", "150533.717500", "150534.505000", "150535.295000", "150536.082500", "150536.870000", "150537.657500", "150538.447500", "150539.235000", "150540.022500", "150540.810000", "150541.600000", "150542.387500", "150543.175000", "150543.965000", "150544.752500", "150545.540000", "150546.327500", "150547.117500", "150547.905000", "150548.692500", "150549.480000", "150550.270000", "150551.057500", "150551.845000", "150552.632500", "150553.422500", "150554.210000", "150554.997500", "150555.785000", "150556.575000", "150557.362500", "150558.150000", "150558.937500", "150559.727500", "150600.515000", "150601.302500", "150602.092500", "150602.880000", "150603.667500", "150604.455000", "150605.245000", "150606.032500", "150606.820000", "150607.607500", "150608.397500", "150609.185000", "150609.972500", "150610.760000", "150611.550000", "150612.337500", "150613.125000", "150613.912500", "150614.702500", "150615.490000", "150616.277500", "150617.065000", "150617.855000"],
      "ContentTime": ["153018.109000", "153018.109000", "153018.109000", "153018.109000", "153018.125000", "153018.125000", "153018.125000", "153018.125000", "153118.078000", "153118.078000", "153118.078000", "153118.078000", "153118.093000", "153118.093000", "153118.093000", "153118.093000", "153118.093000", "153118.093000", "153118.109000", "153118.109000", "153118.109000", "153118.109000", "153118.109000", "153118.109000", "153118.125000", "153118.125000", "153118.125000", "153118.125000", "153118.125000", "153118.125000", "153118.125000", "153118.140000", "153118.140000", "153118.140000", "153118.140000", "153118.140000", "153218.078000", "153218.078000", "153218.078000", "153218.078000", "153218.093000", "153218.093000", "153218.093000", "153218.093000", "153218.093000", "153218.093000", "153218.093000", "153218.109000", "153218.109000", "153218.109000", "153218.109000", "153218.109000", "153218.109000", "153218.109000", "153218.125000", "153218.125000", "153218.125000", "153218.125000", "153218.125000", "153218.125000", "153218.125000", "153218.140000", "153218.140000", "153218.140000", "153318.078000", "153318.078000", "153318.078000", "153318.078000", "153318.093000", "153318.093000", "153318.093000", "153318.093000", "153318.093000", "153318.093000", "153318.093000", "153318.109000", "153318.109000", "153318.109000", "153318.109000", "153318.109000", "153318.109000", "153318.125000", "153318.125000", "153318.125000", "153318.125000", "153318.125000", "153318.125000", "153318.125000", "153318.140000", "153318.140000", "153318.140000", "153418.078000", "153418.078000", "153418.078000", "153418.078000", "153418.093000", "153418.093000", "153418.093000", "153418.093000", "153418.093000", "153418.093000", "153418.093000", "153418.109000", "153418.109000", "153418.109000", "153418.109000", "153418.109000", "153418.109000", "153418.109000", "153418.125000", "153418.125000", "153418.125000", "153418.125000", "153418.125000", "153418.125000", "153418.125000", "153418.140000", "153418.140000", "153418.140000", "153518.078000", "153518.078000", "153518.078000", "153518.078000", "153518.093000", "153518.093000", "153518.093000", "153518.093000", "153518.093000", "153518.093000", "153518.093000", "153518.109000", "153518.109000", "153518.109000", "153518.109000", "153518.109000", "153518.109000", "153518.109000", "153518.125000", "153518.125000", "153518.125000", "153518.125000", "153518.125000", "153518.125000", "153518.140000", "153518.140000", "153518.140000", "153618.078000", "153618.078000", "153618.078000", "153618.078000", "153618.093000", "153618.093000", "153618.093000", "153618.093000", "153618.093000", "153618.109000", "153618.109000", "153618.109000", "153618.109000", "153618.109000", "153618.109000", "153618.109000", "153618.125000", "153618.125000", "153618.125000", "153618.125000", "153618.125000", "153618.125000", "153618.125000", "153618.140000", "153618.140000", "153618.140000", "153618.140000", "153618.140000", "153638.078000", "153638.078000", "153638.078000", "153638.078000", "153638.093000", "153638.093000", "153638.093000", "153638.093000", "153638.093000", "153738.078000", "153738.078000", "153738.078000", "153738.078000", "153738.093000", "153738.093000", "153738.093000", "153738.093000", "153738.093000", "153738.093000", "153738.093000", "153738.109000", "153738.109000", "153738.109000", "153738.109000", "153738.109000", "153738.109000", "153738.109000", "153738.125000", "153738.125000", "153738.125000", "153738.125000", "153738.125000", "153738.125000", "153738.140000", "153738.140000", "153738.140000", "153838.078000", "153838.078000", "153838.078000", "153838.078000", "153838.093000", "153838.093000", "153838.093000", "153838.093000", "153838.093000", "153838.093000", "153838.093000", "153838.109000", "153838.109000", "153838.109000", "153838.109000", "153838.109000", "153838.109000", "153838.109000", "153838.125000", "153838.125000", "153838.125000", "153838.125000", "153838.125000", "153838.140000", "153838.140000", "153838.140000", "153838.140000", "153838.140000", "153938.078000", "153938.078000", "153938.078000", "153938.078000", "153938.093000", "153938.093000", "153938.093000", "153938.093000", "153938.093000", "153938.093000", "153938.093000", "153938.109000", "153938.109000", "153938.109000", "153938.109000", "153938.109000", "153938.109000", "153938.109000", "153938.125000", "153938.125000", "153938.125000", "153938.125000", "153938.125000", "153938.125000", "153938.125000", "153938.140000", "153938.140000", "153938.140000", "154038.078000", "154038.078000", "154038.078000", "154038.093000", "154038.093000", "154038.093000", "154038.093000", "154038.093000", "154038.093000", "154038.093000", "154038.109000", "154038.109000", "154038.109000", "154038.109000", "154038.109000", "154038.109000", "154038.109000", "154038.125000", "154038.125000", "154038.125000", "154038.125000", "154038.125000", "154038.125000", "154038.125000", "154038.140000", "154038.140000", "154038.140000", "154138.078000", "154138.078000", "154138.078000", "154138.093000", "154138.093000", "154138.093000", "154138.093000", "154138.093000", "154138.093000", "154138.093000", "154138.109000", "154138.109000", "154138.109000", "154138.109000", "154138.109000", "154138.109000", "154138.109000", "154138.125000", "154138.125000", "154138.125000", "154138.125000", "154138.125000", "154138.125000", "154138.125000", "154138.140000", "154138.140000", "154138.140000", "154138.140000", "154238.078000", "154238.078000", "154238.078000", "154238.093000", "154238.093000", "154238.093000", "154238.093000", "154238.093000", "154238.093000", "154238.093000", "154238.109000", "154238.109000", "154238.109000", "154238.109000", "154238.109000", "154238.125000", "154238.125000", "154238.125000", "154238.125000", "154238.125000", "154238.125000", "154238.125000", "154238.140000", "154238.140000", "154238.140000", "154238.140000", "154238.156000", "154338.078000", "154338.078000", "154338.078000", "154338.093000", "154338.093000", "154338.093000", "154338.093000", "154338.093000", "154338.093000", "154338.093000", "154338.109000", "154338.109000", "154338.109000", "154338.109000", "154338.109000", "154338.109000", "154338.125000", "154338.125000", "154338.125000", "154338.125000", "154338.125000", "154338.125000", "154338.125000", "154338.140000", "154338.140000", "154338.140000", "154338.140000", "154438.078000", "154438.078000", "154438.078000", "154438.093000", "154438.093000", "154438.093000", "154438.093000", "154438.093000", "154438.093000", "154438.093000", "154438.109000", "154438.109000", "154438.109000", "154438.109000", "154438.109000", "154438.109000", "154438.109000", "154438.125000", "154438.125000", "154438.125000", "154438.125000", "154438.125000", "154438.125000", "154438.125000", "154438.140000", "154438.140000", "154438.140000", "154438.140000", "154538.078000", "154538.078000", "154538.078000", "154538.093000", "154538.093000", "154538.093000", "154538.093000", "154538.093000", "154538.093000", "154538.093000", "154538.109000", "154538.109000", "154538.109000", "154538.109000", "154538.109000", "154538.109000", "154538.109000", "154538.125000", "154538.125000", "154538.125000", "154538.125000", "154538.125000", "154538.125000", "154538.125000", "154538.140000", "154538.140000", "154538.140000", "154638.078000", "154638.078000", "154638.078000", "154638.093000", "154638.093000", "154638.093000", "154638.093000", "154638.093000", "154638.093000", "154638.093000", "154638.109000", "154638.109000", "154638.109000", "154638.109000", "154638.109000", "154638.109000", "154638.109000", "154638.125000", "154638.125000", "154638.125000", "154638.125000", "154638.125000", "154638.140000", "154638.140000", "154638.140000", "154638.140000", "154638.140000", "154638.140000", "154738.078000", "154738.078000", "154738.078000", "154738.093000", "154738.093000", "154738.093000", "154738.093000", "154738.093000", "154738.093000", "154738.093000", "154738.109000", "154738.109000", "154738.109000", "154738.109000", "154738.109000", "154738.109000", "154738.109000", "154738.125000", "154738.125000", "154738.125000", "154738.125000", "154738.125000", "154738.125000", "154738.125000", "154738.140000", "154738.140000", "154738.140000", "154838.078000", "154838.078000", "154838.093000", "154838.093000", "154838.093000", "154838.093000", "154838.093000", "154838.093000", "154838.093000", "154838.109000", "154838.109000", "154838.109000", "154838.109000", "154838.109000", "154838.109000", "154838.109000", "154838.125000", "154838.125000", "154838.125000", "154838.125000", "154838.125000", "154838.125000", "154838.140000", "154838.140000", "154838.140000", "154838.140000", "154838.140000", "154838.140000", "154938.078000", "154938.078000", "154938.093000", "154938.093000", "154938.093000", "154938.093000", "154938.093000", "154938.093000", "154938.093000", "154938.109000", "154938.109000", "154938.109000", "154938.109000", "154938.109000", "154938.109000", "154938.109000", "154938.125000", "154938.125000", "154938.125000", "154938.125000", "154938.125000", "154938.125000", "154938.125000", "154938.140000", "154938.140000", "154938.140000", "154938.140000", "155038.078000", "155038.078000", "155038.093000", "155038.093000", "155038.093000", "155038.093000", "155038.093000", "155038.093000", "155038.109000", "155038.109000", "155038.109000", "155038.109000", "155038.109000", "155038.125000", "155038.125000", "155038.125000", "155038.125000", "155038.125000", "155038.125000", "155038.140000", "155038.140000", "155038.140000", "155038.140000", "155038.140000", "155038.156000", "155038.156000", "155038.156000", "155106.203000", "155106.218000", "155106.218000", "155106.218000", "155106.218000", "155106.218000", "155106.218000", "155106.234000", "155106.234000", "155106.234000", "155106.234000", "155106.234000", "155106.234000", "155106.234000"],
