{
  "AcquisitionMatrixPE": 104,
  "AcquisitionNumber": 1,
  "AcquisitionTime": "13:48:40.690000",
  "BandwidthPerPixelPhaseEncode": 13.935,
  "BaseResolution": 104,
  "CoilString": "C:HEA;HEP",
  "ConversionSoftware": "dcm2niix",
  "ConversionSoftwareVersion": "v1.0.20210317",
  "DerivedVendorReportedEchoSpacing": 0.000690017,
  "DeviceSerialNumber": "35450",
  "DwellTime": 2.5e-06,
  "EchoTime": 0.0348,
  "EffectiveEchoSpacing": 0.000690017,
  "FlipAngle": 55,
  "ImageComments": "Unaliased MB8/PE3 (remote)",
  "ImageOrientationPatientDICOM": [1, 0, 0, 0, 0.996041, -0.0888943],
  "ImageType": [
    "ORIGINAL",
    "PRIMARY",
    "M",
    "MB",
    "ND",
    "MOSAIC"
],
  "ImagingFrequency": 123.234,
  "InPlanePhaseEncodingDirectionDICOM": "COL",
  "InstitutionAddress": "Univeristy Ave. 197,Newark,North East,US,07102-1814",
  "InstitutionName": "RUBIC",
  "InstitutionalDepartmentName": "Department",
  "MRAcquisitionType": "2D",
  "MagneticFieldStrength": 3,
  "Manufacturer": "Siemens",
  "ManufacturersModelName": "TrioTim",
  "Modality": "MR",
  "MultibandAccelerationFactor": 8,
  "PartialFourier": 0.875,
  "PatientPosition": "HFS",
  "PercentPhaseFOV": 100,
  "PercentSampling": 100,
  "PhaseEncodingDirection": "j-",
  "PhaseEncodingSteps": 91,
  "PhaseResolution": 1,
  "PixelBandwidth": 1923,
  "ProcedureStepDescription": "Cole^Michael",
  "ProtocolName": "cmrr_mbep2d_bold_2mm_MB8_Task_8x",
  "PulseSequenceDetails": "%CustomerSeq%\\cmrr_mbep2d_bold",
  "ReceiveCoilName": "32Ch_Head",
  "ReconMatrixPE": 104,
  "RepetitionTime": 0.785,
  "SAR": 0.160542,
  "ScanOptions": "PFP\\FS",
  "ScanningSequence": "EP",
  "SequenceName": "epfid2d1_104",
  "SequenceVariant": "SK\\SS",
  "SeriesDescription": "cmrr_mbep2d_bold_2mm_MB8_Task_8x",
  "SeriesNumber": 25,
  "ShimSetting": [2120, -357, -7295, 248, -191, -334, 409, 68],
  "SliceThickness": 2,
  "SliceTiming": [0, 0.4375, 0.0875, 0.525, 0.175, 0.6125, 0.2625, 0.7, 0.35, 0, 0.4375, 0.0875, 0.525, 0.175, 0.6125, 0.2625, 0.7, 0.35, 0, 0.4375, 0.0875, 0.525, 0.175, 0.6125, 0.2625, 0.7, 0.35, 0, 0.4375, 0.0875, 0.525, 0.175, 0.6125, 0.2625, 0.7, 0.35, 0, 0.4375, 0.0875, 0.525, 0.175, 0.6125, 0.2625, 0.7, 0.35, 0, 0.4375, 0.0875, 0.525, 0.175, 0.6125, 0.2625, 0.7, 0.35, 0, 0.4375, 0.0875, 0.525, 0.175, 0.6125, 0.2625, 0.7, 0.35, 0, 0.4375, 0.0875, 0.525, 0.175, 0.6125, 0.2625, 0.7, 0.35],
  "SoftwareVersions": "syngo MR B19",
  "SpacingBetweenSlices": 2,
  "StationName": "MRC35450",
  "TaskName": "cpro",
  "TotalReadoutTime": 0.0710717,
  "TxRefAmp": 387.576,
  "dcmmeta_affine": [
    [-2.0, 0.0, 0.0, 106.71186828613281],
    [0.0, 1.992082118988037, -0.17778858542442322, -84.44245147705078],
    [0.0, 0.17778858542442322, 1.992082118988037, -117.59058380126953],
    [0.0, 0.0, 0.0, 1.0]
],
  "dcmmeta_reorient_transform": [
    [0.0, -1.0, 0.0, 103.0],
    [1.0, 0.0, 0.0, 0.0],
    [0.0, 0.0, 1.0, 0.0],
    [0.0, 0.0, 0.0, 1.0]
],
  "dcmmeta_shape": [104, 104, 72, 581],
  "dcmmeta_slice_dim": 2,
  "dcmmeta_version": 0.6,
  "global": {
    "const": {
      "AcquisitionMatrix": [104, 0, 0, 104],
      "AngioFlag": "N",
      "BitsAllocated": 16,
      "BitsStored": 12,
      "Columns": 936,
      "EchoNumbers": 1,
      "EchoTime": 34.8,
      "EchoTrainLength": 1,
      "FlipAngle": 55.0,
      "HighBit": 11,
      "ImageOrientationPatient": [1.0, 0.0, 0.0, 0.0, 0.99604106564855, -0.0888942942022],
      "ImagePositionPatient": [-938.71186447144, -949.4481716542, -25.318309462201],
      "ImageType": [
        "ORIGINAL",
        "PRIMARY",
        "M",
        "MB",
        "ND",
        "MOSAIC"
],
      "ImagedNucleus": "1H",
      "ImagingFrequency": 123.234486,
      "InPlanePhaseEncodingDirection": "COL",
      "MRAcquisitionType": "2D",
      "MagneticFieldStrength": 3.0,
      "Manufacturer": "SIEMENS",
      "ManufacturerModelName": "TrioTim",
      "Modality": "MR",
      "NumberOfAverages": 1.0,
      "NumberOfPhaseEncodingSteps": 91,
      "PercentPhaseFieldOfView": 100.0,
      "PercentSampling": 100.0,
      "PerformedProcedureStepStartTime": "114652.625000",
      "PhotometricInterpretation": "MONOCHROME2",
      "PixelBandwidth": 1923.0,
      "PixelRepresentation": 0,
      "PixelSpacing": [2.0, 2.0],
      "ProtocolName": "cmrr_mbep2d_bold_2mm_MB8_Task_8x",
      "RepetitionTime": 785.0,
      "Rows": 936,
      "SAR": 0.16054221632419,
      "SamplesPerPixel": 1,
      "ScanOptions": [
        "PFP",
        "FS"
],
      "ScanningSequence": "EP",
      "SequenceName": "epfid2d1_104",
      "SequenceVariant": [
        "SK",
        "SS"
],
      "SeriesDescription": "cmrr_mbep2d_bold_2mm_MB8_Task_8x",
      "SeriesNumber": 25,
      "SeriesTime": "134906.875000",
      "SliceLocation": -109.61860103791,
      "SliceThickness": 2.0,
      "SmallestImagePixelValue": 0,
      "SoftwareVersions": "syngo MR B19",
      "SpacingBetweenSlices": 2.000000009446,
      "SpecificCharacterSet": "ISO_IR 100",
      "StudyID": "1",
      "StudyTime": "114652.593000",
      "TransmitCoilName": "Body",
      "VariableFlipAngleFlag": "N",
      "WindowCenterWidthExplanation": "Algo1",
      "dBdt": 0.0},
    "slices": {}
  },
  "time": {
    "samples": {
      "AcquisitionNumber": [1, 2, 3, 4, 5, 6, 7, 8, 9, 10, 11, 12, 13, 14, 15, 16, 17, 18, 19, 20, 21, 22, 23, 24, 25, 26, 27, 28, 29, 30, 31, 32, 33, 34, 35, 36, 37, 38, 39, 40, 41, 42, 43, 44, 45, 46, 47, 48, 49, 50, 51, 52, 53, 54, 55, 56, 57, 58, 59, 60, 61, 62, 63, 64, 65, 66, 67, 68, 69, 70, 71, 72, 73, 74, 75, 76, 77, 78, 79, 80, 81, 82, 83, 84, 85, 86, 87, 88, 89, 90, 91, 92, 93, 94, 95, 96, 97, 98, 99, 100, 101, 102, 103, 104, 105, 106, 107, 108, 109, 110, 111, 112, 113, 114, 115, 116, 117, 118, 119, 120, 121, 122, 123, 124, 125, 126, 127, 128, 129, 130, 131, 132, 133, 134, 135, 136, 137, 138, 139, 140, 141, 142, 143, 144, 145, 146, 147, 148, 149, 150, 151, 152, 153, 154, 155, 156, 157, 158, 159, 160, 161, 162, 163, 164, 165, 166, 167, 168, 169, 170, 171, 172, 173, 174, 175, 176, 177, 178, 179, 180, 181, 182, 183, 184, 185, 186, 187, 188, 189, 190, 191, 192, 193, 194, 195, 196, 197, 198, 199, 200, 201, 202, 203, 204, 205, 206, 207, 208, 209, 210, 211, 212, 213, 214, 215, 216, 217, 218, 219, 220, 221, 222, 223, 224, 225, 226, 227, 228, 229, 230, 231, 232, 233, 234, 235, 236, 237, 238, 239, 240, 241, 242, 243, 244, 245, 246, 247, 248, 249, 250, 251, 252, 253, 254, 255, 256, 257, 258, 259, 260, 261, 262, 263, 264, 265, 266, 267, 268, 269, 270, 271, 272, 273, 274, 275, 276, 277, 278, 279, 280, 281, 282, 283, 284, 285, 286, 287, 288, 289, 290, 291, 292, 293, 294, 295, 296, 297, 298, 299, 300, 301, 302, 303, 304, 305, 306, 307, 308, 309, 310, 311, 312, 313, 314, 315, 316, 317, 318, 319, 320, 321, 322, 323, 324, 325, 326, 327, 328, 329, 330, 331, 332, 333, 334, 335, 336, 337, 338, 339, 340, 341, 342, 343, 344, 345, 346, 347, 348, 349, 350, 351, 352, 353, 354, 355, 356, 357, 358, 359, 360, 361, 362, 363, 364, 365, 366, 367, 368, 369, 370, 371, 372, 373, 374, 375, 376, 377, 378, 379, 380, 381, 382, 383, 384, 385, 386, 387, 388, 389, 390, 391, 392, 393, 394, 395, 396, 397, 398, 399, 400, 401, 402, 403, 404, 405, 406, 407, 408, 409, 410, 411, 412, 413, 414, 415, 416, 417, 418, 419, 420, 421, 422, 423, 424, 425, 426, 427, 428, 429, 430, 431, 432, 433, 434, 435, 436, 437, 438, 439, 440, 441, 442, 443, 444, 445, 446, 447, 448, 449, 450, 451, 452, 453, 454, 455, 456, 457, 458, 459, 460, 461, 462, 463, 464, 465, 466, 467, 468, 469, 470, 471, 472, 473, 474, 475, 476, 477, 478, 479, 480, 481, 482, 483, 484, 485, 486, 487, 488, 489, 490, 491, 492, 493, 494, 495, 496, 497, 498, 499, 500, 501, 502, 503, 504, 505, 506, 507, 508, 509, 510, 511, 512, 513, 514, 515, 516, 517, 518, 519, 520, 521, 522, 523, 524, 525, 526, 527, 528, 529, 530, 531, 532, 533, 534, 535, 536, 537, 538, 539, 540, 541, 542, 543, 544, 545, 546, 547, 548, 549, 550, 551, 552, 553, 554, 555, 556, 557, 558, 559, 560, 561, 562, 563, 564, 565, 566, 567, 568, 569, 570, 571, 572, 573, 574, 575, 576, 577, 578, 579, 580, 581],
      "AcquisitionTime": ["134840.690000", "134841.480000", "134842.267500", "134843.055000", "134843.842500", "134844.632500", "134845.420000", "134846.207500", "134846.995000", "134847.785000", "134848.572500", "134849.360000", "134850.150000", "134850.937500", "134851.725000", "134852.512500", "134853.302500", "134854.090000", "134854.877500", "134855.665000", "134856.455000", "134857.242500", "134858.030000", "134858.817500", "134859.607500", "134900.395000", "134901.182500", "134901.970000", "134902.760000", "134903.547500", "134904.335000", "134905.122500", "134905.912500", "134906.700000", "134907.487500", "134908.277500", "134909.065000", "134909.852500", "134910.640000", "134911.430000", "134912.217500", "134913.005000", "134913.792500", "134914.582500", "134915.370000", "134916.157500", "134916.945000", "134917.735000", "134918.522500", "134919.310000", "134920.097500", "134920.887500", "134921.675000", "134922.462500", "134923.250000", "134924.040000", "134924.827500", "134925.615000", "134926.405000", "134927.192500", "134927.980000", "134928.767500", "134929.557500", "134930.345000", "134931.132500", "134931.920000", "134932.710000", "134933.497500", "134934.285000", "134935.072500", "134935.862500", "134936.650000", "134937.437500", "134938.225000", "134939.015000", "134939.802500", "134940.590000", "134941.377500", "134942.167500", "134942.955000", "134943.742500", "134944.532500", "134945.320000", "134946.107500", "134946.895000", "134947.685000", "134948.472500", "134949.260000", "134950.047500", "134950.837500", "134951.625000", "134952.412500", "134953.200000", "134953.990000", "134954.777500", "134955.565000", "134956.352500", "134957.142500", "134957.930000", "134958.717500", "134959.507500", "135000.295000", "135001.082500", "135001.870000", "135002.660000", "135003.447500", "135004.235000", "135005.022500", "135005.812500", "135006.600000", "135007.387500", "135008.175000", "135008.965000", "135009.752500", "135010.540000", "135011.327500", "135012.117500", "135012.905000", "135013.692500", "135014.480000", "135015.270000", "135016.057500", "135016.845000", "135017.635000", "135018.422500", "135019.210000", "135019.997500", "135020.787500", "135021.575000", "135022.362500", "135023.150000", "135023.940000", "135024.727500", "135025.515000", "135026.302500", "135027.092500", "135027.880000", "135028.667500", "135029.455000", "135030.245000", "135031.032500", "135031.820000", "135032.607500", "135033.397500", "135034.185000", "135034.972500", "135035.762500", "135036.550000", "135037.337500", "135038.125000", "135038.915000", "135039.702500", "135040.490000", "135041.277500", "135042.067500", "135042.855000", "135043.642500", "135044.430000", "135045.220000", "135046.007500", "135046.795000", "135047.582500", "135048.372500", "135049.160000", "135049.947500", "135050.735000", "135051.525000", "135052.312500", "135053.100000", "135053.890000", "135054.677500", "135055.465000", "135056.252500", "135057.042500", "135057.830000", "135058.617500", "135059.405000", "135100.195000", "135100.982500", "135101.770000", "135102.557500", "135103.347500", "135104.135000", "135104.922500", "135105.710000", "135106.500000", "135107.287500", "135108.075000", "135108.862500", "135109.652500", "135110.440000", "135111.227500", "135112.017500", "135112.805000", "135113.592500", "135114.380000", "135115.170000", "135115.957500", "135116.745000", "135117.532500", "135118.322500", "135119.110000", "135119.897500", "135120.685000", "135121.475000", "135122.262500", "135123.050000", "135123.837500", "135124.627500", "135125.415000", "135126.202500", "135126.990000", "135127.780000", "135128.567500", "135129.355000", "135130.145000", "135130.932500", "135131.720000", "135132.507500", "135133.297500", "135134.085000", "135134.872500", "135135.660000", "135136.450000", "135137.237500", "135138.025000", "135138.812500", "135139.602500", "135140.390000", "135141.177500", "135141.965000", "135142.755000", "135143.542500", "135144.330000", "135145.117500", "135145.907500", "135146.695000", "135147.482500", "135148.272500", "135149.060000", "135149.847500", "135150.635000", "135151.425000", "135152.212500", "135153.000000", "135153.787500", "135154.577500", "135155.365000", "135156.152500", "135156.940000", "135157.730000", "135158.517500", "135159.305000", "135200.092500", "135200.882500", "135201.670000", "135202.457500", "135203.245000", "135204.035000", "135204.822500", "135205.610000", "135206.400000", "135207.187500", "135207.975000", "135208.762500", "135209.552500", "135210.340000", "135211.127500", "135211.915000", "135212.705000", "135213.492500", "135214.280000", "135215.067500", "135215.857500", "135216.645000", "135217.432500", "135218.220000", "135219.010000", "135219.797500", "135220.585000", "135221.372500", "135222.162500", "135222.950000", "135223.737500", "135224.527500", "135225.315000", "135226.102500", "135226.890000", "135227.680000", "135228.467500", "135229.255000", "135230.042500", "135230.832500", "135231.620000", "135232.407500", "135233.195000", "135233.985000", "135234.772500", "135235.560000", "135236.347500", "135237.137500", "135237.925000", "135238.712500", "135239.500000", "135240.290000", "135241.077500", "135241.865000", "135242.655000", "135243.442500", "135244.230000", "135245.017500", "135245.807500", "135246.595000", "135247.382500", "135248.170000", "135248.960000", "135249.747500", "135250.535000", "135251.322500", "135252.112500", "135252.900000", "135253.687500", "135254.475000", "135255.265000", "135256.052500", "135256.840000", "135257.627500", "135258.417500", "135259.205000", "135259.992500", "135300.782500", "135301.570000", "135302.357500", "135303.145000", "135303.935000", "135304.722500", "135305.510000", "135306.297500", "135307.087500", "135307.875000", "135308.662500", "135309.450000", "135310.240000", "135311.027500", "135311.815000", "135312.602500", "135313.392500", "135314.180000", "135314.967500", "135315.757500", "135316.545000", "135317.332500", "135318.120000", "135318.910000", "135319.697500", "135320.485000", "135321.272500", "135322.062500", "135322.850000", "135323.637500", "135324.425000", "135325.215000", "135326.002500", "135326.790000", "135327.577500", "135328.367500", "135329.155000", "135329.942500", "135330.730000", "135331.520000", "135332.307500", "135333.095000", "135333.885000", "135334.672500", "135335.460000", "135336.247500", "135337.037500", "135337.825000", "135338.612500", "135339.400000", "135340.190000", "135340.977500", "135341.765000", "135342.552500", "135343.342500", "135344.130000", "135344.917500", "135345.705000", "135346.495000", "135347.282500", "135348.070000", "135348.857500", "135349.647500", "135350.435000", "135351.222500", "135352.012500", "135352.800000", "135353.587500", "135354.375000", "135355.165000", "135355.952500", "135356.740000", "135357.527500", "135358.317500", "135359.105000", "135359.892500", "135400.680000", "135401.470000", "135402.257500", "135403.045000", "135403.832500", "135404.622500", "135405.410000", "135406.197500", "135406.985000", "135407.775000", "135408.562500", "135409.350000", "135410.140000", "135410.927500", "135411.715000", "135412.502500", "135413.292500", "135414.080000", "135414.867500", "135415.655000", "135416.445000", "135417.232500", "135418.020000", "135418.807500", "135419.597500", "135420.385000", "135421.172500", "135421.960000", "135422.750000", "135423.537500", "135424.325000", "135425.112500", "135425.902500", "135426.690000", "135427.477500", "135428.267500", "135429.055000", "135429.842500", "135430.630000", "135431.420000", "135432.207500", "135432.995000", "135433.782500", "135434.572500", "135435.360000", "135436.147500", "135436.935000", "135437.725000", "135438.512500", "135439.300000", "135440.087500", "135440.877500", "135441.665000", "135442.452500", "135443.240000", "135444.030000", "135444.817500", "135445.605000", "135446.395000", "135447.182500", "135447.970000", "135448.757500", "135449.547500", "135450.335000", "135451.122500", "135451.910000", "135452.700000", "135453.487500", "135454.275000", "135455.062500", "135455.852500", "135456.640000", "135457.427500", "135458.215000", "135459.005000", "135459.792500", "135500.580000", "135501.367500", "135502.157500", "135502.945000", "135503.732500", "135504.522500", "135505.310000", "135506.097500", "135506.885000", "135507.675000", "135508.462500", "135509.250000", "135510.037500", "135510.827500", "135511.615000", "135512.402500", "135513.190000", "135513.980000", "135514.767500", "135515.555000", "135516.342500", "135517.132500", "135517.920000", "135518.707500", "135519.495000", "135520.285000", "135521.072500", "135521.860000", "135522.650000", "135523.437500", "135524.225000", "135525.012500", "135525.802500", "135526.590000", "135527.377500", "135528.165000", "135528.955000", "135529.742500", "135530.530000", "135531.317500", "135532.107500", "135532.895000", "135533.682500", "135534.470000", "135535.260000", "135536.047500", "135536.835000", "135537.622500", "135538.412500", "135539.200000", "135539.987500", "135540.777500", "135541.565000", "135542.352500", "135543.140000", "135543.930000", "135544.717500", "135545.505000", "135546.292500", "135547.082500", "135547.870000", "135548.657500", "135549.445000", "135550.235000", "135551.022500", "135551.810000", "135552.597500", "135553.387500", "135554.175000", "135554.962500", "135555.750000", "135556.540000", "135557.327500", "135558.115000", "135558.905000", "135559.692500", "135600.480000", "135601.267500", "135602.057500", "135602.845000", "135603.632500", "135604.420000", "135605.210000", "135605.997500", "135606.785000", "135607.572500", "135608.362500", "135609.150000", "135609.937500", "135610.725000", "135611.515000", "135612.302500", "135613.090000", "135613.877500", "135614.667500", "135615.455000", "135616.242500", "135617.032500", "135617.820000"],
      "ContentTime": ["134906.875000", "134906.875000", "134906.875000", "134906.875000", "134906.890000", "134906.890000", "134906.890000", "134906.890000", "134906.890000", "134906.906000", "134906.906000", "134906.906000", "134906.906000", "134906.906000", "134906.906000", "134906.906000", "134906.921000", "134906.921000", "134906.921000", "134906.921000", "134906.921000", "134906.921000", "134906.921000", "134906.937000", "134906.937000", "134906.937000", "134906.937000", "134906.937000", "134906.937000", "134906.937000", "134926.843000", "134926.843000", "134926.843000", "134926.843000", "134926.859000", "134926.859000", "134926.859000", "134926.859000", "134926.859000", "134926.859000", "134926.859000", "134926.875000", "134926.875000", "134926.875000", "134926.875000", "134926.875000", "134926.875000", "134926.875000", "134926.890000", "134926.890000", "134926.890000", "134926.890000", "134926.906000", "134926.906000", "134926.906000", "134946.843000", "134946.843000", "134946.843000", "134946.843000", "134946.843000", "134946.859000", "134946.859000", "134946.859000", "134946.859000", "134946.859000", "134946.859000", "134946.859000", "134946.875000", "134946.875000", "134946.875000", "134946.875000", "134946.875000", "134946.875000", "134946.875000", "134946.890000", "134946.890000", "134946.890000", "134946.890000", "134946.890000", "134946.890000", "134946.890000", "135006.843000", "135006.843000", "135006.843000", "135006.843000", "135006.843000", "135006.859000", "135006.859000", "135006.859000", "135006.859000", "135006.859000", "135006.859000", "135006.875000", "135006.875000", "135006.875000", "135006.875000", "135006.875000", "135006.875000", "135006.890000", "135006.890000", "135006.890000", "135006.890000", "135006.890000", "135006.890000", "135006.890000", "135006.906000", "135026.843000", "135026.843000", "135026.843000", "135026.843000", "135026.843000", "135026.859000", "135026.859000", "135026.859000", "135026.859000", "135026.859000", "135026.859000", "135026.859000", "135026.875000", "135026.875000", "135026.875000", "135026.875000", "135026.875000", "135026.875000", "135026.875000", "135026.890000", "135026.890000", "135026.890000", "135026.890000", "135026.890000", "135026.906000", "135026.906000", "135046.843000", "135046.843000", "135046.843000", "135046.843000", "135046.843000", "135046.859000", "135046.859000", "135046.859000", "135046.859000", "135046.859000", "135046.859000", "135046.859000", "135046.875000", "135046.875000", "135046.875000", "135046.875000", "135046.890000", "135046.890000", "135046.890000", "135046.890000", "135046.890000", "135046.890000", "135046.906000", "135046.906000", "135046.906000", "135106.843000", "135106.843000", "135106.843000", "135106.843000", "135106.843000", "135106.859000", "135106.859000", "135106.859000", "135106.859000", "135106.859000", "135106.859000", "135106.859000", "135106.875000", "135106.875000", "135106.875000", "135106.875000", "135106.875000", "135106.875000", "135106.875000", "135106.890000", "135106.890000", "135106.890000", "135106.890000", "135106.890000", "135106.890000", "135106.890000", "135126.843000", "135126.843000", "135126.843000", "135126.843000", "135126.843000", "135126.859000", "135126.859000", "135126.859000", "135126.859000", "135126.859000", "135126.859000", "135126.859000", "135126.875000", "135126.875000", "135126.875000", "135126.875000", "135126.890000", "135126.890000", "135126.890000", "135126.890000", "135126.890000", "135126.890000", "135126.906000", "135126.906000", "135126.906000", "135146.843000", "135146.843000", "135146.843000", "135146.843000", "135146.843000", "135146.859000", "135146.859000", "135146.859000", "135146.859000", "135146.859000", "135146.859000", "135146.859000", "135146.875000", "135146.875000", "135146.875000", "135146.875000", "135146.875000", "135146.875000", "135146.875000", "135146.890000", "135146.890000", "135146.890000", "135146.890000", "135146.890000", "135146.890000", "135146.890000", "135206.843000", "135206.843000", "135206.843000", "135206.843000", "135206.843000", "135206.859000", "135206.859000", "135206.859000", "135206.859000", "135206.859000", "135206.859000", "135206.859000", "135206.875000", "135206.875000", "135206.875000", "135206.875000", "135206.875000", "135206.875000", "135206.875000", "135206.890000", "135206.890000", "135206.890000", "135206.890000", "135206.890000", "135206.890000", "135226.843000", "135226.843000", "135226.843000", "135226.843000", "135226.843000", "135226.859000", "135226.859000", "135226.859000", "135226.859000", "135226.859000", "135226.875000", "135226.875000", "135226.875000", "135226.875000", "135226.875000", "135226.875000", "135226.875000", "135226.890000", "135226.890000", "135226.890000", "135226.890000", "135226.890000", "135226.890000", "135226.906000", "135226.906000", "135226.906000", "135246.843000", "135246.843000", "135246.843000", "135246.843000", "135246.843000", "135246.859000", "135246.859000", "135246.859000", "135246.859000", "135246.859000", "135246.859000", "135246.859000", "135246.875000", "135246.875000", "135246.875000", "135246.875000", "135246.875000", "135246.875000", "135246.890000", "135246.890000", "135246.890000", "135246.890000", "135246.890000", "135246.890000", "135246.890000", "135306.843000", "135306.843000", "135306.843000", "135306.843000", "135306.843000", "135306.859000", "135306.859000", "135306.859000", "135306.859000", "135306.859000", "135306.859000", "135306.859000", "135306.875000", "135306.875000", "135306.875000", "135306.875000", "135306.875000", "135306.875000", "135306.875000", "135306.890000", "135306.890000", "135306.890000", "135306.890000", "135306.890000", "135306.890000", "135306.890000", "135326.843000", "135326.843000", "135326.843000", "135326.843000", "135326.843000", "135326.859000", "135326.859000", "135326.859000", "135326.859000", "135326.859000", "135326.859000", "135326.859000", "135326.875000", "135326.875000", "135326.875000", "135326.875000", "135326.875000", "135326.875000", "135326.875000", "135326.890000", "135326.890000", "135326.890000", "135326.890000", "135326.890000", "135326.890000", "135346.843000", "135346.843000", "135346.843000", "135346.843000", "135346.843000", "135346.859000", "135346.859000", "135346.859000", "135346.859000", "135346.859000", "135346.859000", "135346.859000", "135346.875000", "135346.875000", "135346.875000", "135346.875000", "135346.875000", "135346.875000", "135346.875000", "135346.890000", "135346.890000", "135346.890000", "135346.890000", "135346.890000", "135346.890000", "135346.890000", "135406.843000", "135406.843000", "135406.843000", "135406.843000", "135406.843000", "135406.859000", "135406.859000", "135406.859000", "135406.859000", "135406.859000", "135406.859000", "135406.859000", "135406.875000", "135406.875000", "135406.875000", "135406.875000", "135406.875000", "135406.875000", "135406.875000", "135406.890000", "135406.890000", "135406.890000", "135406.890000", "135406.890000", "135406.890000", "135426.843000", "135426.843000", "135426.843000", "135426.843000", "135426.843000", "135426.859000", "135426.859000", "135426.859000", "135426.859000", "135426.859000", "135426.859000", "135426.859000", "135426.875000", "135426.875000", "135426.875000", "135426.875000", "135426.875000", "135426.875000", "135426.875000", "135426.890000", "135426.890000", "135426.890000", "135426.890000", "135426.906000", "135426.906000", "135426.906000", "135446.843000", "135446.843000", "135446.843000", "135446.843000", "135446.843000", "135446.859000", "135446.859000", "135446.859000", "135446.859000", "135446.859000", "135446.859000", "135446.859000", "135446.875000", "135446.875000", "135446.875000", "135446.875000", "135446.875000", "135446.875000", "135446.890000", "135446.890000", "135446.890000", "135446.890000", "135446.890000", "135446.890000", "135446.890000", "135506.843000", "135506.843000", "135506.843000", "135506.843000", "135506.843000", "135506.859000", "135506.859000", "135506.859000", "135506.859000", "135506.859000", "135506.859000", "135506.859000", "135506.875000", "135506.875000", "135506.875000", "135506.875000", "135506.875000", "135506.875000", "135506.875000", "135506.890000", "135506.890000", "135506.890000", "135506.890000", "135506.890000", "135506.890000", "135526.843000", "135526.843000", "135526.843000", "135526.843000", "135526.843000", "135526.859000", "135526.859000", "135526.859000", "135526.859000", "135526.859000", "135526.859000", "135526.859000", "135526.875000", "135526.875000", "135526.875000", "135526.875000", "135526.875000", "135526.875000", "135526.890000", "135526.890000", "135526.890000", "135526.890000", "135526.890000", "135526.890000", "135526.890000", "135526.906000", "135546.843000", "135546.843000", "135546.859000", "135546.859000", "135546.875000", "135546.875000", "135546.875000", "135546.875000", "135546.875000", "135546.875000", "135546.890000", "135546.890000", "135546.890000", "135546.890000", "135546.890000", "135546.890000", "135546.890000", "135546.906000", "135546.906000", "135546.906000", "135546.906000", "135546.906000", "135546.906000", "135546.906000", "135546.921000", "135546.921000", "135606.843000", "135606.843000", "135606.843000", "135606.843000", "135606.843000", "135606.859000", "135606.859000", "135606.859000", "135606.859000", "135606.859000", "135606.859000", "135606.859000", "135606.875000", "135606.875000", "135606.875000", "135606.875000", "135606.875000", "135606.875000", "135606.875000", "135606.890000", "135606.890000", "135606.890000", "135606.890000", "135606.890000", "135606.890000", "135619.046000", "135619.046000", "135619.046000", "135619.046000", "135619.062000", "135619.062000", "135619.062000", "135619.062000", "135619.062000", "135619.062000", "135619.062000", "135619.078000", "135619.078000", "135619.078000", "135619.078000", "135619.078000"],
      "DataSetTrailingPadding": [
        "\u0000\u0000\u0000\u0000\u0000\u0000\u0000\u0000\u0000\u0000\u0000\u0000\u0000\u0000\u0000\u0000\u0000\u0000\u0000\u0000\u0000\u0000\u0000\u0000\u0000\u0000\u0000\u0000\u0000\u0000\u0000\u0000\u0000\u0000\u0000\u0000\u0000\u0000\u0000\u0000\u0000\u0000\u0000\u0000\u0000\u0000\u0000\u0000\u0000\u0000\u0000\u0000\u0000\u0000\u0000\u0000\u0000\u0000\u0000\u0000\u0000\u0000\u0000\u0000\u0000\u0000\u0000\u0000\u0000\u0000\u0000\u0000\u0000\u0000\u0000\u0000\u0000\u0000\u0000\u0000\u0000\u0000\u0000\u0000\u0000\u0000\u0000\u0000\u0000\u0000\u0000\u0000\u0000\u0000\u0000\u0000\u0000\u0000\u0000\u0000\u0000\u0000\u0000\u0000\u0000\u0000\u0000\u0000\u0000\u0000\u0000\u0000\u0000\u0000\u0000\u0000\u0000\u0000\u0000\u0000\u0000\u0000\u0000\u0000\u0000\u0000\u0000\u0000\u0000\u0000\u0000\u0000\u0000\u0000\u0000\u0000\u0000\u0000\u0000\u0000\u0000\u0000\u0000\u0000",
        "\u0000\u0000\u0000\u0000\u0000\u0000\u0000\u0000\u0000\u0000\u0000\u0000\u0000\u0000\u0000\u0000\u0000\u0000\u0000\u0000\u0000\u0000\u0000\u0000\u0000\u0000\u0000\u0000\u0000\u0000\u0000\u0000\u0000\u0000\u0000\u0000\u0000\u0000\u0000\u0000\u0000\u0000\u0000\u0000\u0000\u0000\u0000\u0000\u0000\u0000\u0000\u0000\u0000\u0000\u0000\u0000\u0000\u0000\u0000\u0000\u0000\u0000\u0000\u0000\u0000\u0000\u0000\u0000\u0000\u0000\u0000\u0000\u0000\u0000\u0000\u0000\u0000\u0000\u0000\u0000\u0000\u0000\u0000\u0000\u0000\u0000\u0000\u0000\u0000\u0000\u0000\u0000\u0000\u0000\u0000\u0000\u0000\u0000\u0000\u0000\u0000\u0000\u0000\u0000\u0000\u0000\u0000\u0000\u0000\u0000\u0000\u0000\u0000\u0000\u0000\u0000\u0000\u0000\u0000\u0000\u0000\u0000\u0000\u0000\u0000\u0000\u0000\u0000\u0000\u0000\u0000\u0000\u0000\u0000\u0000\u0000\u0000\u0000\u0000\u0000\u0000\u0000",
