{
  "AcquisitionMatrixPE": 104,
  "AcquisitionNumber": 1,
  "AcquisitionTime": "13:16:32.807500",
  "BandwidthPerPixelPhaseEncode": 13.935,
  "BaseResolution": 104,
  "CoilString": "C:HEA;HEP",
  "ConversionSoftware": "dcm2niix",
  "ConversionSoftwareVersion": "v1.0.20210317",
  "DerivedVendorReportedEchoSpacing": 0.000690017,
  "DeviceSerialNumber": "35450",
  "DwellTime": 2.5e-06,
  "EchoTime": 0.0348,
  "EffectiveEchoSpacing": 0.000690017,
  "FlipAngle": 55,
  "ImageComments": "Unaliased MB8/PE3 (remote)",
  "ImageOrientationPatientDICOM": [1, 0, 0, 0, 0.996041, -0.0888943],
  "ImageType": [
    "ORIGINAL",
    "PRIMARY",
    "M",
    "MB",
    "ND",
    "MOSAIC"
],
  "ImagingFrequency": 123.234,
  "InPlanePhaseEncodingDirectionDICOM": "COL",
  "InstitutionAddress": "Univeristy Ave. 197,Newark,North East,US,07102-1814",
  "InstitutionName": "RUBIC",
  "InstitutionalDepartmentName": "Department",
  "MRAcquisitionType": "2D",
  "MagneticFieldStrength": 3,
  "Manufacturer": "Siemens",
  "ManufacturersModelName": "TrioTim",
  "Modality": "MR",
  "MultibandAccelerationFactor": 8,
  "PartialFourier": 0.875,
  "PatientPosition": "HFS",
  "PercentPhaseFOV": 100,
  "PercentSampling": 100,
  "PhaseEncodingDirection": "j-",
  "PhaseEncodingSteps": 91,
  "PhaseResolution": 1,
  "PixelBandwidth": 1923,
  "ProcedureStepDescription": "Cole^Michael",
  "ProtocolName": "cmrr_mbep2d_bold_2mm_MB8_Task_8x",
  "PulseSequenceDetails": "%CustomerSeq%\\cmrr_mbep2d_bold",
  "ReceiveCoilName": "32Ch_Head",
  "ReconMatrixPE": 104,
  "RepetitionTime": 0.785,
  "SAR": 0.160542,
  "ScanOptions": "PFP\\FS",
  "ScanningSequence": "EP",
  "SequenceName": "epfid2d1_104",
  "SequenceVariant": "SK\\SS",
  "SeriesDescription": "cmrr_mbep2d_bold_2mm_MB8_Task_8x",
  "SeriesNumber": 17,
  "ShimSetting": [2120, -357, -7295, 248, -191, -334, 409, 68],
  "SliceThickness": 2,
  "SliceTiming": [0, 0.4375, 0.0875, 0.525, 0.175, 0.6125, 0.2625, 0.7, 0.35, 0, 0.4375, 0.0875, 0.525, 0.175, 0.6125, 0.2625, 0.7, 0.35, 0, 0.4375, 0.0875, 0.525, 0.175, 0.6125, 0.2625, 0.7, 0.35, 0, 0.4375, 0.0875, 0.525, 0.175, 0.6125, 0.2625, 0.7, 0.35, 0, 0.4375, 0.0875, 0.525, 0.175, 0.6125, 0.2625, 0.7, 0.35, 0, 0.4375, 0.0875, 0.525, 0.175, 0.6125, 0.2625, 0.7, 0.35, 0, 0.4375, 0.0875, 0.525, 0.175, 0.6125, 0.2625, 0.7, 0.35, 0, 0.4375, 0.0875, 0.525, 0.175, 0.6125, 0.2625, 0.7, 0.35],
  "SoftwareVersions": "syngo MR B19",
  "SpacingBetweenSlices": 2,
  "StationName": "MRC35450",
  "TaskName": "cpro",
  "TotalReadoutTime": 0.0710717,
  "TxRefAmp": 387.576,
  "dcmmeta_affine": [
    [-2.0, 0.0, 0.0, 106.71186828613281],
    [0.0, 1.992082118988037, -0.17778858542442322, -84.44245147705078],
    [0.0, 0.17778858542442322, 1.992082118988037, -117.59058380126953],
    [0.0, 0.0, 0.0, 1.0]
],
  "dcmmeta_reorient_transform": [
    [0.0, -1.0, 0.0, 103.0],
    [1.0, 0.0, 0.0, 0.0],
    [0.0, 0.0, 1.0, 0.0],
    [0.0, 0.0, 0.0, 1.0]
],
  "dcmmeta_shape": [104, 104, 72, 581],
  "dcmmeta_slice_dim": 2,
  "dcmmeta_version": 0.6,
  "global": {
    "const": {
      "AcquisitionMatrix": [104, 0, 0, 104],
      "AngioFlag": "N",
      "BitsAllocated": 16,
      "BitsStored": 12,
      "Columns": 936,
      "EchoNumbers": 1,
      "EchoTime": 34.8,
      "EchoTrainLength": 1,
      "FlipAngle": 55.0,
      "HighBit": 11,
      "ImageOrientationPatient": [1.0, 0.0, 0.0, 0.0, 0.99604106564855, -0.0888942942022],
      "ImagePositionPatient": [-938.71186447144, -949.4481716542, -25.318309462201],
      "ImageType": [
        "ORIGINAL",
        "PRIMARY",
        "M",
        "MB",
        "ND",
        "MOSAIC"
],
      "ImagedNucleus": "1H",
      "ImagingFrequency": 123.234486,
      "InPlanePhaseEncodingDirection": "COL",
      "MRAcquisitionType": "2D",
      "MagneticFieldStrength": 3.0,
      "Manufacturer": "SIEMENS",
      "ManufacturerModelName": "TrioTim",
      "Modality": "MR",
      "NumberOfAverages": 1.0,
      "NumberOfPhaseEncodingSteps": 91,
      "PercentPhaseFieldOfView": 100.0,
      "PercentSampling": 100.0,
      "PerformedProcedureStepStartTime": "114652.625000",
      "PhotometricInterpretation": "MONOCHROME2",
      "PixelBandwidth": 1923.0,
      "PixelRepresentation": 0,
      "PixelSpacing": [2.0, 2.0],
      "ProtocolName": "cmrr_mbep2d_bold_2mm_MB8_Task_8x",
      "RepetitionTime": 785.0,
      "Rows": 936,
      "SAR": 0.16054221632419,
      "SamplesPerPixel": 1,
      "ScanOptions": [
        "PFP",
        "FS"
],
      "ScanningSequence": "EP",
      "SequenceName": "epfid2d1_104",
      "SequenceVariant": [
        "SK",
        "SS"
],
      "SeriesDescription": "cmrr_mbep2d_bold_2mm_MB8_Task_8x",
      "SeriesNumber": 17,
      "SeriesTime": "131706.812000",
      "SliceLocation": -109.61860103791,
      "SliceThickness": 2.0,
      "SmallestImagePixelValue": 0,
      "SoftwareVersions": "syngo MR B19",
      "SpacingBetweenSlices": 2.000000009446,
      "SpecificCharacterSet": "ISO_IR 100",
      "StudyID": "1",
      "StudyTime": "114652.593000",
      "TransmitCoilName": "Body",
      "VariableFlipAngleFlag": "N",
      "WindowCenterWidthExplanation": "Algo1",
      "dBdt": 0.0},
    "slices": {}
  },
  "time": {
    "samples": {
      "AcquisitionNumber": [1, 2, 3, 4, 5, 6, 7, 8, 9, 10, 11, 12, 13, 14, 15, 16, 17, 18, 19, 20, 21, 22, 23, 24, 25, 26, 27, 28, 29, 30, 31, 32, 33, 34, 35, 36, 37, 38, 39, 40, 41, 42, 43, 44, 45, 46, 47, 48, 49, 50, 51, 52, 53, 54, 55, 56, 57, 58, 59, 60, 61, 62, 63, 64, 65, 66, 67, 68, 69, 70, 71, 72, 73, 74, 75, 76, 77, 78, 79, 80, 81, 82, 83, 84, 85, 86, 87, 88, 89, 90, 91, 92, 93, 94, 95, 96, 97, 98, 99, 100, 101, 102, 103, 104, 105, 106, 107, 108, 109, 110, 111, 112, 113, 114, 115, 116, 117, 118, 119, 120, 121, 122, 123, 124, 125, 126, 127, 128, 129, 130, 131, 132, 133, 134, 135, 136, 137, 138, 139, 140, 141, 142, 143, 144, 145, 146, 147, 148, 149, 150, 151, 152, 153, 154, 155, 156, 157, 158, 159, 160, 161, 162, 163, 164, 165, 166, 167, 168, 169, 170, 171, 172, 173, 174, 175, 176, 177, 178, 179, 180, 181, 182, 183, 184, 185, 186, 187, 188, 189, 190, 191, 192, 193, 194, 195, 196, 197, 198, 199, 200, 201, 202, 203, 204, 205, 206, 207, 208, 209, 210, 211, 212, 213, 214, 215, 216, 217, 218, 219, 220, 221, 222, 223, 224, 225, 226, 227, 228, 229, 230, 231, 232, 233, 234, 235, 236, 237, 238, 239, 240, 241, 242, 243, 244, 245, 246, 247, 248, 249, 250, 251, 252, 253, 254, 255, 256, 257, 258, 259, 260, 261, 262, 263, 264, 265, 266, 267, 268, 269, 270, 271, 272, 273, 274, 275, 276, 277, 278, 279, 280, 281, 282, 283, 284, 285, 286, 287, 288, 289, 290, 291, 292, 293, 294, 295, 296, 297, 298, 299, 300, 301, 302, 303, 304, 305, 306, 307, 308, 309, 310, 311, 312, 313, 314, 315, 316, 317, 318, 319, 320, 321, 322, 323, 324, 325, 326, 327, 328, 329, 330, 331, 332, 333, 334, 335, 336, 337, 338, 339, 340, 341, 342, 343, 344, 345, 346, 347, 348, 349, 350, 351, 352, 353, 354, 355, 356, 357, 358, 359, 360, 361, 362, 363, 364, 365, 366, 367, 368, 369, 370, 371, 372, 373, 374, 375, 376, 377, 378, 379, 380, 381, 382, 383, 384, 385, 386, 387, 388, 389, 390, 391, 392, 393, 394, 395, 396, 397, 398, 399, 400, 401, 402, 403, 404, 405, 406, 407, 408, 409, 410, 411, 412, 413, 414, 415, 416, 417, 418, 419, 420, 421, 422, 423, 424, 425, 426, 427, 428, 429, 430, 431, 432, 433, 434, 435, 436, 437, 438, 439, 440, 441, 442, 443, 444, 445, 446, 447, 448, 449, 450, 451, 452, 453, 454, 455, 456, 457, 458, 459, 460, 461, 462, 463, 464, 465, 466, 467, 468, 469, 470, 471, 472, 473, 474, 475, 476, 477, 478, 479, 480, 481, 482, 483, 484, 485, 486, 487, 488, 489, 490, 491, 492, 493, 494, 495, 496, 497, 498, 499, 500, 501, 502, 503, 504, 505, 506, 507, 508, 509, 510, 511, 512, 513, 514, 515, 516, 517, 518, 519, 520, 521, 522, 523, 524, 525, 526, 527, 528, 529, 530, 531, 532, 533, 534, 535, 536, 537, 538, 539, 540, 541, 542, 543, 544, 545, 546, 547, 548, 549, 550, 551, 552, 553, 554, 555, 556, 557, 558, 559, 560, 561, 562, 563, 564, 565, 566, 567, 568, 569, 570, 571, 572, 573, 574, 575, 576, 577, 578, 579, 580, 581],
      "AcquisitionTime": ["131632.807500", "131633.595000", "131634.382500", "131635.172500", "131635.960000", "131636.747500", "131637.535000", "131638.325000", "131639.112500", "131639.900000", "131640.687500", "131641.477500", "131642.265000", "131643.052500", "131643.840000", "131644.630000", "131645.417500", "131646.205000", "131646.992500", "131647.782500", "131648.570000", "131649.357500", "131650.145000", "131650.935000", "131651.722500", "131652.510000", "131653.300000", "131654.087500", "131654.875000", "131655.662500", "131656.452500", "131657.240000", "131658.027500", "131658.815000", "131659.605000", "131700.392500", "131701.180000", "131701.967500", "131702.757500", "131703.545000", "131704.332500", "131705.120000", "131705.910000", "131706.697500", "131707.485000", "131708.272500", "131709.062500", "131709.850000", "131710.637500", "131711.427500", "131712.215000", "131713.002500", "131713.790000", "131714.580000", "131715.367500", "131716.155000", "131716.942500", "131717.732500", "131718.520000", "131719.307500", "131720.095000", "131720.885000", "131721.672500", "131722.460000", "131723.247500", "131724.037500", "131724.825000", "131725.612500", "131726.400000", "131727.190000", "131727.977500", "131728.765000", "131729.555000", "131730.342500", "131731.130000", "131731.917500", "131732.707500", "131733.495000", "131734.282500", "131735.070000", "131735.860000", "131736.647500", "131737.435000", "131738.222500", "131739.012500", "131739.800000", "131740.587500", "131741.375000", "131742.165000", "131742.952500", "131743.740000", "131744.530000", "131745.317500", "131746.105000", "131746.892500", "131747.682500", "131748.470000", "131749.257500", "131750.045000", "131750.835000", "131751.622500", "131752.410000", "131753.197500", "131753.987500", "131754.775000", "131755.562500", "131756.350000", "131757.140000", "131757.927500", "131758.715000", "131759.502500", "131800.292500", "131801.080000", "131801.867500", "131802.657500", "131803.445000", "131804.232500", "131805.020000", "131805.810000", "131806.597500", "131807.385000", "131808.172500", "131808.962500", "131809.750000", "131810.537500", "131811.325000", "131812.115000", "131812.902500", "131813.690000", "131814.477500", "131815.267500", "131816.055000", "131816.842500", "131817.630000", "131818.420000", "131819.207500", "131819.995000", "131820.785000", "131821.572500", "131822.360000", "131823.147500", "131823.937500", "131824.725000", "131825.512500", "131826.300000", "131827.090000", "131827.877500", "131828.665000", "131829.452500", "131830.242500", "131831.030000", "131831.817500", "131832.605000", "131833.395000", "131834.182500", "131834.970000", "131835.757500", "131836.547500", "131837.335000", "131838.122500", "131838.912500", "131839.700000", "131840.487500", "131841.275000", "131842.065000", "131842.852500", "131843.640000", "131844.427500", "131845.217500", "131846.005000", "131846.792500", "131847.580000", "131848.370000", "131849.157500", "131849.945000", "131850.732500", "131851.522500", "131852.310000", "131853.097500", "131853.885000", "131854.675000", "131855.462500", "131856.250000", "131857.040000", "131857.827500", "131858.615000", "131859.402500", "131900.192500", "131900.980000", "131901.767500", "131902.555000", "131903.345000", "131904.132500", "131904.920000", "131905.707500", "131906.497500", "131907.285000", "131908.072500", "131908.860000", "131909.650000", "131910.437500", "131911.225000", "131912.012500", "131912.802500", "131913.590000", "131914.377500", "131915.167500", "131915.955000", "131916.742500", "131917.530000", "131918.320000", "131919.107500", "131919.895000", "131920.682500", "131921.472500", "131922.260000", "131923.047500", "131923.835000", "131924.625000", "131925.412500", "131926.200000", "131926.987500", "131927.777500", "131928.565000", "131929.352500", "131930.140000", "131930.930000", "131931.717500", "131932.505000", "131933.295000", "131934.082500", "131934.870000", "131935.657500", "131936.447500", "131937.235000", "131938.022500", "131938.810000", "131939.600000", "131940.387500", "131941.175000", "131941.962500", "131942.752500", "131943.540000", "131944.327500", "131945.115000", "131945.905000", "131946.692500", "131947.480000", "131948.267500", "131949.057500", "131949.845000", "131950.632500", "131951.422500", "131952.210000", "131952.997500", "131953.785000", "131954.575000", "131955.362500", "131956.150000", "131956.937500", "131957.727500", "131958.515000", "131959.302500", "132000.090000", "132000.880000", "132001.667500", "132002.455000", "132003.242500", "132004.032500", "132004.820000", "132005.607500", "132006.395000", "132007.185000", "132007.972500", "132008.760000", "132009.550000", "132010.337500", "132011.125000", "132011.912500", "132012.702500", "132013.490000", "132014.277500", "132015.065000", "132015.855000", "132016.642500", "132017.430000", "132018.217500", "132019.007500", "132019.795000", "132020.582500", "132021.370000", "132022.160000", "132022.947500", "132023.735000", "132024.522500", "132025.312500", "132026.100000", "132026.887500", "132027.677500", "132028.465000", "132029.252500", "132030.040000", "132030.830000", "132031.617500", "132032.405000", "132033.192500", "132033.982500", "132034.770000", "132035.557500", "132036.345000", "132037.135000", "132037.922500", "132038.710000", "132039.497500", "132040.287500", "132041.075000", "132041.862500", "132042.650000", "132043.440000", "132044.227500", "132045.015000", "132045.805000", "132046.592500", "132047.380000", "132048.167500", "132048.957500", "132049.745000", "132050.532500", "132051.320000", "132052.110000", "132052.897500", "132053.685000", "132054.472500", "132055.262500", "132056.050000", "132056.837500", "132057.625000", "132058.415000", "132059.202500", "132059.990000", "132100.780000", "132101.567500", "132102.355000", "132103.142500", "132103.932500", "132104.720000", "132105.507500", "132106.295000", "132107.085000", "132107.872500", "132108.660000", "132109.447500", "132110.237500", "132111.025000", "132111.812500", "132112.600000", "132113.390000", "132114.177500", "132114.965000", "132115.752500", "132116.542500", "132117.330000", "132118.117500", "132118.907500", "132119.695000", "132120.482500", "132121.270000", "132122.060000", "132122.847500", "132123.635000", "132124.422500", "132125.212500", "132126.000000", "132126.787500", "132127.575000", "132128.365000", "132129.152500", "132129.940000", "132130.727500", "132131.517500", "132132.305000", "132133.092500", "132133.880000", "132134.670000", "132135.457500", "132136.245000", "132137.035000", "132137.822500", "132138.610000", "132139.397500", "132140.187500", "132140.975000", "132141.762500", "132142.550000", "132143.340000", "132144.127500", "132144.915000", "132145.702500", "132146.492500", "132147.280000", "132148.067500", "132148.855000", "132149.645000", "132150.432500", "132151.220000", "132152.007500", "132152.797500", "132153.585000", "132154.372500", "132155.162500", "132155.950000", "132156.737500", "132157.525000", "132158.315000", "132159.102500", "132159.890000", "132200.677500", "132201.467500", "132202.255000", "132203.042500", "132203.830000", "132204.620000", "132205.407500", "132206.195000", "132206.982500", "132207.772500", "132208.560000", "132209.347500", "132210.135000", "132210.925000", "132211.712500", "132212.500000", "132213.290000", "132214.077500", "132214.865000", "132215.652500", "132216.442500", "132217.230000", "132218.017500", "132218.805000", "132219.595000", "132220.382500", "132221.170000", "132221.957500", "132222.747500", "132223.535000", "132224.322500", "132225.110000", "132225.900000", "132226.687500", "132227.475000", "132228.262500", "132229.052500", "132229.840000", "132230.627500", "132231.417500", "132232.205000", "132232.992500", "132233.780000", "132234.570000", "132235.357500", "132236.145000", "132236.932500", "132237.722500", "132238.510000", "132239.297500", "132240.085000", "132240.875000", "132241.662500", "132242.450000", "132243.237500", "132244.027500", "132244.815000", "132245.602500", "132246.390000", "132247.180000", "132247.967500", "132248.755000", "132249.545000", "132250.332500", "132251.120000", "132251.907500", "132252.697500", "132253.485000", "132254.272500", "132255.060000", "132255.850000", "132256.637500", "132257.425000", "132258.212500", "132259.002500", "132259.790000", "132300.577500", "132301.365000", "132302.155000", "132302.942500", "132303.730000", "132304.517500", "132305.307500", "132306.095000", "132306.882500", "132307.672500", "132308.460000", "132309.247500", "132310.035000", "132310.825000", "132311.612500", "132312.400000", "132313.187500", "132313.977500", "132314.765000", "132315.552500", "132316.340000", "132317.130000", "132317.917500", "132318.705000", "132319.492500", "132320.282500", "132321.070000", "132321.857500", "132322.645000", "132323.435000", "132324.222500", "132325.010000", "132325.800000", "132326.587500", "132327.375000", "132328.162500", "132328.952500", "132329.740000", "132330.527500", "132331.315000", "132332.105000", "132332.892500", "132333.680000", "132334.467500", "132335.257500", "132336.045000", "132336.832500", "132337.620000", "132338.410000", "132339.197500", "132339.985000", "132340.772500", "132341.562500", "132342.350000", "132343.137500", "132343.927500", "132344.715000", "132345.502500", "132346.290000", "132347.080000", "132347.867500", "132348.655000", "132349.442500", "132350.232500", "132351.020000", "132351.807500", "132352.595000", "132353.385000", "132354.172500", "132354.960000", "132355.747500", "132356.537500", "132357.325000", "132358.112500", "132358.900000", "132359.690000", "132400.477500", "132401.265000", "132402.055000", "132402.842500", "132403.630000", "132404.417500", "132405.207500", "132405.995000", "132406.782500", "132407.570000", "132408.360000", "132409.147500", "132409.935000"],
      "ContentTime": ["131706.812000", "131706.812000", "131706.828000", "131706.828000", "131706.828000", "131706.828000", "131706.828000", "131706.828000", "131706.843000", "131706.843000", "131706.843000", "131706.843000", "131706.843000", "131706.843000", "131706.843000", "131706.859000", "131706.859000", "131706.859000", "131706.859000", "131706.859000", "131706.859000", "131706.859000", "131706.875000", "131706.875000", "131706.875000", "131706.875000", "131706.875000", "131706.875000", "131706.875000", "131706.890000", "131706.890000", "131706.890000", "131706.890000", "131706.890000", "131706.890000", "131706.890000", "131706.906000", "131706.906000", "131706.906000", "131706.906000", "131726.796000", "131726.796000", "131726.796000", "131726.796000", "131726.812000", "131726.812000", "131726.812000", "131726.812000", "131726.812000", "131726.812000", "131726.828000", "131726.828000", "131726.828000", "131726.828000", "131726.828000", "131726.828000", "131726.828000", "131726.843000", "131726.843000", "131726.843000", "131726.843000", "131726.843000", "131726.859000", "131726.859000", "131726.859000", "131746.796000", "131746.796000", "131746.796000", "131746.796000", "131746.796000", "131746.812000", "131746.812000", "131746.812000", "131746.812000", "131746.812000", "131746.812000", "131746.812000", "131746.828000", "131746.828000", "131746.828000", "131746.828000", "131746.828000", "131746.828000", "131746.828000", "131746.843000", "131746.843000", "131746.843000", "131746.843000", "131746.843000", "131746.843000", "131746.843000", "131806.796000", "131806.796000", "131806.796000", "131806.796000", "131806.796000", "131806.812000", "131806.812000", "131806.812000", "131806.812000", "131806.812000", "131806.812000", "131806.828000", "131806.828000", "131806.828000", "131806.828000", "131806.828000", "131806.843000", "131806.843000", "131806.843000", "131806.843000", "131806.843000", "131806.843000", "131806.859000", "131806.859000", "131806.859000", "131826.796000", "131826.796000", "131826.796000", "131826.796000", "131826.796000", "131826.812000", "131826.812000", "131826.812000", "131826.812000", "131826.812000", "131826.812000", "131826.812000", "131826.828000", "131826.828000", "131826.828000", "131826.828000", "131826.828000", "131826.843000", "131826.843000", "131826.843000", "131826.843000", "131826.843000", "131826.843000", "131826.859000", "131826.859000", "131826.859000", "131846.796000", "131846.796000", "131846.796000", "131846.796000", "131846.796000", "131846.812000", "131846.812000", "131846.812000", "131846.812000", "131846.812000", "131846.812000", "131846.812000", "131846.828000", "131846.828000", "131846.828000", "131846.828000", "131846.828000", "131846.828000", "131846.828000", "131846.843000", "131846.843000", "131846.843000", "131846.843000", "131846.859000", "131846.859000", "131906.796000", "131906.796000", "131906.796000", "131906.796000", "131906.796000", "131906.812000", "131906.812000", "131906.812000", "131906.812000", "131906.812000", "131906.812000", "131906.812000", "131906.828000", "131906.828000", "131906.828000", "131906.828000", "131906.828000", "131906.828000", "131906.843000", "131906.843000", "131906.843000", "131906.843000", "131906.843000", "131906.843000", "131906.859000", "131906.859000", "131926.796000", "131926.796000", "131926.796000", "131926.796000", "131926.796000", "131926.812000", "131926.812000", "131926.812000", "131926.812000", "131926.812000", "131926.812000", "131926.828000", "131926.828000", "131926.828000", "131926.828000", "131926.828000", "131926.828000", "131926.828000", "131926.843000", "131926.843000", "131926.843000", "131926.843000", "131926.843000", "131926.843000", "131926.843000", "131946.796000", "131946.796000", "131946.796000", "131946.796000", "131946.796000", "131946.812000", "131946.812000", "131946.812000", "131946.812000", "131946.812000", "131946.812000", "131946.812000", "131946.828000", "131946.828000", "131946.828000", "131946.828000", "131946.828000", "131946.828000", "131946.828000", "131946.843000", "131946.843000", "131946.843000", "131946.843000", "131946.843000", "131946.843000", "131946.843000", "132006.796000", "132006.796000", "132006.796000", "132006.796000", "132006.796000", "132006.812000", "132006.812000", "132006.812000", "132006.812000", "132006.812000", "132006.812000", "132006.812000", "132006.828000", "132006.828000", "132006.828000", "132006.828000", "132006.828000", "132006.828000", "132006.828000", "132006.843000", "132006.843000", "132006.843000", "132006.843000", "132006.843000", "132006.843000", "132026.796000", "132026.796000", "132026.796000", "132026.796000", "132026.796000", "132026.812000", "132026.812000", "132026.812000", "132026.812000", "132026.812000", "132026.812000", "132026.812000", "132026.828000", "132026.828000", "132026.828000", "132026.828000", "132026.828000", "132026.828000", "132026.843000", "132026.843000", "132026.843000", "132026.843000", "132026.843000", "132026.843000", "132026.843000", "132026.859000", "132046.796000", "132046.796000", "132046.796000", "132046.796000", "132046.796000", "132046.812000", "132046.812000", "132046.812000", "132046.812000", "132046.812000", "132046.812000", "132046.812000", "132046.828000", "132046.828000", "132046.828000", "132046.828000", "132046.828000", "132046.828000", "132046.828000", "132046.843000", "132046.843000", "132046.843000", "132046.843000", "132046.843000", "132046.843000", "132106.796000", "132106.796000", "132106.796000", "132106.796000", "132106.796000", "132106.812000", "132106.812000", "132106.812000", "132106.812000", "132106.812000", "132106.812000", "132106.812000", "132106.828000", "132106.828000", "132106.828000", "132106.828000", "132106.828000", "132106.828000", "132106.828000", "132106.843000", "132106.843000", "132106.843000", "132106.843000", "132106.859000", "132106.859000", "132106.859000", "132126.796000", "132126.796000", "132126.796000", "132126.796000", "132126.796000", "132126.812000", "132126.812000", "132126.812000", "132126.812000", "132126.812000", "132126.812000", "132126.812000", "132126.828000", "132126.828000", "132126.828000", "132126.828000", "132126.828000", "132126.828000", "132126.828000", "132126.843000", "132126.843000", "132126.843000", "132126.843000", "132126.843000", "132126.843000", "132146.796000", "132146.796000", "132146.796000", "132146.796000", "132146.796000", "132146.812000", "132146.812000", "132146.812000", "132146.812000", "132146.812000", "132146.812000", "132146.812000", "132146.828000", "132146.828000", "132146.828000", "132146.828000", "132146.828000", "132146.828000", "132146.828000", "132146.843000", "132146.843000", "132146.843000", "132146.843000", "132146.843000", "132146.843000", "132146.843000", "132206.796000", "132206.796000", "132206.796000", "132206.796000", "132206.796000", "132206.812000", "132206.812000", "132206.812000", "132206.812000", "132206.812000", "132206.812000", "132206.812000", "132206.828000", "132206.828000", "132206.828000", "132206.828000", "132206.828000", "132206.828000", "132206.828000", "132206.843000", "132206.843000", "132206.843000", "132206.843000", "132206.843000", "132206.843000", "132226.796000", "132226.796000", "132226.796000", "132226.796000", "132226.796000", "132226.812000", "132226.812000", "132226.812000", "132226.812000", "132226.812000", "132226.812000", "132226.812000", "132226.828000", "132226.828000", "132226.828000", "132226.828000", "132226.828000", "132226.828000", "132226.843000", "132226.843000", "132226.843000", "132226.843000", "132226.843000", "132226.843000", "132226.843000", "132226.859000", "132246.796000", "132246.796000", "132246.796000", "132246.796000", "132246.796000", "132246.812000", "132246.812000", "132246.812000", "132246.812000", "132246.812000", "132246.812000", "132246.812000", "132246.828000", "132246.828000", "132246.828000", "132246.828000", "132246.828000", "132246.828000", "132246.843000", "132246.843000", "132246.843000", "132246.843000", "132246.843000", "132246.843000", "132246.859000", "132306.796000", "132306.796000", "132306.796000", "132306.796000", "132306.796000", "132306.812000", "132306.812000", "132306.812000", "132306.812000", "132306.812000", "132306.812000", "132306.812000", "132306.828000", "132306.828000", "132306.828000", "132306.828000", "132306.828000", "132306.828000", "132306.828000", "132306.843000", "132306.843000", "132306.843000", "132306.843000", "132306.843000", "132306.859000", "132306.859000", "132326.796000", "132326.796000", "132326.796000", "132326.796000", "132326.796000", "132326.812000", "132326.812000", "132326.812000", "132326.812000", "132326.812000", "132326.812000", "132326.812000", "132326.828000", "132326.828000", "132326.828000", "132326.828000", "132326.828000", "132326.828000", "132326.828000", "132326.843000", "132326.843000", "132326.843000", "132326.843000", "132326.843000", "132326.843000", "132346.796000", "132346.796000", "132346.796000", "132346.796000", "132346.796000", "132346.812000", "132346.812000", "132346.812000", "132346.812000", "132346.812000", "132346.812000", "132346.828000", "132346.828000", "132346.828000", "132346.828000", "132346.828000", "132346.843000", "132346.843000", "132346.843000", "132346.843000", "132346.843000", "132346.843000", "132346.843000", "132346.859000", "132346.859000", "132346.859000", "132406.796000", "132406.796000", "132406.796000", "132406.796000", "132406.796000", "132406.812000", "132406.812000", "132406.812000", "132406.812000", "132406.812000", "132406.812000", "132406.812000", "132406.828000", "132406.828000", "132406.828000", "132406.828000", "132406.828000", "132406.828000", "132406.828000", "132406.843000", "132406.843000", "132406.843000", "132406.843000", "132406.859000", "132406.859000", "132411.156000", "132411.156000", "132411.156000", "132411.171000", "132411.171000", "132411.171000"],
      "DataSetTrailingPadding": [
        "\u0000\u0000\u0000\u0000\u0000\u0000\u0000\u0000\u0000\u0000\u0000\u0000\u0000\u0000\u0000\u0000\u0000\u0000\u0000\u0000\u0000\u0000\u0000\u0000\u0000\u0000\u0000\u0000\u0000\u0000\u0000\u0000\u0000\u0000\u0000\u0000\u0000\u0000\u0000\u0000\u0000\u0000\u0000\u0000\u0000\u0000\u0000\u0000\u0000\u0000\u0000\u0000\u0000\u0000\u0000\u0000\u0000\u0000\u0000\u0000\u0000\u0000\u0000\u0000\u0000\u0000\u0000\u0000\u0000\u0000\u0000\u0000\u0000\u0000\u0000\u0000\u0000\u0000\u0000\u0000\u0000\u0000\u0000\u0000\u0000\u0000\u0000\u0000\u0000\u0000\u0000\u0000\u0000\u0000\u0000\u0000\u0000\u0000\u0000\u0000\u0000\u0000\u0000\u0000\u0000\u0000\u0000\u0000\u0000\u0000\u0000\u0000\u0000\u0000\u0000\u0000\u0000\u0000\u0000\u0000\u0000\u0000\u0000\u0000\u0000\u0000\u0000\u0000\u0000\u0000\u0000\u0000\u0000\u0000\u0000\u0000\u0000\u0000\u0000\u0000\u0000\u0000\u0000\u0000",
        "\u0000\u0000\u0000\u0000\u0000\u0000\u0000\u0000\u0000\u0000\u0000\u0000\u0000\u0000\u0000\u0000\u0000\u0000\u0000\u0000\u0000\u0000\u0000\u0000\u0000\u0000\u0000\u0000\u0000\u0000\u0000\u0000\u0000\u0000\u0000\u0000\u0000\u0000\u0000\u0000\u0000\u0000\u0000\u0000\u0000\u0000\u0000\u0000\u0000\u0000\u0000\u0000\u0000\u0000\u0000\u0000\u0000\u0000\u0000\u0000\u0000\u0000\u0000\u0000\u0000\u0000\u0000\u0000\u0000\u0000\u0000\u0000\u0000\u0000\u0000\u0000\u0000\u0000\u0000\u0000\u0000\u0000\u0000\u0000\u0000\u0000\u0000\u0000\u0000\u0000\u0000\u0000\u0000\u0000\u0000\u0000\u0000\u0000\u0000\u0000\u0000\u0000\u0000\u0000\u0000\u0000\u0000\u0000\u0000\u0000\u0000\u0000\u0000\u0000\u0000\u0000\u0000\u0000\u0000\u0000\u0000\u0000\u0000\u0000\u0000\u0000\u0000\u0000\u0000\u0000\u0000\u0000\u0000\u0000\u0000\u0000\u0000\u0000\u0000\u0000\u0000\u0000\u0000\u0000",
