{
  "AcquisitionMatrixPE": 104,
  "AcquisitionNumber": 1,
  "AcquisitionTime": "13:07:49.707500",
  "BandwidthPerPixelPhaseEncode": 13.935,
  "BaseResolution": 104,
  "CoilString": "C:HEA;HEP",
  "ConversionSoftware": "dcm2niix",
  "ConversionSoftwareVersion": "v1.0.20210317",
  "DerivedVendorReportedEchoSpacing": 0.000690017,
  "DeviceSerialNumber": "35450",
  "DwellTime": 2.5e-06,
  "EchoTime": 0.0348,
  "EffectiveEchoSpacing": 0.000690017,
  "FlipAngle": 55,
  "ImageComments": "Unaliased MB8/PE3 (remote)",
  "ImageOrientationPatientDICOM": [1, 0, 0, 0, 0.996041, -0.0888943],
  "ImageType": [
    "ORIGINAL",
    "PRIMARY",
    "M",
    "MB",
    "ND",
    "MOSAIC"
],
  "ImagingFrequency": 123.234,
  "InPlanePhaseEncodingDirectionDICOM": "COL",
  "InstitutionAddress": "Univeristy Ave. 197,Newark,North East,US,07102-1814",
  "InstitutionName": "RUBIC",
  "InstitutionalDepartmentName": "Department",
  "MRAcquisitionType": "2D",
  "MagneticFieldStrength": 3,
  "Manufacturer": "Siemens",
  "ManufacturersModelName": "TrioTim",
  "Modality": "MR",
  "MultibandAccelerationFactor": 8,
  "PartialFourier": 0.875,
  "PatientPosition": "HFS",
  "PercentPhaseFOV": 100,
  "PercentSampling": 100,
  "PhaseEncodingDirection": "j-",
  "PhaseEncodingSteps": 91,
  "PhaseResolution": 1,
  "PixelBandwidth": 1923,
  "ProcedureStepDescription": "Cole^Michael",
  "ProtocolName": "cmrr_mbep2d_bold_2mm_MB8_Task_8x",
  "PulseSequenceDetails": "%CustomerSeq%\\cmrr_mbep2d_bold",
  "ReceiveCoilName": "32Ch_Head",
  "ReconMatrixPE": 104,
  "RepetitionTime": 0.785,
  "SAR": 0.160542,
  "ScanOptions": "PFP\\FS",
  "ScanningSequence": "EP",
  "SequenceName": "epfid2d1_104",
  "SequenceVariant": "SK\\SS",
  "SeriesDescription": "cmrr_mbep2d_bold_2mm_MB8_Task_8x",
  "SeriesNumber": 15,
  "ShimSetting": [2120, -357, -7295, 248, -191, -334, 409, 68],
  "SliceThickness": 2,
  "SliceTiming": [0, 0.4375, 0.0875, 0.525, 0.175, 0.6125, 0.2625, 0.7, 0.35, 0, 0.4375, 0.0875, 0.525, 0.175, 0.6125, 0.2625, 0.7, 0.35, 0, 0.4375, 0.0875, 0.525, 0.175, 0.6125, 0.2625, 0.7, 0.35, 0, 0.4375, 0.0875, 0.525, 0.175, 0.6125, 0.2625, 0.7, 0.35, 0, 0.4375, 0.0875, 0.525, 0.175, 0.6125, 0.2625, 0.7, 0.35, 0, 0.4375, 0.0875, 0.525, 0.175, 0.6125, 0.2625, 0.7, 0.35, 0, 0.4375, 0.0875, 0.525, 0.175, 0.6125, 0.2625, 0.7, 0.35, 0, 0.4375, 0.0875, 0.525, 0.175, 0.6125, 0.2625, 0.7, 0.35],
  "SoftwareVersions": "syngo MR B19",
  "SpacingBetweenSlices": 2,
  "StationName": "MRC35450",
  "TaskName": "cpro",
  "TotalReadoutTime": 0.0710717,
  "TxRefAmp": 387.576,
  "dcmmeta_affine": [
    [-2.0, 0.0, 0.0, 106.71186828613281],
    [0.0, 1.992082118988037, -0.17778858542442322, -84.44245147705078],
    [0.0, 0.17778858542442322, 1.992082118988037, -117.59058380126953],
    [0.0, 0.0, 0.0, 1.0]
],
  "dcmmeta_reorient_transform": [
    [0.0, -1.0, 0.0, 103.0],
    [1.0, 0.0, 0.0, 0.0],
    [0.0, 0.0, 1.0, 0.0],
    [0.0, 0.0, 0.0, 1.0]
],
  "dcmmeta_shape": [104, 104, 72, 581],
  "dcmmeta_slice_dim": 2,
  "dcmmeta_version": 0.6,
  "global": {
    "const": {
      "AcquisitionMatrix": [104, 0, 0, 104],
      "AngioFlag": "N",
      "BitsAllocated": 16,
      "BitsStored": 12,
      "Columns": 936,
      "EchoNumbers": 1,
      "EchoTime": 34.8,
      "EchoTrainLength": 1,
      "FlipAngle": 55.0,
      "HighBit": 11,
      "ImageOrientationPatient": [1.0, 0.0, 0.0, 0.0, 0.99604106564855, -0.0888942942022],
      "ImagePositionPatient": [-938.71186447144, -949.4481716542, -25.318309462201],
      "ImageType": [
        "ORIGINAL",
        "PRIMARY",
        "M",
        "MB",
        "ND",
        "MOSAIC"
],
      "ImagedNucleus": "1H",
      "ImagingFrequency": 123.234486,
      "InPlanePhaseEncodingDirection": "COL",
      "MRAcquisitionType": "2D",
      "MagneticFieldStrength": 3.0,
      "Manufacturer": "SIEMENS",
      "ManufacturerModelName": "TrioTim",
      "Modality": "MR",
      "NumberOfAverages": 1.0,
      "NumberOfPhaseEncodingSteps": 91,
      "PercentPhaseFieldOfView": 100.0,
      "PercentSampling": 100.0,
      "PerformedProcedureStepStartTime": "114652.625000",
      "PhotometricInterpretation": "MONOCHROME2",
      "PixelBandwidth": 1923.0,
      "PixelRepresentation": 0,
      "PixelSpacing": [2.0, 2.0],
      "ProtocolName": "cmrr_mbep2d_bold_2mm_MB8_Task_8x",
      "RepetitionTime": 785.0,
      "Rows": 936,
      "SAR": 0.16054221632419,
      "SamplesPerPixel": 1,
      "ScanOptions": [
        "PFP",
        "FS"
],
      "ScanningSequence": "EP",
      "SequenceName": "epfid2d1_104",
      "SequenceVariant": [
        "SK",
        "SS"
],
      "SeriesDescription": "cmrr_mbep2d_bold_2mm_MB8_Task_8x",
      "SeriesNumber": 15,
      "SeriesTime": "130826.828000",
      "SliceLocation": -109.61860103791,
      "SliceThickness": 2.0,
      "SmallestImagePixelValue": 0,
      "SoftwareVersions": "syngo MR B19",
      "SpacingBetweenSlices": 2.000000009446,
      "SpecificCharacterSet": "ISO_IR 100",
      "StudyID": "1",
      "StudyTime": "114652.593000",
      "TransmitCoilName": "Body",
      "VariableFlipAngleFlag": "N",
      "WindowCenterWidthExplanation": "Algo1",
      "dBdt": 0.0},
    "slices": {}
  },
  "time": {
    "samples": {
      "AcquisitionNumber": [1, 2, 3, 4, 5, 6, 7, 8, 9, 10, 11, 12, 13, 14, 15, 16, 17, 18, 19, 20, 21, 22, 23, 24, 25, 26, 27, 28, 29, 30, 31, 32, 33, 34, 35, 36, 37, 38, 39, 40, 41, 42, 43, 44, 45, 46, 47, 48, 49, 50, 51, 52, 53, 54, 55, 56, 57, 58, 59, 60, 61, 62, 63, 64, 65, 66, 67, 68, 69, 70, 71, 72, 73, 74, 75, 76, 77, 78, 79, 80, 81, 82, 83, 84, 85, 86, 87, 88, 89, 90, 91, 92, 93, 94, 95, 96, 97, 98, 99, 100, 101, 102, 103, 104, 105, 106, 107, 108, 109, 110, 111, 112, 113, 114, 115, 116, 117, 118, 119, 120, 121, 122, 123, 124, 125, 126, 127, 128, 129, 130, 131, 132, 133, 134, 135, 136, 137, 138, 139, 140, 141, 142, 143, 144, 145, 146, 147, 148, 149, 150, 151, 152, 153, 154, 155, 156, 157, 158, 159, 160, 161, 162, 163, 164, 165, 166, 167, 168, 169, 170, 171, 172, 173, 174, 175, 176, 177, 178, 179, 180, 181, 182, 183, 184, 185, 186, 187, 188, 189, 190, 191, 192, 193, 194, 195, 196, 197, 198, 199, 200, 201, 202, 203, 204, 205, 206, 207, 208, 209, 210, 211, 212, 213, 214, 215, 216, 217, 218, 219, 220, 221, 222, 223, 224, 225, 226, 227, 228, 229, 230, 231, 232, 233, 234, 235, 236, 237, 238, 239, 240, 241, 242, 243, 244, 245, 246, 247, 248, 249, 250, 251, 252, 253, 254, 255, 256, 257, 258, 259, 260, 261, 262, 263, 264, 265, 266, 267, 268, 269, 270, 271, 272, 273, 274, 275, 276, 277, 278, 279, 280, 281, 282, 283, 284, 285, 286, 287, 288, 289, 290, 291, 292, 293, 294, 295, 296, 297, 298, 299, 300, 301, 302, 303, 304, 305, 306, 307, 308, 309, 310, 311, 312, 313, 314, 315, 316, 317, 318, 319, 320, 321, 322, 323, 324, 325, 326, 327, 328, 329, 330, 331, 332, 333, 334, 335, 336, 337, 338, 339, 340, 341, 342, 343, 344, 345, 346, 347, 348, 349, 350, 351, 352, 353, 354, 355, 356, 357, 358, 359, 360, 361, 362, 363, 364, 365, 366, 367, 368, 369, 370, 371, 372, 373, 374, 375, 376, 377, 378, 379, 380, 381, 382, 383, 384, 385, 386, 387, 388, 389, 390, 391, 392, 393, 394, 395, 396, 397, 398, 399, 400, 401, 402, 403, 404, 405, 406, 407, 408, 409, 410, 411, 412, 413, 414, 415, 416, 417, 418, 419, 420, 421, 422, 423, 424, 425, 426, 427, 428, 429, 430, 431, 432, 433, 434, 435, 436, 437, 438, 439, 440, 441, 442, 443, 444, 445, 446, 447, 448, 449, 450, 451, 452, 453, 454, 455, 456, 457, 458, 459, 460, 461, 462, 463, 464, 465, 466, 467, 468, 469, 470, 471, 472, 473, 474, 475, 476, 477, 478, 479, 480, 481, 482, 483, 484, 485, 486, 487, 488, 489, 490, 491, 492, 493, 494, 495, 496, 497, 498, 499, 500, 501, 502, 503, 504, 505, 506, 507, 508, 509, 510, 511, 512, 513, 514, 515, 516, 517, 518, 519, 520, 521, 522, 523, 524, 525, 526, 527, 528, 529, 530, 531, 532, 533, 534, 535, 536, 537, 538, 539, 540, 541, 542, 543, 544, 545, 546, 547, 548, 549, 550, 551, 552, 553, 554, 555, 556, 557, 558, 559, 560, 561, 562, 563, 564, 565, 566, 567, 568, 569, 570, 571, 572, 573, 574, 575, 576, 577, 578, 579, 580, 581],
      "AcquisitionTime": ["130749.707500", "130750.495000", "130751.282500", "130752.072500", "130752.860000", "130753.647500", "130754.435000", "130755.225000", "130756.012500", "130756.800000", "130757.590000", "130758.377500", "130759.165000", "130759.952500", "130800.742500", "130801.530000", "130802.317500", "130803.105000", "130803.895000", "130804.682500", "130805.470000", "130806.257500", "130807.047500", "130807.835000", "130808.622500", "130809.410000", "130810.200000", "130810.987500", "130811.775000", "130812.562500", "130813.352500", "130814.140000", "130814.927500", "130815.717500", "130816.505000", "130817.292500", "130818.080000", "130818.870000", "130819.657500", "130820.445000", "130821.232500", "130822.022500", "130822.810000", "130823.597500", "130824.385000", "130825.175000", "130825.962500", "130826.750000", "130827.537500", "130828.327500", "130829.115000", "130829.902500", "130830.690000", "130831.480000", "130832.267500", "130833.055000", "130833.845000", "130834.632500", "130835.420000", "130836.207500", "130836.997500", "130837.785000", "130838.572500", "130839.360000", "130840.150000", "130840.937500", "130841.725000", "130842.512500", "130843.302500", "130844.090000", "130844.877500", "130845.665000", "130846.455000", "130847.242500", "130848.030000", "130848.817500", "130849.607500", "130850.395000", "130851.182500", "130851.972500", "130852.760000", "130853.547500", "130854.335000", "130855.125000", "130855.912500", "130856.700000", "130857.487500", "130858.277500", "130859.065000", "130859.852500", "130900.640000", "130901.430000", "130902.217500", "130903.005000", "130903.792500", "130904.582500", "130905.370000", "130906.157500", "130906.945000", "130907.735000", "130908.522500", "130909.310000", "130910.100000", "130910.887500", "130911.675000", "130912.462500", "130913.252500", "130914.040000", "130914.827500", "130915.615000", "130916.405000", "130917.192500", "130917.980000", "130918.767500", "130919.557500", "130920.345000", "130921.132500", "130921.920000", "130922.710000", "130923.497500", "130924.285000", "130925.072500", "130925.862500", "130926.650000", "130927.437500", "130928.227500", "130929.015000", "130929.802500", "130930.590000", "130931.380000", "130932.167500", "130932.955000", "130933.742500", "130934.532500", "130935.320000", "130936.107500", "130936.895000", "130937.685000", "130938.472500", "130939.260000", "130940.047500", "130940.837500", "130941.625000", "130942.412500", "130943.200000", "130943.990000", "130944.777500", "130945.565000", "130946.355000", "130947.142500", "130947.930000", "130948.717500", "130949.507500", "130950.295000", "130951.082500", "130951.870000", "130952.660000", "130953.447500", "130954.235000", "130955.022500", "130955.812500", "130956.600000", "130957.387500", "130958.175000", "130958.965000", "130959.752500", "131000.540000", "131001.327500", "131002.117500", "131002.905000", "131003.692500", "131004.482500", "131005.270000", "131006.057500", "131006.845000", "131007.635000", "131008.422500", "131009.210000", "131009.997500", "131010.787500", "131011.575000", "131012.362500", "131013.150000", "131013.940000", "131014.727500", "131015.515000", "131016.302500", "131017.092500", "131017.880000", "131018.667500", "131019.455000", "131020.245000", "131021.032500", "131021.820000", "131022.610000", "131023.397500", "131024.185000", "131024.972500", "131025.762500", "131026.550000", "131027.337500", "131028.125000", "131028.915000", "131029.702500", "131030.490000", "131031.277500", "131032.067500", "131032.855000", "131033.642500", "131034.430000", "131035.220000", "131036.007500", "131036.795000", "131037.585000", "131038.372500", "131039.160000", "131039.947500", "131040.737500", "131041.525000", "131042.312500", "131043.100000", "131043.890000", "131044.677500", "131045.465000", "131046.252500", "131047.042500", "131047.830000", "131048.617500", "131049.405000", "131050.195000", "131050.982500", "131051.770000", "131052.557500", "131053.347500", "131054.135000", "131054.922500", "131055.712500", "131056.500000", "131057.287500", "131058.075000", "131058.865000", "131059.652500", "131100.440000", "131101.227500", "131102.017500", "131102.805000", "131103.592500", "131104.380000", "131105.170000", "131105.957500", "131106.745000", "131107.532500", "131108.322500", "131109.110000", "131109.897500", "131110.685000", "131111.475000", "131112.262500", "131113.050000", "131113.840000", "131114.627500", "131115.415000", "131116.202500", "131116.992500", "131117.780000", "131118.567500", "131119.355000", "131120.145000", "131120.932500", "131121.720000", "131122.507500", "131123.297500", "131124.085000", "131124.872500", "131125.660000", "131126.450000", "131127.237500", "131128.025000", "131128.812500", "131129.602500", "131130.390000", "131131.177500", "131131.967500", "131132.755000", "131133.542500", "131134.330000", "131135.120000", "131135.907500", "131136.695000", "131137.482500", "131138.272500", "131139.060000", "131139.847500", "131140.635000", "131141.425000", "131142.212500", "131143.000000", "131143.787500", "131144.577500", "131145.365000", "131146.152500", "131146.940000", "131147.730000", "131148.517500", "131149.305000", "131150.095000", "131150.882500", "131151.670000", "131152.457500", "131153.247500", "131154.035000", "131154.822500", "131155.610000", "131156.400000", "131157.187500", "131157.975000", "131158.762500", "131159.552500", "131200.340000", "131201.127500", "131201.915000", "131202.705000", "131203.492500", "131204.280000", "131205.067500", "131205.857500", "131206.645000", "131207.432500", "131208.222500", "131209.010000", "131209.797500", "131210.585000", "131211.375000", "131212.162500", "131212.950000", "131213.737500", "131214.527500", "131215.315000", "131216.102500", "131216.890000", "131217.680000", "131218.467500", "131219.255000", "131220.042500", "131220.832500", "131221.620000", "131222.407500", "131223.195000", "131223.985000", "131224.772500", "131225.560000", "131226.350000", "131227.137500", "131227.925000", "131228.712500", "131229.502500", "131230.290000", "131231.077500", "131231.865000", "131232.655000", "131233.442500", "131234.230000", "131235.017500", "131235.807500", "131236.595000", "131237.382500", "131238.170000", "131238.960000", "131239.747500", "131240.535000", "131241.322500", "131242.112500", "131242.900000", "131243.687500", "131244.477500", "131245.265000", "131246.052500", "131246.840000", "131247.630000", "131248.417500", "131249.205000", "131249.992500", "131250.782500", "131251.570000", "131252.357500", "131253.145000", "131253.935000", "131254.722500", "131255.510000", "131256.297500", "131257.087500", "131257.875000", "131258.662500", "131259.450000", "131300.240000", "131301.027500", "131301.815000", "131302.605000", "131303.392500", "131304.180000", "131304.967500", "131305.757500", "131306.545000", "131307.332500", "131308.120000", "131308.910000", "131309.697500", "131310.485000", "131311.272500", "131312.062500", "131312.850000", "131313.637500", "131314.425000", "131315.215000", "131316.002500", "131316.790000", "131317.577500", "131318.367500", "131319.155000", "131319.942500", "131320.732500", "131321.520000", "131322.307500", "131323.095000", "131323.885000", "131324.672500", "131325.460000", "131326.247500", "131327.037500", "131327.825000", "131328.612500", "131329.400000", "131330.190000", "131330.977500", "131331.765000", "131332.552500", "131333.342500", "131334.130000", "131334.917500", "131335.705000", "131336.495000", "131337.282500", "131338.070000", "131338.860000", "131339.647500", "131340.435000", "131341.222500", "131342.012500", "131342.800000", "131343.587500", "131344.375000", "131345.165000", "131345.952500", "131346.740000", "131347.527500", "131348.317500", "131349.105000", "131349.892500", "131350.680000", "131351.470000", "131352.257500", "131353.045000", "131353.835000", "131354.622500", "131355.410000", "131356.197500", "131356.987500", "131357.775000", "131358.562500", "131359.350000", "131400.140000", "131400.927500", "131401.715000", "131402.502500", "131403.292500", "131404.080000", "131404.867500", "131405.655000", "131406.445000", "131407.232500", "131408.020000", "131408.807500", "131409.597500", "131410.385000", "131411.172500", "131411.962500", "131412.750000", "131413.537500", "131414.325000", "131415.115000", "131415.902500", "131416.690000", "131417.477500", "131418.267500", "131419.055000", "131419.842500", "131420.630000", "131421.420000", "131422.207500", "131422.995000", "131423.782500", "131424.572500", "131425.360000", "131426.147500", "131426.935000", "131427.725000", "131428.512500", "131429.300000", "131430.090000", "131430.877500", "131431.665000", "131432.452500", "131433.242500", "131434.030000", "131434.817500", "131435.605000", "131436.395000", "131437.182500", "131437.970000", "131438.757500", "131439.547500", "131440.335000", "131441.122500", "131441.910000", "131442.700000", "131443.487500", "131444.275000", "131445.062500", "131445.852500", "131446.640000", "131447.427500", "131448.217500", "131449.005000", "131449.792500", "131450.580000", "131451.370000", "131452.157500", "131452.945000", "131453.732500", "131454.522500", "131455.310000", "131456.097500", "131456.885000", "131457.675000", "131458.462500", "131459.250000", "131500.037500", "131500.827500", "131501.615000", "131502.402500", "131503.190000", "131503.980000", "131504.767500", "131505.555000", "131506.345000", "131507.132500", "131507.920000", "131508.707500", "131509.497500", "131510.285000", "131511.072500", "131511.860000", "131512.650000", "131513.437500", "131514.225000", "131515.012500", "131515.802500", "131516.590000", "131517.377500", "131518.165000", "131518.955000", "131519.742500", "131520.530000", "131521.317500", "131522.107500", "131522.895000", "131523.682500", "131524.472500", "131525.260000", "131526.047500", "131526.835000"],
      "ContentTime": ["130826.828000", "130826.843000", "130826.843000", "130826.843000", "130826.843000", "130826.843000", "130826.843000", "130826.843000", "130826.859000", "130826.859000", "130826.859000", "130826.859000", "130826.859000", "130826.859000", "130826.859000", "130826.859000", "130826.875000", "130826.875000", "130826.875000", "130826.875000", "130826.875000", "130826.875000", "130826.890000", "130826.890000", "130826.890000", "130826.890000", "130826.890000", "130826.890000", "130826.906000", "130826.906000", "130826.906000", "130826.906000", "130826.906000", "130826.906000", "130826.906000", "130826.921000", "130826.921000", "130826.921000", "130826.921000", "130826.921000", "130826.921000", "130826.921000", "130826.937000", "130826.937000", "130826.937000", "130846.812000", "130846.812000", "130846.812000", "130846.828000", "130846.828000", "130846.828000", "130846.828000", "130846.828000", "130846.828000", "130846.843000", "130846.843000", "130846.843000", "130846.843000", "130846.843000", "130846.859000", "130846.859000", "130846.859000", "130846.859000", "130846.875000", "130846.875000", "130846.875000", "130846.875000", "130846.875000", "130846.875000", "130846.875000", "130906.812000", "130906.812000", "130906.812000", "130906.828000", "130906.828000", "130906.828000", "130906.828000", "130906.828000", "130906.843000", "130906.843000", "130906.843000", "130906.843000", "130906.843000", "130906.843000", "130906.843000", "130906.859000", "130906.859000", "130906.859000", "130906.859000", "130906.859000", "130906.859000", "130906.859000", "130906.875000", "130906.875000", "130906.875000", "130926.812000", "130926.812000", "130926.812000", "130926.812000", "130926.812000", "130926.828000", "130926.828000", "130926.828000", "130926.828000", "130926.828000", "130926.828000", "130926.828000", "130926.843000", "130926.843000", "130926.843000", "130926.843000", "130926.843000", "130926.843000", "130926.843000", "130926.859000", "130926.859000", "130926.859000", "130926.859000", "130926.859000", "130926.859000", "130926.859000", "130946.812000", "130946.812000", "130946.812000", "130946.812000", "130946.812000", "130946.828000", "130946.828000", "130946.828000", "130946.828000", "130946.828000", "130946.828000", "130946.828000", "130946.843000", "130946.843000", "130946.843000", "130946.843000", "130946.843000", "130946.859000", "130946.859000", "130946.859000", "130946.859000", "130946.859000", "130946.859000", "130946.859000", "130946.875000", "131006.812000", "131006.812000", "131006.812000", "131006.812000", "131006.812000", "131006.828000", "131006.828000", "131006.828000", "131006.828000", "131006.828000", "131006.828000", "131006.828000", "131006.828000", "131006.843000", "131006.843000", "131006.843000", "131006.843000", "131006.843000", "131006.843000", "131006.843000", "131006.859000", "131006.859000", "131006.859000", "131006.859000", "131006.859000", "131006.859000", "131026.812000", "131026.812000", "131026.812000", "131026.812000", "131026.812000", "131026.828000", "131026.828000", "131026.828000", "131026.828000", "131026.828000", "131026.828000", "131026.828000", "131026.843000", "131026.843000", "131026.843000", "131026.843000", "131026.843000", "131026.843000", "131026.859000", "131026.859000", "131026.859000", "131026.859000", "131026.859000", "131026.859000", "131026.875000", "131046.812000", "131046.812000", "131046.812000", "131046.812000", "131046.812000", "131046.828000", "131046.828000", "131046.828000", "131046.828000", "131046.828000", "131046.828000", "131046.828000", "131046.843000", "131046.843000", "131046.843000", "131046.843000", "131046.843000", "131046.843000", "131046.843000", "131046.859000", "131046.859000", "131046.859000", "131046.859000", "131046.859000", "131046.859000", "131046.875000", "131106.812000", "131106.812000", "131106.812000", "131106.812000", "131106.812000", "131106.828000", "131106.828000", "131106.828000", "131106.828000", "131106.828000", "131106.828000", "131106.828000", "131106.843000", "131106.843000", "131106.843000", "131106.843000", "131106.843000", "131106.843000", "131106.843000", "131106.859000", "131106.859000", "131106.859000", "131106.859000", "131106.859000", "131106.859000", "131126.812000", "131126.812000", "131126.812000", "131126.812000", "131126.812000", "131126.828000", "131126.828000", "131126.828000", "131126.828000", "131126.828000", "131126.828000", "131126.828000", "131126.843000", "131126.843000", "131126.843000", "131126.843000", "131126.843000", "131126.843000", "131126.843000", "131126.859000", "131126.859000", "131126.859000", "131126.859000", "131126.859000", "131126.859000", "131126.859000", "131146.812000", "131146.812000", "131146.812000", "131146.812000", "131146.812000", "131146.828000", "131146.828000", "131146.828000", "131146.828000", "131146.828000", "131146.828000", "131146.828000", "131146.843000", "131146.843000", "131146.843000", "131146.843000", "131146.843000", "131146.843000", "131146.843000", "131146.859000", "131146.859000", "131146.859000", "131146.859000", "131146.859000", "131146.859000", "131206.812000", "131206.812000", "131206.812000", "131206.812000", "131206.812000", "131206.828000", "131206.828000", "131206.828000", "131206.828000", "131206.828000", "131206.843000", "131206.843000", "131206.843000", "131206.843000", "131206.843000", "131206.843000", "131206.859000", "131206.859000", "131206.859000", "131206.859000", "131206.859000", "131206.859000", "131206.859000", "131206.875000", "131206.875000", "131206.875000", "131226.812000", "131226.812000", "131226.812000", "131226.812000", "131226.812000", "131226.828000", "131226.828000", "131226.828000", "131226.828000", "131226.828000", "131226.828000", "131226.828000", "131226.843000", "131226.843000", "131226.843000", "131226.843000", "131226.843000", "131226.843000", "131226.843000", "131226.859000", "131226.859000", "131226.859000", "131226.859000", "131226.859000", "131226.859000", "131246.812000", "131246.812000", "131246.812000", "131246.812000", "131246.812000", "131246.828000", "131246.828000", "131246.828000", "131246.828000", "131246.828000", "131246.828000", "131246.828000", "131246.843000", "131246.843000", "131246.843000", "131246.843000", "131246.843000", "131246.843000", "131246.859000", "131246.859000", "131246.859000", "131246.859000", "131246.859000", "131246.859000", "131246.875000", "131246.875000", "131306.812000", "131306.812000", "131306.812000", "131306.812000", "131306.812000", "131306.828000", "131306.828000", "131306.828000", "131306.828000", "131306.828000", "131306.828000", "131306.828000", "131306.843000", "131306.843000", "131306.843000", "131306.843000", "131306.843000", "131306.859000", "131306.859000", "131306.859000", "131306.859000", "131306.859000", "131306.859000", "131306.875000", "131306.875000", "131326.812000", "131326.812000", "131326.812000", "131326.812000", "131326.812000", "131326.828000", "131326.828000", "131326.828000", "131326.828000", "131326.843000", "131326.843000", "131326.843000", "131326.843000", "131326.843000", "131326.843000", "131326.859000", "131326.859000", "131326.859000", "131326.859000", "131326.859000", "131326.859000", "131326.875000", "131326.875000", "131326.875000", "131326.875000", "131326.875000", "131346.812000", "131346.812000", "131346.812000", "131346.812000", "131346.812000", "131346.828000", "131346.828000", "131346.828000", "131346.828000", "131346.828000", "131346.828000", "131346.828000", "131346.843000", "131346.843000", "131346.843000", "131346.843000", "131346.843000", "131346.843000", "131346.843000", "131346.859000", "131346.859000", "131346.859000", "131346.859000", "131346.859000", "131346.859000", "131406.812000", "131406.812000", "131406.812000", "131406.812000", "131406.812000", "131406.828000", "131406.828000", "131406.828000", "131406.828000", "131406.828000", "131406.828000", "131406.828000", "131406.843000", "131406.843000", "131406.843000", "131406.843000", "131406.843000", "131406.843000", "131406.843000", "131406.859000", "131406.859000", "131406.859000", "131406.859000", "131406.859000", "131406.875000", "131406.875000", "131426.812000", "131426.812000", "131426.812000", "131426.812000", "131426.812000", "131426.828000", "131426.828000", "131426.828000", "131426.828000", "131426.828000", "131426.828000", "131426.828000", "131426.843000", "131426.843000", "131426.843000", "131426.843000", "131426.843000", "131426.843000", "131426.843000", "131426.859000", "131426.859000", "131426.859000", "131426.859000", "131426.859000", "131426.859000", "131446.812000", "131446.812000", "131446.812000", "131446.812000", "131446.812000", "131446.828000", "131446.828000", "131446.828000", "131446.828000", "131446.828000", "131446.828000", "131446.828000", "131446.843000", "131446.843000", "131446.843000", "131446.843000", "131446.843000", "131446.859000", "131446.859000", "131446.859000", "131446.859000", "131446.859000", "131446.875000", "131446.875000", "131446.875000", "131446.875000", "131506.812000", "131506.812000", "131506.812000", "131506.812000", "131506.812000", "131506.828000", "131506.828000", "131506.828000", "131506.828000", "131506.828000", "131506.828000", "131506.843000", "131506.843000", "131506.843000", "131506.843000", "131506.843000", "131506.859000", "131506.859000", "131506.859000", "131506.859000", "131506.859000", "131506.859000", "131506.859000", "131506.875000", "131506.875000", "131526.812000", "131526.812000", "131526.812000", "131526.812000", "131526.812000", "131526.828000", "131526.828000", "131526.828000", "131526.828000", "131526.828000", "131526.828000", "131526.828000", "131526.843000", "131526.843000", "131526.843000", "131526.843000", "131526.843000", "131526.843000", "131526.843000", "131526.859000", "131526.859000", "131526.859000", "131526.859000", "131526.859000", "131526.859000", "131526.875000", "131527.625000"],
      "DataSetTrailingPadding": [
        "\u0000\u0000\u0000\u0000\u0000\u0000\u0000\u0000\u0000\u0000\u0000\u0000\u0000\u0000\u0000\u0000\u0000\u0000\u0000\u0000\u0000\u0000\u0000\u0000\u0000\u0000\u0000\u0000\u0000\u0000\u0000\u0000\u0000\u0000\u0000\u0000\u0000\u0000\u0000\u0000\u0000\u0000\u0000\u0000\u0000\u0000\u0000\u0000\u0000\u0000\u0000\u0000\u0000\u0000\u0000\u0000\u0000\u0000\u0000\u0000\u0000\u0000\u0000\u0000\u0000\u0000\u0000\u0000\u0000\u0000\u0000\u0000\u0000\u0000\u0000\u0000\u0000\u0000\u0000\u0000\u0000\u0000\u0000\u0000\u0000\u0000\u0000\u0000\u0000\u0000\u0000\u0000\u0000\u0000\u0000\u0000\u0000\u0000\u0000\u0000\u0000\u0000\u0000\u0000\u0000\u0000\u0000\u0000\u0000\u0000\u0000\u0000\u0000\u0000\u0000\u0000\u0000\u0000\u0000\u0000\u0000\u0000\u0000\u0000\u0000\u0000\u0000\u0000\u0000\u0000\u0000\u0000\u0000\u0000\u0000\u0000\u0000\u0000\u0000\u0000\u0000\u0000\u0000\u0000",
        "\u0000\u0000\u0000\u0000\u0000\u0000\u0000\u0000\u0000\u0000\u0000\u0000\u0000\u0000\u0000\u0000\u0000\u0000\u0000\u0000\u0000\u0000\u0000\u0000\u0000\u0000\u0000\u0000\u0000\u0000\u0000\u0000\u0000\u0000\u0000\u0000\u0000\u0000\u0000\u0000\u0000\u0000\u0000\u0000\u0000\u0000\u0000\u0000\u0000\u0000\u0000\u0000\u0000\u0000\u0000\u0000\u0000\u0000\u0000\u0000\u0000\u0000\u0000\u0000\u0000\u0000\u0000\u0000\u0000\u0000\u0000\u0000\u0000\u0000\u0000\u0000\u0000\u0000\u0000\u0000\u0000\u0000\u0000\u0000\u0000\u0000\u0000\u0000\u0000\u0000\u0000\u0000\u0000\u0000\u0000\u0000\u0000\u0000\u0000\u0000\u0000\u0000\u0000\u0000\u0000\u0000\u0000\u0000\u0000\u0000\u0000\u0000\u0000\u0000\u0000\u0000\u0000\u0000\u0000\u0000\u0000\u0000\u0000\u0000\u0000\u0000\u0000\u0000\u0000\u0000\u0000\u0000\u0000\u0000\u0000\u0000\u0000\u0000\u0000\u0000\u0000\u0000\u0000\u0000",
