{
  "AcquisitionMatrixPE": 104,
  "AcquisitionNumber": 1,
  "AcquisitionTime": "13:24:36.740000",
  "BandwidthPerPixelPhaseEncode": 13.935,
  "BaseResolution": 104,
  "CoilString": "C:HEA;HEP",
  "ConversionSoftware": "dcm2niix",
  "ConversionSoftwareVersion": "v1.0.20210317",
  "DerivedVendorReportedEchoSpacing": 0.000690017,
  "DeviceSerialNumber": "35450",
  "DwellTime": 2.5e-06,
  "EchoTime": 0.0348,
  "EffectiveEchoSpacing": 0.000690017,
  "FlipAngle": 55,
  "ImageComments": "Unaliased MB8/PE3 (remote)",
  "ImageOrientationPatientDICOM": [1, 0, 0, 0, 0.996041, -0.0888943],
  "ImageType": [
    "ORIGINAL",
    "PRIMARY",
    "M",
    "MB",
    "ND",
    "MOSAIC"
],
  "ImagingFrequency": 123.234,
  "InPlanePhaseEncodingDirectionDICOM": "COL",
  "InstitutionAddress": "Univeristy Ave. 197,Newark,North East,US,07102-1814",
  "InstitutionName": "RUBIC",
  "InstitutionalDepartmentName": "Department",
  "MRAcquisitionType": "2D",
  "MagneticFieldStrength": 3,
  "Manufacturer": "Siemens",
  "ManufacturersModelName": "TrioTim",
  "Modality": "MR",
  "MultibandAccelerationFactor": 8,
  "PartialFourier": 0.875,
  "PatientPosition": "HFS",
  "PercentPhaseFOV": 100,
  "PercentSampling": 100,
  "PhaseEncodingDirection": "j-",
  "PhaseEncodingSteps": 91,
  "PhaseResolution": 1,
  "PixelBandwidth": 1923,
  "ProcedureStepDescription": "Cole^Michael",
  "ProtocolName": "cmrr_mbep2d_bold_2mm_MB8_Task_8x",
  "PulseSequenceDetails": "%CustomerSeq%\\cmrr_mbep2d_bold",
  "ReceiveCoilName": "32Ch_Head",
  "ReconMatrixPE": 104,
  "RepetitionTime": 0.785,
  "SAR": 0.160542,
  "ScanOptions": "PFP\\FS",
  "ScanningSequence": "EP",
  "SequenceName": "epfid2d1_104",
  "SequenceVariant": "SK\\SS",
  "SeriesDescription": "cmrr_mbep2d_bold_2mm_MB8_Task_8x",
  "SeriesNumber": 19,
  "ShimSetting": [2120, -357, -7295, 248, -191, -334, 409, 68],
  "SliceThickness": 2,
  "SliceTiming": [0, 0.4375, 0.0875, 0.525, 0.175, 0.6125, 0.2625, 0.7, 0.35, 0, 0.4375, 0.0875, 0.525, 0.175, 0.6125, 0.2625, 0.7, 0.35, 0, 0.4375, 0.0875, 0.525, 0.175, 0.6125, 0.2625, 0.7, 0.35, 0, 0.4375, 0.0875, 0.525, 0.175, 0.6125, 0.2625, 0.7, 0.35, 0, 0.4375, 0.0875, 0.525, 0.175, 0.6125, 0.2625, 0.7, 0.35, 0, 0.4375, 0.0875, 0.525, 0.175, 0.6125, 0.2625, 0.7, 0.35, 0, 0.4375, 0.0875, 0.525, 0.175, 0.6125, 0.2625, 0.7, 0.35, 0, 0.4375, 0.0875, 0.525, 0.175, 0.6125, 0.2625, 0.7, 0.35],
  "SoftwareVersions": "syngo MR B19",
  "SpacingBetweenSlices": 2,
  "StationName": "MRC35450",
  "TaskName": "cpro",
  "TotalReadoutTime": 0.0710717,
  "TxRefAmp": 387.576,
  "dcmmeta_affine": [
    [-2.0, 0.0, 0.0, 106.71186828613281],
    [0.0, 1.992082118988037, -0.17778858542442322, -84.44245147705078],
    [0.0, 0.17778858542442322, 1.992082118988037, -117.59058380126953],
    [0.0, 0.0, 0.0, 1.0]
],
  "dcmmeta_reorient_transform": [
    [0.0, -1.0, 0.0, 103.0],
    [1.0, 0.0, 0.0, 0.0],
    [0.0, 0.0, 1.0, 0.0],
    [0.0, 0.0, 0.0, 1.0]
],
  "dcmmeta_shape": [104, 104, 72, 581],
  "dcmmeta_slice_dim": 2,
  "dcmmeta_version": 0.6,
  "global": {
    "const": {
      "AcquisitionMatrix": [104, 0, 0, 104],
      "AngioFlag": "N",
      "BitsAllocated": 16,
      "BitsStored": 12,
      "Columns": 936,
      "EchoNumbers": 1,
      "EchoTime": 34.8,
      "EchoTrainLength": 1,
      "FlipAngle": 55.0,
      "HighBit": 11,
      "ImageOrientationPatient": [1.0, 0.0, 0.0, 0.0, 0.99604106564855, -0.0888942942022],
      "ImagePositionPatient": [-938.71186447144, -949.4481716542, -25.318309462201],
      "ImageType": [
        "ORIGINAL",
        "PRIMARY",
        "M",
        "MB",
        "ND",
        "MOSAIC"
],
      "ImagedNucleus": "1H",
      "ImagingFrequency": 123.234486,
      "InPlanePhaseEncodingDirection": "COL",
      "MRAcquisitionType": "2D",
      "MagneticFieldStrength": 3.0,
      "Manufacturer": "SIEMENS",
      "ManufacturerModelName": "TrioTim",
      "Modality": "MR",
      "NumberOfAverages": 1.0,
      "NumberOfPhaseEncodingSteps": 91,
      "PercentPhaseFieldOfView": 100.0,
      "PercentSampling": 100.0,
      "PerformedProcedureStepStartTime": "114652.625000",
      "PhotometricInterpretation": "MONOCHROME2",
      "PixelBandwidth": 1923.0,
      "PixelRepresentation": 0,
      "PixelSpacing": [2.0, 2.0],
      "ProtocolName": "cmrr_mbep2d_bold_2mm_MB8_Task_8x",
      "RepetitionTime": 785.0,
      "Rows": 936,
      "SAR": 0.16054221632419,
      "SamplesPerPixel": 1,
      "ScanOptions": [
        "PFP",
        "FS"
],
      "ScanningSequence": "EP",
      "SequenceName": "epfid2d1_104",
      "SequenceVariant": [
        "SK",
        "SS"
],
      "SeriesDescription": "cmrr_mbep2d_bold_2mm_MB8_Task_8x",
      "SeriesNumber": 19,
      "SeriesTime": "132506.875000",
      "SliceLocation": -109.61860103791,
      "SliceThickness": 2.0,
      "SmallestImagePixelValue": 0,
      "SoftwareVersions": "syngo MR B19",
      "SpacingBetweenSlices": 2.000000009446,
      "SpecificCharacterSet": "ISO_IR 100",
      "StudyID": "1",
      "StudyTime": "114652.593000",
      "TransmitCoilName": "Body",
      "VariableFlipAngleFlag": "N",
      "WindowCenterWidthExplanation": "Algo1",
      "dBdt": 0.0},
    "slices": {}
  },
  "time": {
    "samples": {
      "AcquisitionNumber": [1, 2, 3, 4, 5, 6, 7, 8, 9, 10, 11, 12, 13, 14, 15, 16, 17, 18, 19, 20, 21, 22, 23, 24, 25, 26, 27, 28, 29, 30, 31, 32, 33, 34, 35, 36, 37, 38, 39, 40, 41, 42, 43, 44, 45, 46, 47, 48, 49, 50, 51, 52, 53, 54, 55, 56, 57, 58, 59, 60, 61, 62, 63, 64, 65, 66, 67, 68, 69, 70, 71, 72, 73, 74, 75, 76, 77, 78, 79, 80, 81, 82, 83, 84, 85, 86, 87, 88, 89, 90, 91, 92, 93, 94, 95, 96, 97, 98, 99, 100, 101, 102, 103, 104, 105, 106, 107, 108, 109, 110, 111, 112, 113, 114, 115, 116, 117, 118, 119, 120, 121, 122, 123, 124, 125, 126, 127, 128, 129, 130, 131, 132, 133, 134, 135, 136, 137, 138, 139, 140, 141, 142, 143, 144, 145, 146, 147, 148, 149, 150, 151, 152, 153, 154, 155, 156, 157, 158, 159, 160, 161, 162, 163, 164, 165, 166, 167, 168, 169, 170, 171, 172, 173, 174, 175, 176, 177, 178, 179, 180, 181, 182, 183, 184, 185, 186, 187, 188, 189, 190, 191, 192, 193, 194, 195, 196, 197, 198, 199, 200, 201, 202, 203, 204, 205, 206, 207, 208, 209, 210, 211, 212, 213, 214, 215, 216, 217, 218, 219, 220, 221, 222, 223, 224, 225, 226, 227, 228, 229, 230, 231, 232, 233, 234, 235, 236, 237, 238, 239, 240, 241, 242, 243, 244, 245, 246, 247, 248, 249, 250, 251, 252, 253, 254, 255, 256, 257, 258, 259, 260, 261, 262, 263, 264, 265, 266, 267, 268, 269, 270, 271, 272, 273, 274, 275, 276, 277, 278, 279, 280, 281, 282, 283, 284, 285, 286, 287, 288, 289, 290, 291, 292, 293, 294, 295, 296, 297, 298, 299, 300, 301, 302, 303, 304, 305, 306, 307, 308, 309, 310, 311, 312, 313, 314, 315, 316, 317, 318, 319, 320, 321, 322, 323, 324, 325, 326, 327, 328, 329, 330, 331, 332, 333, 334, 335, 336, 337, 338, 339, 340, 341, 342, 343, 344, 345, 346, 347, 348, 349, 350, 351, 352, 353, 354, 355, 356, 357, 358, 359, 360, 361, 362, 363, 364, 365, 366, 367, 368, 369, 370, 371, 372, 373, 374, 375, 376, 377, 378, 379, 380, 381, 382, 383, 384, 385, 386, 387, 388, 389, 390, 391, 392, 393, 394, 395, 396, 397, 398, 399, 400, 401, 402, 403, 404, 405, 406, 407, 408, 409, 410, 411, 412, 413, 414, 415, 416, 417, 418, 419, 420, 421, 422, 423, 424, 425, 426, 427, 428, 429, 430, 431, 432, 433, 434, 435, 436, 437, 438, 439, 440, 441, 442, 443, 444, 445, 446, 447, 448, 449, 450, 451, 452, 453, 454, 455, 456, 457, 458, 459, 460, 461, 462, 463, 464, 465, 466, 467, 468, 469, 470, 471, 472, 473, 474, 475, 476, 477, 478, 479, 480, 481, 482, 483, 484, 485, 486, 487, 488, 489, 490, 491, 492, 493, 494, 495, 496, 497, 498, 499, 500, 501, 502, 503, 504, 505, 506, 507, 508, 509, 510, 511, 512, 513, 514, 515, 516, 517, 518, 519, 520, 521, 522, 523, 524, 525, 526, 527, 528, 529, 530, 531, 532, 533, 534, 535, 536, 537, 538, 539, 540, 541, 542, 543, 544, 545, 546, 547, 548, 549, 550, 551, 552, 553, 554, 555, 556, 557, 558, 559, 560, 561, 562, 563, 564, 565, 566, 567, 568, 569, 570, 571, 572, 573, 574, 575, 576, 577, 578, 579, 580, 581],
      "AcquisitionTime": ["132436.740000", "132437.527500", "132438.315000", "132439.102500", "132439.892500", "132440.680000", "132441.467500", "132442.257500", "132443.045000", "132443.832500", "132444.620000", "132445.410000", "132446.197500", "132446.985000", "132447.772500", "132448.562500", "132449.350000", "132450.137500", "132450.925000", "132451.715000", "132452.502500", "132453.290000", "132454.077500", "132454.867500", "132455.655000", "132456.442500", "132457.230000", "132458.020000", "132458.807500", "132459.595000", "132500.385000", "132501.172500", "132501.960000", "132502.747500", "132503.537500", "132504.325000", "132505.112500", "132505.900000", "132506.690000", "132507.477500", "132508.265000", "132509.052500", "132509.842500", "132510.630000", "132511.417500", "132512.205000", "132512.995000", "132513.782500", "132514.570000", "132515.360000", "132516.147500", "132516.935000", "132517.722500", "132518.512500", "132519.300000", "132520.087500", "132520.875000", "132521.665000", "132522.452500", "132523.240000", "132524.027500", "132524.817500", "132525.605000", "132526.392500", "132527.180000", "132527.970000", "132528.757500", "132529.545000", "132530.332500", "132531.122500", "132531.910000", "132532.697500", "132533.487500", "132534.275000", "132535.062500", "132535.850000", "132536.640000", "132537.427500", "132538.215000", "132539.002500", "132539.792500", "132540.580000", "132541.367500", "132542.155000", "132542.945000", "132543.732500", "132544.520000", "132545.307500", "132546.097500", "132546.885000", "132547.672500", "132548.460000", "132549.250000", "132550.037500", "132550.825000", "132551.615000", "132552.402500", "132553.190000", "132553.977500", "132554.767500", "132555.555000", "132556.342500", "132557.130000", "132557.920000", "132558.707500", "132559.495000", "132600.282500", "132601.072500", "132601.860000", "132602.647500", "132603.435000", "132604.225000", "132605.012500", "132605.800000", "132606.587500", "132607.377500", "132608.165000", "132608.952500", "132609.742500", "132610.530000", "132611.317500", "132612.105000", "132612.895000", "132613.682500", "132614.470000", "132615.257500", "132616.047500", "132616.835000", "132617.622500", "132618.410000", "132619.200000", "132619.987500", "132620.775000", "132621.562500", "132622.352500", "132623.140000", "132623.927500", "132624.715000", "132625.505000", "132626.292500", "132627.080000", "132627.870000", "132628.657500", "132629.445000", "132630.232500", "132631.022500", "132631.810000", "132632.597500", "132633.385000", "132634.175000", "132634.962500", "132635.750000", "132636.537500", "132637.327500", "132638.115000", "132638.902500", "132639.690000", "132640.480000", "132641.267500", "132642.055000", "132642.842500", "132643.632500", "132644.420000", "132645.207500", "132645.997500", "132646.785000", "132647.572500", "132648.360000", "132649.150000", "132649.937500", "132650.725000", "132651.512500", "132652.302500", "132653.090000", "132653.877500", "132654.665000", "132655.455000", "132656.242500", "132657.030000", "132657.817500", "132658.607500", "132659.395000", "132700.182500", "132700.970000", "132701.760000", "132702.547500", "132703.335000", "132704.125000", "132704.912500", "132705.700000", "132706.487500", "132707.277500", "132708.065000", "132708.852500", "132709.640000", "132710.430000", "132711.217500", "132712.005000", "132712.792500", "132713.582500", "132714.370000", "132715.157500", "132715.945000", "132716.735000", "132717.522500", "132718.310000", "132719.097500", "132719.887500", "132720.675000", "132721.462500", "132722.252500", "132723.040000", "132723.827500", "132724.615000", "132725.405000", "132726.192500", "132726.980000", "132727.767500", "132728.557500", "132729.345000", "132730.132500", "132730.920000", "132731.710000", "132732.497500", "132733.285000", "132734.072500", "132734.862500", "132735.650000", "132736.437500", "132737.225000", "132738.015000", "132738.802500", "132739.590000", "132740.380000", "132741.167500", "132741.955000", "132742.742500", "132743.532500", "132744.320000", "132745.107500", "132745.895000", "132746.685000", "132747.472500", "132748.260000", "132749.047500", "132749.837500", "132750.625000", "132751.412500", "132752.200000", "132752.990000", "132753.777500", "132754.565000", "132755.352500", "132756.142500", "132756.930000", "132757.717500", "132758.507500", "132759.295000", "132800.082500", "132800.870000", "132801.660000", "132802.447500", "132803.235000", "132804.022500", "132804.812500", "132805.600000", "132806.387500", "132807.175000", "132807.965000", "132808.752500", "132809.540000", "132810.327500", "132811.117500", "132811.905000", "132812.692500", "132813.480000", "132814.270000", "132815.057500", "132815.845000", "132816.635000", "132817.422500", "132818.210000", "132818.997500", "132819.787500", "132820.575000", "132821.362500", "132822.150000", "132822.940000", "132823.727500", "132824.515000", "132825.302500", "132826.092500", "132826.880000", "132827.667500", "132828.455000", "132829.245000", "132830.032500", "132830.820000", "132831.610000", "132832.397500", "132833.185000", "132833.972500", "132834.762500", "132835.550000", "132836.337500", "132837.125000", "132837.915000", "132838.702500", "132839.490000", "132840.277500", "132841.067500", "132841.855000", "132842.642500", "132843.430000", "132844.220000", "132845.007500", "132845.795000", "132846.582500", "132847.372500", "132848.160000", "132848.947500", "132849.737500", "132850.525000", "132851.312500", "132852.100000", "132852.890000", "132853.677500", "132854.465000", "132855.252500", "132856.042500", "132856.830000", "132857.617500", "132858.405000", "132859.195000", "132859.982500", "132900.770000", "132901.557500", "132902.347500", "132903.135000", "132903.922500", "132904.710000", "132905.500000", "132906.287500", "132907.075000", "132907.865000", "132908.652500", "132909.440000", "132910.227500", "132911.017500", "132911.805000", "132912.592500", "132913.380000", "132914.170000", "132914.957500", "132915.745000", "132916.532500", "132917.322500", "132918.110000", "132918.897500", "132919.685000", "132920.475000", "132921.262500", "132922.050000", "132922.837500", "132923.627500", "132924.415000", "132925.202500", "132925.992500", "132926.780000", "132927.567500", "132928.355000", "132929.145000", "132929.932500", "132930.720000", "132931.507500", "132932.297500", "132933.085000", "132933.872500", "132934.660000", "132935.450000", "132936.237500", "132937.025000", "132937.812500", "132938.602500", "132939.390000", "132940.177500", "132940.965000", "132941.755000", "132942.542500", "132943.330000", "132944.120000", "132944.907500", "132945.695000", "132946.482500", "132947.272500", "132948.060000", "132948.847500", "132949.635000", "132950.425000", "132951.212500", "132952.000000", "132952.787500", "132953.577500", "132954.365000", "132955.152500", "132955.940000", "132956.730000", "132957.517500", "132958.305000", "132959.092500", "132959.882500", "133000.670000", "133001.457500", "133002.247500", "133003.035000", "133003.822500", "133004.610000", "133005.400000", "133006.187500", "133006.975000", "133007.762500", "133008.552500", "133009.340000", "133010.127500", "133010.915000", "133011.705000", "133012.492500", "133013.280000", "133014.067500", "133014.857500", "133015.645000", "133016.432500", "133017.220000", "133018.010000", "133018.797500", "133019.585000", "133020.375000", "133021.162500", "133021.950000", "133022.737500", "133023.527500", "133024.315000", "133025.102500", "133025.890000", "133026.680000", "133027.467500", "133028.255000", "133029.042500", "133029.832500", "133030.620000", "133031.407500", "133032.195000", "133032.985000", "133033.772500", "133034.560000", "133035.347500", "133036.137500", "133036.925000", "133037.712500", "133038.502500", "133039.290000", "133040.077500", "133040.865000", "133041.655000", "133042.442500", "133043.230000", "133044.017500", "133044.807500", "133045.595000", "133046.382500", "133047.170000", "133047.960000", "133048.747500", "133049.535000", "133050.322500", "133051.112500", "133051.900000", "133052.687500", "133053.475000", "133054.265000", "133055.052500", "133055.840000", "133056.630000", "133057.417500", "133058.205000", "133058.992500", "133059.782500", "133100.570000", "133101.357500", "133102.145000", "133102.935000", "133103.722500", "133104.510000", "133105.297500", "133106.087500", "133106.875000", "133107.662500", "133108.450000", "133109.240000", "133110.027500", "133110.815000", "133111.602500", "133112.392500", "133113.180000", "133113.967500", "133114.757500", "133115.545000", "133116.332500", "133117.120000", "133117.910000", "133118.697500", "133119.485000", "133120.272500", "133121.062500", "133121.850000", "133122.637500", "133123.425000", "133124.215000", "133125.002500", "133125.790000", "133126.577500", "133127.367500", "133128.155000", "133128.942500", "133129.730000", "133130.520000", "133131.307500", "133132.095000", "133132.885000", "133133.672500", "133134.460000", "133135.247500", "133136.037500", "133136.825000", "133137.612500", "133138.400000", "133139.190000", "133139.977500", "133140.765000", "133141.552500", "133142.342500", "133143.130000", "133143.917500", "133144.705000", "133145.495000", "133146.282500", "133147.070000", "133147.860000", "133148.647500", "133149.435000", "133150.222500", "133151.012500", "133151.800000", "133152.587500", "133153.375000", "133154.165000", "133154.952500", "133155.740000", "133156.527500", "133157.317500", "133158.105000", "133158.892500", "133159.680000", "133200.470000", "133201.257500", "133202.045000", "133202.832500", "133203.622500", "133204.410000", "133205.197500", "133205.987500", "133206.775000", "133207.562500", "133208.350000", "133209.140000", "133209.927500", "133210.715000", "133211.502500", "133212.292500", "133213.080000", "133213.867500"],
      "ContentTime": ["132506.875000", "132506.875000", "132506.875000", "132506.875000", "132506.875000", "132506.875000", "132506.890000", "132506.890000", "132506.890000", "132506.890000", "132506.890000", "132506.890000", "132506.890000", "132506.906000", "132506.906000", "132506.906000", "132506.906000", "132506.906000", "132506.906000", "132506.906000", "132506.921000", "132506.921000", "132506.921000", "132506.921000", "132506.921000", "132506.921000", "132506.921000", "132506.937000", "132506.937000", "132506.937000", "132506.937000", "132506.937000", "132506.937000", "132506.937000", "132506.953000", "132506.953000", "132526.843000", "132526.843000", "132526.843000", "132526.843000", "132526.843000", "132526.859000", "132526.859000", "132526.859000", "132526.859000", "132526.859000", "132526.859000", "132526.859000", "132526.875000", "132526.875000", "132526.875000", "132526.875000", "132526.875000", "132526.875000", "132526.890000", "132526.890000", "132526.890000", "132526.890000", "132526.890000", "132526.906000", "132526.906000", "132546.843000", "132546.843000", "132546.843000", "132546.843000", "132546.843000", "132546.859000", "132546.859000", "132546.859000", "132546.859000", "132546.859000", "132546.859000", "132546.859000", "132546.875000", "132546.875000", "132546.875000", "132546.875000", "132546.875000", "132546.875000", "132546.875000", "132546.890000", "132546.890000", "132546.890000", "132546.890000", "132546.890000", "132546.890000", "132546.890000", "132606.843000", "132606.843000", "132606.843000", "132606.843000", "132606.843000", "132606.859000", "132606.859000", "132606.859000", "132606.859000", "132606.859000", "132606.859000", "132606.859000", "132606.875000", "132606.875000", "132606.875000", "132606.875000", "132606.875000", "132606.875000", "132606.875000", "132606.890000", "132606.890000", "132606.890000", "132606.890000", "132606.906000", "132606.906000", "132626.843000", "132626.843000", "132626.843000", "132626.843000", "132626.843000", "132626.859000", "132626.859000", "132626.859000", "132626.859000", "132626.859000", "132626.859000", "132626.859000", "132626.875000", "132626.875000", "132626.875000", "132626.875000", "132626.875000", "132626.875000", "132626.890000", "132626.890000", "132626.890000", "132626.890000", "132626.890000", "132626.890000", "132626.890000", "132626.906000", "132646.843000", "132646.843000", "132646.843000", "132646.843000", "132646.843000", "132646.859000", "132646.859000", "132646.859000", "132646.859000", "132646.859000", "132646.859000", "132646.859000", "132646.875000", "132646.875000", "132646.875000", "132646.875000", "132646.875000", "132646.875000", "132646.875000", "132646.890000", "132646.890000", "132646.890000", "132646.890000", "132646.890000", "132646.890000", "132706.843000", "132706.843000", "132706.843000", "132706.843000", "132706.843000", "132706.859000", "132706.859000", "132706.859000", "132706.859000", "132706.859000", "132706.875000", "132706.875000", "132706.875000", "132706.875000", "132706.875000", "132706.875000", "132706.875000", "132706.890000", "132706.890000", "132706.890000", "132706.890000", "132706.906000", "132706.906000", "132706.906000", "132706.906000", "132706.906000", "132726.843000", "132726.843000", "132726.843000", "132726.843000", "132726.843000", "132726.859000", "132726.859000", "132726.859000", "132726.859000", "132726.875000", "132726.875000", "132726.875000", "132726.875000", "132726.875000", "132726.875000", "132726.890000", "132726.890000", "132726.890000", "132726.890000", "132726.890000", "132726.890000", "132726.890000", "132726.906000", "132726.906000", "132726.906000", "132746.843000", "132746.843000", "132746.843000", "132746.843000", "132746.843000", "132746.859000", "132746.859000", "132746.859000", "132746.859000", "132746.859000", "132746.859000", "132746.875000", "132746.875000", "132746.875000", "132746.875000", "132746.875000", "132746.875000", "132746.890000", "132746.890000", "132746.890000", "132746.890000", "132746.890000", "132746.890000", "132746.906000", "132746.906000", "132806.843000", "132806.843000", "132806.843000", "132806.843000", "132806.843000", "132806.859000", "132806.859000", "132806.859000", "132806.859000", "132806.859000", "132806.859000", "132806.859000", "132806.875000", "132806.875000", "132806.875000", "132806.875000", "132806.875000", "132806.875000", "132806.875000", "132806.890000", "132806.890000", "132806.890000", "132806.890000", "132806.890000", "132806.890000", "132806.890000", "132826.843000", "132826.843000", "132826.843000", "132826.843000", "132826.843000", "132826.859000", "132826.859000", "132826.859000", "132826.859000", "132826.859000", "132826.859000", "132826.875000", "132826.875000", "132826.875000", "132826.875000", "132826.875000", "132826.875000", "132826.890000", "132826.890000", "132826.890000", "132826.890000", "132826.890000", "132826.890000", "132826.890000", "132826.906000", "132846.843000", "132846.843000", "132846.843000", "132846.843000", "132846.843000", "132846.859000", "132846.859000", "132846.859000", "132846.859000", "132846.859000", "132846.859000", "132846.859000", "132846.875000", "132846.875000", "132846.875000", "132846.875000", "132846.875000", "132846.875000", "132846.875000", "132846.890000", "132846.890000", "132846.890000", "132846.890000", "132846.890000", "132846.906000", "132846.906000", "132906.843000", "132906.843000", "132906.843000", "132906.843000", "132906.859000", "132906.859000", "132906.859000", "132906.859000", "132906.859000", "132906.875000", "132906.875000", "132906.875000", "132906.875000", "132906.875000", "132906.875000", "132906.875000", "132906.890000", "132906.890000", "132906.890000", "132906.890000", "132906.890000", "132906.906000", "132906.906000", "132906.906000", "132906.906000", "132926.843000", "132926.843000", "132926.843000", "132926.843000", "132926.843000", "132926.859000", "132926.859000", "132926.859000", "132926.859000", "132926.859000", "132926.859000", "132926.859000", "132926.875000", "132926.875000", "132926.875000", "132926.875000", "132926.875000", "132926.875000", "132926.875000", "132926.890000", "132926.890000", "132926.890000", "132926.890000", "132926.906000", "132926.906000", "132926.906000", "132946.843000", "132946.843000", "132946.843000", "132946.843000", "132946.843000", "132946.859000", "132946.859000", "132946.859000", "132946.859000", "132946.859000", "132946.859000", "132946.859000", "132946.875000", "132946.875000", "132946.875000", "132946.875000", "132946.875000", "132946.875000", "132946.875000", "132946.890000", "132946.890000", "132946.890000", "132946.890000", "132946.890000", "132946.890000", "133006.843000", "133006.843000", "133006.843000", "133006.843000", "133006.843000", "133006.859000", "133006.859000", "133006.859000", "133006.859000", "133006.859000", "133006.875000", "133006.875000", "133006.875000", "133006.875000", "133006.875000", "133006.875000", "133006.890000", "133006.890000", "133006.890000", "133006.890000", "133006.890000", "133006.890000", "133006.906000", "133006.906000", "133006.906000", "133006.906000", "133026.843000", "133026.843000", "133026.843000", "133026.843000", "133026.843000", "133026.859000", "133026.859000", "133026.859000", "133026.859000", "133026.859000", "133026.859000", "133026.859000", "133026.875000", "133026.875000", "133026.875000", "133026.875000", "133026.875000", "133026.875000", "133026.875000", "133026.890000", "133026.890000", "133026.890000", "133026.890000", "133026.890000", "133026.890000", "133046.843000", "133046.843000", "133046.843000", "133046.843000", "133046.843000", "133046.859000", "133046.859000", "133046.859000", "133046.859000", "133046.859000", "133046.859000", "133046.859000", "133046.875000", "133046.875000", "133046.875000", "133046.875000", "133046.875000", "133046.875000", "133046.875000", "133046.890000", "133046.890000", "133046.890000", "133046.890000", "133046.890000", "133046.890000", "133046.890000", "133106.843000", "133106.843000", "133106.843000", "133106.843000", "133106.843000", "133106.859000", "133106.859000", "133106.859000", "133106.859000", "133106.859000", "133106.859000", "133106.859000", "133106.875000", "133106.875000", "133106.875000", "133106.875000", "133106.875000", "133106.875000", "133106.875000", "133106.890000", "133106.890000", "133106.890000", "133106.890000", "133106.890000", "133106.890000", "133126.843000", "133126.843000", "133126.843000", "133126.843000", "133126.843000", "133126.859000", "133126.859000", "133126.859000", "133126.859000", "133126.859000", "133126.859000", "133126.859000", "133126.875000", "133126.875000", "133126.875000", "133126.875000", "133126.875000", "133126.875000", "133126.875000", "133126.890000", "133126.890000", "133126.890000", "133126.890000", "133126.890000", "133126.890000", "133126.906000", "133146.843000", "133146.843000", "133146.843000", "133146.843000", "133146.843000", "133146.859000", "133146.859000", "133146.859000", "133146.859000", "133146.859000", "133146.859000", "133146.859000", "133146.875000", "133146.875000", "133146.875000", "133146.875000", "133146.875000", "133146.875000", "133146.890000", "133146.890000", "133146.890000", "133146.890000", "133146.890000", "133146.890000", "133146.890000", "133206.843000", "133206.843000", "133206.843000", "133206.843000", "133206.843000", "133206.859000", "133206.859000", "133206.859000", "133206.859000", "133206.859000", "133206.859000", "133206.859000", "133206.875000", "133206.875000", "133206.875000", "133206.875000", "133206.875000", "133206.875000", "133206.875000", "133206.890000", "133206.890000", "133206.890000", "133206.890000", "133206.890000", "133206.890000", "133206.890000", "133214.687000", "133214.687000", "133214.703000", "133214.703000", "133214.703000", "133214.703000", "133214.703000", "133214.703000", "133214.718000", "133214.718000"],
      "DataSetTrailingPadding": [
        "\u0000\u0000\u0000\u0000\u0000\u0000\u0000\u0000\u0000\u0000\u0000\u0000\u0000\u0000\u0000\u0000\u0000\u0000\u0000\u0000\u0000\u0000\u0000\u0000\u0000\u0000\u0000\u0000\u0000\u0000\u0000\u0000\u0000\u0000\u0000\u0000\u0000\u0000\u0000\u0000\u0000\u0000\u0000\u0000\u0000\u0000\u0000\u0000\u0000\u0000\u0000\u0000\u0000\u0000\u0000\u0000\u0000\u0000\u0000\u0000\u0000\u0000\u0000\u0000\u0000\u0000\u0000\u0000\u0000\u0000\u0000\u0000\u0000\u0000\u0000\u0000\u0000\u0000\u0000\u0000\u0000\u0000\u0000\u0000\u0000\u0000\u0000\u0000\u0000\u0000\u0000\u0000\u0000\u0000\u0000\u0000\u0000\u0000\u0000\u0000\u0000\u0000\u0000\u0000\u0000\u0000\u0000\u0000\u0000\u0000\u0000\u0000\u0000\u0000\u0000\u0000\u0000\u0000\u0000\u0000\u0000\u0000\u0000\u0000\u0000\u0000\u0000\u0000\u0000\u0000\u0000\u0000\u0000\u0000\u0000\u0000\u0000\u0000\u0000\u0000\u0000\u0000\u0000\u0000",
        "\u0000\u0000\u0000\u0000\u0000\u0000\u0000\u0000\u0000\u0000\u0000\u0000\u0000\u0000\u0000\u0000\u0000\u0000\u0000\u0000\u0000\u0000\u0000\u0000\u0000\u0000\u0000\u0000\u0000\u0000\u0000\u0000\u0000\u0000\u0000\u0000\u0000\u0000\u0000\u0000\u0000\u0000\u0000\u0000\u0000\u0000\u0000\u0000\u0000\u0000\u0000\u0000\u0000\u0000\u0000\u0000\u0000\u0000\u0000\u0000\u0000\u0000\u0000\u0000\u0000\u0000\u0000\u0000\u0000\u0000\u0000\u0000\u0000\u0000\u0000\u0000\u0000\u0000\u0000\u0000\u0000\u0000\u0000\u0000\u0000\u0000\u0000\u0000\u0000\u0000\u0000\u0000\u0000\u0000\u0000\u0000\u0000\u0000\u0000\u0000\u0000\u0000\u0000\u0000\u0000\u0000\u0000\u0000\u0000\u0000\u0000\u0000\u0000\u0000\u0000\u0000\u0000\u0000\u0000\u0000\u0000\u0000\u0000\u0000\u0000\u0000\u0000\u0000\u0000\u0000\u0000\u0000\u0000\u0000\u0000\u0000\u0000\u0000\u0000\u0000\u0000\u0000\u0000\u0000",
