{
  "AcquisitionMatrixPE": 104,
  "AcquisitionNumber": 1,
  "AcquisitionTime": "12:35:34.515000",
  "BandwidthPerPixelPhaseEncode": 13.935,
  "BaseResolution": 104,
  "CoilString": "C:HEA;HEP",
  "ConversionSoftware": "dcm2niix",
  "ConversionSoftwareVersion": "v1.0.20210317",
  "DerivedVendorReportedEchoSpacing": 0.000690017,
  "DeviceSerialNumber": "35450",
  "DwellTime": 2.5e-06,
  "EchoTime": 0.0348,
  "EffectiveEchoSpacing": 0.000690017,
  "FlipAngle": 55,
  "ImageComments": "Unaliased MB8/PE3 (remote)",
  "ImageOrientationPatientDICOM": [1, 0, 0, 0, 0.996041, -0.0888943],
  "ImageType": [
    "ORIGINAL",
    "PRIMARY",
    "M",
    "MB",
    "ND",
    "MOSAIC"
],
  "ImagingFrequency": 123.234,
  "InPlanePhaseEncodingDirectionDICOM": "COL",
  "InstitutionAddress": "Univeristy Ave. 197,Newark,North East,US,07102-1814",
  "InstitutionName": "RUBIC",
  "InstitutionalDepartmentName": "Department",
  "MRAcquisitionType": "2D",
  "MagneticFieldStrength": 3,
  "Manufacturer": "Siemens",
  "ManufacturersModelName": "TrioTim",
  "Modality": "MR",
  "MultibandAccelerationFactor": 8,
  "PartialFourier": 0.875,
  "PatientPosition": "HFS",
  "PercentPhaseFOV": 100,
  "PercentSampling": 100,
  "PhaseEncodingDirection": "j-",
  "PhaseEncodingSteps": 91,
  "PhaseResolution": 1,
  "PixelBandwidth": 1923,
  "ProcedureStepDescription": "Cole^Michael",
  "ProtocolName": "cmrr_mbep2d_bold_2mm_MB8_Rest",
  "PulseSequenceDetails": "%CustomerSeq%\\cmrr_mbep2d_bold",
  "ReceiveCoilName": "32Ch_Head",
  "ReconMatrixPE": 104,
  "RepetitionTime": 0.785,
  "SAR": 0.176517,
  "ScanOptions": "PFP\\FS",
  "ScanningSequence": "EP",
  "SequenceName": "epfid2d1_104",
  "SequenceVariant": "SK\\SS",
  "SeriesDescription": "cmrr_mbep2d_bold_2mm_MB8_Rest",
  "SeriesNumber": 9,
  "ShimSetting": [2120, -357, -7295, 248, -191, -334, 409, 68],
  "SliceThickness": 2,
  "SliceTiming": [0, 0.4375, 0.0875, 0.525, 0.175, 0.6125, 0.2625, 0.7, 0.35, 0, 0.4375, 0.0875, 0.525, 0.175, 0.6125, 0.2625, 0.7, 0.35, 0, 0.4375, 0.0875, 0.525, 0.175, 0.6125, 0.2625, 0.7, 0.35, 0, 0.4375, 0.0875, 0.525, 0.175, 0.6125, 0.2625, 0.7, 0.35, 0, 0.4375, 0.0875, 0.525, 0.175, 0.6125, 0.2625, 0.7, 0.35, 0, 0.4375, 0.0875, 0.525, 0.175, 0.6125, 0.2625, 0.7, 0.35, 0, 0.4375, 0.0875, 0.525, 0.175, 0.6125, 0.2625, 0.7, 0.35, 0, 0.4375, 0.0875, 0.525, 0.175, 0.6125, 0.2625, 0.7, 0.35],
  "SoftwareVersions": "syngo MR B19",
  "SpacingBetweenSlices": 2,
  "StationName": "MRC35450",
  "TaskName": "rest",
  "TotalReadoutTime": 0.0710717,
  "TxRefAmp": 387.576,
  "dcmmeta_affine": [
    [-2.0, 0.0, 0.0, 106.71186828613281],
    [0.0, 1.992082118988037, -0.17778858542442322, -84.44245147705078],
    [0.0, 0.17778858542442322, 1.992082118988037, -117.59058380126953],
    [0.0, 0.0, 0.0, 1.0]
],
  "dcmmeta_reorient_transform": [
    [0.0, -1.0, 0.0, 103.0],
    [1.0, 0.0, 0.0, 0.0],
    [0.0, 0.0, 1.0, 0.0],
    [0.0, 0.0, 0.0, 1.0]
],
  "dcmmeta_shape": [104, 104, 72, 1070],
  "dcmmeta_slice_dim": 2,
  "dcmmeta_version": 0.6,
  "global": {
    "const": {
      "AcquisitionMatrix": [104, 0, 0, 104],
      "AngioFlag": "N",
      "BitsAllocated": 16,
      "BitsStored": 12,
      "Columns": 936,
      "EchoNumbers": 1,
      "EchoTime": 34.8,
      "EchoTrainLength": 1,
      "FlipAngle": 55.0,
      "HighBit": 11,
      "ImageOrientationPatient": [1.0, 0.0, 0.0, 0.0, 0.99604106564855, -0.0888942942022],
      "ImagePositionPatient": [-938.71186447144, -949.4481716542, -25.318309462201],
      "ImageType": [
        "ORIGINAL",
        "PRIMARY",
        "M",
        "MB",
        "ND",
        "MOSAIC"
],
      "ImagedNucleus": "1H",
      "ImagingFrequency": 123.234426,
      "InPlanePhaseEncodingDirection": "COL",
      "MRAcquisitionType": "2D",
      "MagneticFieldStrength": 3.0,
      "Manufacturer": "SIEMENS",
      "ManufacturerModelName": "TrioTim",
      "Modality": "MR",
      "NumberOfAverages": 1.0,
      "NumberOfPhaseEncodingSteps": 91,
      "PercentPhaseFieldOfView": 100.0,
      "PercentSampling": 100.0,
      "PerformedProcedureStepStartTime": "114652.625000",
      "PhotometricInterpretation": "MONOCHROME2",
      "PixelBandwidth": 1923.0,
      "PixelRepresentation": 0,
      "PixelSpacing": [2.0, 2.0],
      "ProtocolName": "cmrr_mbep2d_bold_2mm_MB8_Rest",
      "RepetitionTime": 785.0,
      "Rows": 936,
      "SAR": 0.17651680229637,
      "SamplesPerPixel": 1,
      "ScanOptions": [
        "PFP",
        "FS"
],
      "ScanningSequence": "EP",
      "SequenceName": "epfid2d1_104",
      "SequenceVariant": [
        "SK",
        "SS"
],
      "SeriesDescription": "cmrr_mbep2d_bold_2mm_MB8_Rest",
      "SeriesNumber": 9,
      "SeriesTime": "123546.828000",
      "SliceLocation": -109.61860103791,
      "SliceThickness": 2.0,
      "SmallestImagePixelValue": 0,
      "SoftwareVersions": "syngo MR B19",
      "SpacingBetweenSlices": 2.000000009446,
      "SpecificCharacterSet": "ISO_IR 100",
      "StudyID": "1",
      "StudyTime": "114652.593000",
      "TransmitCoilName": "Body",
      "VariableFlipAngleFlag": "N",
      "WindowCenterWidthExplanation": "Algo1",
      "dBdt": 0.0},
    "slices": {}
  },
  "time": {
    "samples": {
      "AcquisitionNumber": [1, 2, 3, 4, 5, 6, 7, 8, 9, 10, 11, 12, 13, 14, 15, 16, 17, 18, 19, 20, 21, 22, 23, 24, 25, 26, 27, 28, 29, 30, 31, 32, 33, 34, 35, 36, 37, 38, 39, 40, 41, 42, 43, 44, 45, 46, 47, 48, 49, 50, 51, 52, 53, 54, 55, 56, 57, 58, 59, 60, 61, 62, 63, 64, 65, 66, 67, 68, 69, 70, 71, 72, 73, 74, 75, 76, 77, 78, 79, 80, 81, 82, 83, 84, 85, 86, 87, 88, 89, 90, 91, 92, 93, 94, 95, 96, 97, 98, 99, 100, 101, 102, 103, 104, 105, 106, 107, 108, 109, 110, 111, 112, 113, 114, 115, 116, 117, 118, 119, 120, 121, 122, 123, 124, 125, 126, 127, 128, 129, 130, 131, 132, 133, 134, 135, 136, 137, 138, 139, 140, 141, 142, 143, 144, 145, 146, 147, 148, 149, 150, 151, 152, 153, 154, 155, 156, 157, 158, 159, 160, 161, 162, 163, 164, 165, 166, 167, 168, 169, 170, 171, 172, 173, 174, 175, 176, 177, 178, 179, 180, 181, 182, 183, 184, 185, 186, 187, 188, 189, 190, 191, 192, 193, 194, 195, 196, 197, 198, 199, 200, 201, 202, 203, 204, 205, 206, 207, 208, 209, 210, 211, 212, 213, 214, 215, 216, 217, 218, 219, 220, 221, 222, 223, 224, 225, 226, 227, 228, 229, 230, 231, 232, 233, 234, 235, 236, 237, 238, 239, 240, 241, 242, 243, 244, 245, 246, 247, 248, 249, 250, 251, 252, 253, 254, 255, 256, 257, 258, 259, 260, 261, 262, 263, 264, 265, 266, 267, 268, 269, 270, 271, 272, 273, 274, 275, 276, 277, 278, 279, 280, 281, 282, 283, 284, 285, 286, 287, 288, 289, 290, 291, 292, 293, 294, 295, 296, 297, 298, 299, 300, 301, 302, 303, 304, 305, 306, 307, 308, 309, 310, 311, 312, 313, 314, 315, 316, 317, 318, 319, 320, 321, 322, 323, 324, 325, 326, 327, 328, 329, 330, 331, 332, 333, 334, 335, 336, 337, 338, 339, 340, 341, 342, 343, 344, 345, 346, 347, 348, 349, 350, 351, 352, 353, 354, 355, 356, 357, 358, 359, 360, 361, 362, 363, 364, 365, 366, 367, 368, 369, 370, 371, 372, 373, 374, 375, 376, 377, 378, 379, 380, 381, 382, 383, 384, 385, 386, 387, 388, 389, 390, 391, 392, 393, 394, 395, 396, 397, 398, 399, 400, 401, 402, 403, 404, 405, 406, 407, 408, 409, 410, 411, 412, 413, 414, 415, 416, 417, 418, 419, 420, 421, 422, 423, 424, 425, 426, 427, 428, 429, 430, 431, 432, 433, 434, 435, 436, 437, 438, 439, 440, 441, 442, 443, 444, 445, 446, 447, 448, 449, 450, 451, 452, 453, 454, 455, 456, 457, 458, 459, 460, 461, 462, 463, 464, 465, 466, 467, 468, 469, 470, 471, 472, 473, 474, 475, 476, 477, 478, 479, 480, 481, 482, 483, 484, 485, 486, 487, 488, 489, 490, 491, 492, 493, 494, 495, 496, 497, 498, 499, 500, 501, 502, 503, 504, 505, 506, 507, 508, 509, 510, 511, 512, 513, 514, 515, 516, 517, 518, 519, 520, 521, 522, 523, 524, 525, 526, 527, 528, 529, 530, 531, 532, 533, 534, 535, 536, 537, 538, 539, 540, 541, 542, 543, 544, 545, 546, 547, 548, 549, 550, 551, 552, 553, 554, 555, 556, 557, 558, 559, 560, 561, 562, 563, 564, 565, 566, 567, 568, 569, 570, 571, 572, 573, 574, 575, 576, 577, 578, 579, 580, 581, 582, 583, 584, 585, 586, 587, 588, 589, 590, 591, 592, 593, 594, 595, 596, 597, 598, 599, 600, 601, 602, 603, 604, 605, 606, 607, 608, 609, 610, 611, 612, 613, 614, 615, 616, 617, 618, 619, 620, 621, 622, 623, 624, 625, 626, 627, 628, 629, 630, 631, 632, 633, 634, 635, 636, 637, 638, 639, 640, 641, 642, 643, 644, 645, 646, 647, 648, 649, 650, 651, 652, 653, 654, 655, 656, 657, 658, 659, 660, 661, 662, 663, 664, 665, 666, 667, 668, 669, 670, 671, 672, 673, 674, 675, 676, 677, 678, 679, 680, 681, 682, 683, 684, 685, 686, 687, 688, 689, 690, 691, 692, 693, 694, 695, 696, 697, 698, 699, 700, 701, 702, 703, 704, 705, 706, 707, 708, 709, 710, 711, 712, 713, 714, 715, 716, 717, 718, 719, 720, 721, 722, 723, 724, 725, 726, 727, 728, 729, 730, 731, 732, 733, 734, 735, 736, 737, 738, 739, 740, 741, 742, 743, 744, 745, 746, 747, 748, 749, 750, 751, 752, 753, 754, 755, 756, 757, 758, 759, 760, 761, 762, 763, 764, 765, 766, 767, 768, 769, 770, 771, 772, 773, 774, 775, 776, 777, 778, 779, 780, 781, 782, 783, 784, 785, 786, 787, 788, 789, 790, 791, 792, 793, 794, 795, 796, 797, 798, 799, 800, 801, 802, 803, 804, 805, 806, 807, 808, 809, 810, 811, 812, 813, 814, 815, 816, 817, 818, 819, 820, 821, 822, 823, 824, 825, 826, 827, 828, 829, 830, 831, 832, 833, 834, 835, 836, 837, 838, 839, 840, 841, 842, 843, 844, 845, 846, 847, 848, 849, 850, 851, 852, 853, 854, 855, 856, 857, 858, 859, 860, 861, 862, 863, 864, 865, 866, 867, 868, 869, 870, 871, 872, 873, 874, 875, 876, 877, 878, 879, 880, 881, 882, 883, 884, 885, 886, 887, 888, 889, 890, 891, 892, 893, 894, 895, 896, 897, 898, 899, 900, 901, 902, 903, 904, 905, 906, 907, 908, 909, 910, 911, 912, 913, 914, 915, 916, 917, 918, 919, 920, 921, 922, 923, 924, 925, 926, 927, 928, 929, 930, 931, 932, 933, 934, 935, 936, 937, 938, 939, 940, 941, 942, 943, 944, 945, 946, 947, 948, 949, 950, 951, 952, 953, 954, 955, 956, 957, 958, 959, 960, 961, 962, 963, 964, 965, 966, 967, 968, 969, 970, 971, 972, 973, 974, 975, 976, 977, 978, 979, 980, 981, 982, 983, 984, 985, 986, 987, 988, 989, 990, 991, 992, 993, 994, 995, 996, 997, 998, 999, 1000, 1001, 1002, 1003, 1004, 1005, 1006, 1007, 1008, 1009, 1010, 1011, 1012, 1013, 1014, 1015, 1016, 1017, 1018, 1019, 1020, 1021, 1022, 1023, 1024, 1025, 1026, 1027, 1028, 1029, 1030, 1031, 1032, 1033, 1034, 1035, 1036, 1037, 1038, 1039, 1040, 1041, 1042, 1043, 1044, 1045, 1046, 1047, 1048, 1049, 1050, 1051, 1052, 1053, 1054, 1055, 1056, 1057, 1058, 1059, 1060, 1061, 1062, 1063, 1064, 1065, 1066, 1067, 1068, 1069, 1070],
      "AcquisitionTime": ["123534.515000", "123535.302500", "123536.092500", "123536.880000", "123537.667500", "123538.455000", "123539.245000", "123540.032500", "123540.820000", "123541.607500", "123542.397500", "123543.185000", "123543.972500", "123544.760000", "123545.550000", "123546.337500", "123547.125000", "123547.912500", "123548.702500", "123549.490000", "123550.277500", "123551.065000", "123551.855000", "123552.642500", "123553.430000", "123554.220000", "123555.007500", "123555.795000", "123556.582500", "123557.372500", "123558.160000", "123558.947500", "123559.735000", "123600.525000", "123601.312500", "123602.100000", "123602.887500", "123603.677500", "123604.465000", "123605.252500", "123606.040000", "123606.830000", "123607.617500", "123608.405000", "123609.192500", "123609.982500", "123610.770000", "123611.557500", "123612.347500", "123613.135000", "123613.922500", "123614.710000", "123615.500000", "123616.287500", "123617.075000", "123617.862500", "123618.652500", "123619.440000", "123620.227500", "123621.015000", "123621.805000", "123622.592500", "123623.380000", "123624.167500", "123624.957500", "123625.745000", "123626.532500", "123627.320000", "123628.110000", "123628.897500", "123629.685000", "123630.475000", "123631.262500", "123632.050000", "123632.837500", "123633.627500", "123634.415000", "123635.202500", "123635.990000", "123636.780000", "123637.567500", "123638.355000", "123639.142500", "123639.932500", "123640.720000", "123641.507500", "123642.295000", "123643.085000", "123643.872500", "123644.660000", "123645.447500", "123646.237500", "123647.025000", "123647.812500", "123648.602500", "123649.390000", "123650.177500", "123650.965000", "123651.755000", "123652.542500", "123653.330000", "123654.117500", "123654.907500", "123655.695000", "123656.482500", "123657.270000", "123658.060000", "123658.847500", "123659.635000", "123700.422500", "123701.212500", "123702.000000", "123702.787500", "123703.575000", "123704.365000", "123705.152500", "123705.940000", "123706.730000", "123707.517500", "123708.305000", "123709.092500", "123709.882500", "123710.670000", "123711.457500", "123712.245000", "123713.035000", "123713.822500", "123714.610000", "123715.397500", "123716.187500", "123716.975000", "123717.762500", "123718.550000", "123719.340000", "123720.127500", "123720.915000", "123721.702500", "123722.492500", "123723.280000", "123724.067500", "123724.857500", "123725.645000", "123726.432500", "123727.220000", "123728.010000", "123728.797500", "123729.585000", "123730.372500", "123731.162500", "123731.950000", "123732.737500", "123733.525000", "123734.315000", "123735.102500", "123735.890000", "123736.677500", "123737.467500", "123738.255000", "123739.042500", "123739.832500", "123740.620000", "123741.407500", "123742.195000", "123742.985000", "123743.772500", "123744.560000", "123745.347500", "123746.137500", "123746.925000", "123747.712500", "123748.500000", "123749.290000", "123750.077500", "123750.865000", "123751.652500", "123752.442500", "123753.230000", "123754.017500", "123754.805000", "123755.595000", "123756.382500", "123757.170000", "123757.960000", "123758.747500", "123759.535000", "123800.322500", "123801.112500", "123801.900000", "123802.687500", "123803.475000", "123804.265000", "123805.052500", "123805.840000", "123806.627500", "123807.417500", "123808.205000", "123808.992500", "123809.780000", "123810.570000", "123811.357500", "123812.145000", "123812.932500", "123813.722500", "123814.510000", "123815.297500", "123816.087500", "123816.875000", "123817.662500", "123818.450000", "123819.240000", "123820.027500", "123820.815000", "123821.602500", "123822.392500", "123823.180000", "123823.967500", "123824.755000", "123825.545000", "123826.332500", "123827.120000", "123827.907500", "123828.697500", "123829.485000", "123830.272500", "123831.060000", "123831.850000", "123832.637500", "123833.425000", "123834.215000", "123835.002500", "123835.790000", "123836.577500", "123837.367500", "123838.155000", "123838.942500", "123839.730000", "123840.520000", "123841.307500", "123842.095000", "123842.882500", "123843.672500", "123844.460000", "123845.247500", "123846.035000", "123846.825000", "123847.612500", "123848.400000", "123849.187500", "123849.977500", "123850.765000", "123851.552500", "123852.342500", "123853.130000", "123853.917500", "123854.705000", "123855.495000", "123856.282500", "123857.070000", "123857.857500", "123858.647500", "123859.435000", "123900.222500", "123901.010000", "123901.800000", "123902.587500", "123903.375000", "123904.162500", "123904.952500", "123905.740000", "123906.527500", "123907.315000", "123908.105000", "123908.892500", "123909.680000", "123910.470000", "123911.257500", "123912.045000", "123912.832500", "123913.622500", "123914.410000", "123915.197500", "123915.985000", "123916.775000", "123917.562500", "123918.350000", "123919.137500", "123919.927500", "123920.715000", "123921.502500", "123922.290000", "123923.080000", "123923.867500", "123924.655000", "123925.442500", "123926.232500", "123927.020000", "123927.807500", "123928.597500", "123929.385000", "123930.172500", "123930.960000", "123931.750000", "123932.537500", "123933.325000", "123934.112500", "123934.902500", "123935.690000", "123936.477500", "123937.265000", "123938.055000", "123938.842500", "123939.630000", "123940.417500", "123941.207500", "123941.995000", "123942.782500", "123943.570000", "123944.360000", "123945.147500", "123945.935000", "123946.725000", "123947.512500", "123948.300000", "123949.087500", "123949.877500", "123950.665000", "123951.452500", "123952.240000", "123953.030000", "123953.817500", "123954.605000", "123955.392500", "123956.182500", "123956.970000", "123957.757500", "123958.545000", "123959.335000", "124000.122500", "124000.910000", "124001.697500", "124002.487500", "124003.275000", "124004.062500", "124004.852500", "124005.640000", "124006.427500", "124007.215000", "124008.005000", "124008.792500", "124009.580000", "124010.367500", "124011.157500", "124011.945000", "124012.732500", "124013.520000", "124014.310000", "124015.097500", "124015.885000", "124016.672500", "124017.462500", "124018.250000", "124019.037500", "124019.825000", "124020.615000", "124021.402500", "124022.190000", "124022.980000", "124023.767500", "124024.555000", "124025.342500", "124026.132500", "124026.920000", "124027.707500", "124028.495000", "124029.285000", "124030.072500", "124030.860000", "124031.647500", "124032.437500", "124033.225000", "124034.012500", "124034.800000", "124035.590000", "124036.377500", "124037.165000", "124037.952500", "124038.742500", "124039.530000", "124040.317500", "124041.107500", "124041.895000", "124042.682500", "124043.470000", "124044.260000", "124045.047500", "124045.835000", "124046.622500", "124047.412500", "124048.200000", "124048.987500", "124049.775000", "124050.565000", "124051.352500", "124052.140000", "124052.927500", "124053.717500", "124054.505000", "124055.292500", "124056.082500", "124056.870000", "124057.657500", "124058.445000", "124059.235000", "124100.022500", "124100.810000", "124101.597500", "124102.387500", "124103.175000", "124103.962500", "124104.750000", "124105.540000", "124106.327500", "124107.115000", "124107.902500", "124108.692500", "124109.480000", "124110.267500", "124111.055000", "124111.845000", "124112.632500", "124113.420000", "124114.210000", "124114.997500", "124115.785000", "124116.572500", "124117.362500", "124118.150000", "124118.937500", "124119.725000", "124120.515000", "124121.302500", "124122.090000", "124122.877500", "124123.667500", "124124.455000", "124125.242500", "124126.030000", "124126.820000", "124127.607500", "124128.395000", "124129.182500", "124129.972500", "124130.760000", "124131.547500", "124132.337500", "124133.125000", "124133.912500", "124134.700000", "124135.490000", "124136.277500", "124137.065000", "124137.852500", "124138.642500", "124139.430000", "124140.217500", "124141.005000", "124141.795000", "124142.582500", "124143.370000", "124144.157500", "124144.947500", "124145.735000", "124146.522500", "124147.310000", "124148.100000", "124148.887500", "124149.675000", "124150.465000", "124151.252500", "124152.040000", "124152.827500", "124153.617500", "124154.405000", "124155.192500", "124155.980000", "124156.770000", "124157.557500", "124158.345000", "124159.132500", "124159.922500", "124200.710000", "124201.497500", "124202.285000", "124203.075000", "124203.862500", "124204.650000", "124205.437500", "124206.227500", "124207.015000", "124207.802500", "124208.592500", "124209.380000", "124210.167500", "124210.955000", "124211.745000", "124212.532500", "124213.320000", "124214.107500", "124214.897500", "124215.685000", "124216.472500", "124217.260000", "124218.050000", "124218.837500", "124219.625000", "124220.412500", "124221.202500", "124221.990000", "124222.777500", "124223.565000", "124224.355000", "124225.142500", "124225.930000", "124226.720000", "124227.507500", "124228.295000", "124229.082500", "124229.872500", "124230.660000", "124231.447500", "124232.235000", "124233.025000", "124233.812500", "124234.600000", "124235.387500", "124236.177500", "124236.965000", "124237.752500", "124238.540000", "124239.330000", "124240.117500", "124240.905000", "124241.692500", "124242.482500", "124243.270000", "124244.057500", "124244.847500", "124245.635000", "124246.422500", "124247.210000", "124248.000000", "124248.787500", "124249.575000", "124250.362500", "124251.152500", "124251.940000", "124252.727500", "124253.515000", "124254.305000", "124255.092500", "124255.880000", "124256.667500", "124257.457500", "124258.245000", "124259.032500", "124259.820000", "124300.610000", "124301.397500", "124302.185000", "124302.975000", "124303.762500", "124304.550000", "124305.337500", "124306.127500", "124306.915000", "124307.702500", "124308.490000", "124309.280000", "124310.067500", "124310.855000", "124311.642500", "124312.432500", "124313.220000", "124314.007500", "124314.795000", "124315.585000", "124316.372500", "124317.160000", "124317.947500", "124318.737500", "124319.525000", "124320.312500", "124321.102500", "124321.890000", "124322.677500", "124323.465000", "124324.255000", "124325.042500", "124325.830000", "124326.617500", "124327.407500", "124328.195000", "124328.982500", "124329.770000", "124330.560000", "124331.347500", "124332.135000", "124332.922500", "124333.712500", "124334.500000", "124335.287500", "124336.075000", "124336.865000", "124337.652500", "124338.440000", "124339.230000", "124340.017500", "124340.805000", "124341.592500", "124342.382500", "124343.170000", "124343.957500", "124344.745000", "124345.535000", "124346.322500", "124347.110000", "124347.897500", "124348.687500", "124349.475000", "124350.262500", "124351.050000", "124351.840000", "124352.627500", "124353.415000", "124354.202500", "124354.992500", "124355.780000", "124356.567500", "124357.357500", "124358.145000", "124358.932500", "124359.720000", "124400.510000", "124401.297500", "124402.085000", "124402.872500", "124403.662500", "124404.450000", "124405.237500", "124406.025000", "124406.815000", "124407.602500", "124408.390000", "124409.177500", "124409.967500", "124410.755000", "124411.542500", "124412.332500", "124413.120000", "124413.907500", "124414.695000", "124415.485000", "124416.272500", "124417.060000", "124417.847500", "124418.637500", "124419.425000", "124420.212500", "124421.000000", "124421.790000", "124422.577500", "124423.365000", "124424.152500", "124424.942500", "124425.730000", "124426.517500", "124427.305000", "124428.095000", "124428.882500", "124429.670000", "124430.460000", "124431.247500", "124432.035000", "124432.822500", "124433.612500", "124434.400000", "124435.187500", "124435.975000", "124436.765000", "124437.552500", "124438.340000", "124439.127500", "124439.917500", "124440.705000", "124441.492500", "124442.280000", "124443.070000", "124443.857500", "124444.645000", "124445.432500", "124446.222500", "124447.010000", "124447.797500", "124448.587500", "124449.375000", "124450.162500", "124450.950000", "124451.740000", "124452.527500", "124453.315000", "124454.102500", "124454.892500", "124455.680000", "124456.467500", "124457.255000", "124458.045000", "124458.832500", "124459.620000", "124500.407500", "124501.197500", "124501.985000", "124502.772500", "124503.560000", "124504.350000", "124505.137500", "124505.925000", "124506.715000", "124507.502500", "124508.290000", "124509.077500", "124509.867500", "124510.655000", "124511.442500", "124512.230000", "124513.020000", "124513.807500", "124514.595000", "124515.382500", "124516.172500", "124516.960000", "124517.747500", "124518.535000", "124519.325000", "124520.112500", "124520.900000", "124521.687500", "124522.477500", "124523.265000", "124524.052500", "124524.842500", "124525.630000", "124526.417500", "124527.205000", "124527.995000", "124528.782500", "124529.570000", "124530.357500", "124531.147500", "124531.935000", "124532.722500", "124533.510000", "124534.300000", "124535.087500", "124535.875000", "124536.662500", "124537.452500", "124538.240000", "124539.027500", "124539.815000", "124540.605000", "124541.392500", "124542.180000", "124542.970000", "124543.757500", "124544.545000", "124545.332500", "124546.122500", "124546.910000", "124547.697500", "124548.485000", "124549.275000", "124550.062500", "124550.850000", "124551.637500", "124552.427500", "124553.215000", "124554.002500", "124554.790000", "124555.580000", "124556.367500", "124557.155000", "124557.942500", "124558.732500", "124559.520000", "124600.307500", "124601.097500", "124601.885000", "124602.672500", "124603.460000", "124604.250000", "124605.037500", "124605.825000", "124606.612500", "124607.402500", "124608.190000", "124608.977500", "124609.765000", "124610.555000", "124611.342500", "124612.130000", "124612.917500", "124613.707500", "124614.495000", "124615.282500", "124616.070000", "124616.860000", "124617.647500", "124618.435000", "124619.225000", "124620.012500", "124620.800000", "124621.587500", "124622.377500", "124623.165000", "124623.952500", "124624.740000", "124625.530000", "124626.317500", "124627.105000", "124627.892500", "124628.682500", "124629.470000", "124630.257500", "124631.045000", "124631.835000", "124632.622500", "124633.410000", "124634.197500", "124634.987500", "124635.775000", "124636.562500", "124637.352500", "124638.140000", "124638.927500", "124639.715000", "124640.505000", "124641.292500", "124642.080000", "124642.867500", "124643.657500", "124644.445000", "124645.232500", "124646.020000", "124646.810000", "124647.597500", "124648.385000", "124649.172500", "124649.962500", "124650.750000", "124651.537500", "124652.325000", "124653.115000", "124653.902500", "124654.690000", "124655.480000", "124656.267500", "124657.055000", "124657.842500", "124658.632500", "124659.420000", "124700.207500", "124700.995000", "124701.785000", "124702.572500", "124703.360000", "124704.147500", "124704.937500", "124705.725000", "124706.512500", "124707.300000", "124708.090000", "124708.877500", "124709.665000", "124710.452500", "124711.242500", "124712.030000", "124712.817500", "124713.607500", "124714.395000", "124715.182500", "124715.970000", "124716.760000", "124717.547500", "124718.335000", "124719.122500", "124719.912500", "124720.700000", "124721.487500", "124722.275000", "124723.065000", "124723.852500", "124724.640000", "124725.427500", "124726.217500", "124727.005000", "124727.792500", "124728.582500", "124729.370000", "124730.157500", "124730.945000", "124731.735000", "124732.522500", "124733.310000", "124734.097500", "124734.887500", "124735.675000", "124736.462500", "124737.250000", "124738.040000", "124738.827500", "124739.615000", "124740.402500", "124741.192500", "124741.980000", "124742.767500", "124743.555000", "124744.345000", "124745.132500", "124745.920000", "124746.710000", "124747.497500", "124748.285000", "124749.072500", "124749.862500", "124750.650000", "124751.437500", "124752.225000", "124753.015000", "124753.802500", "124754.590000", "124755.377500", "124756.167500", "124756.955000", "124757.742500", "124758.530000", "124759.320000", "124800.107500", "124800.895000", "124801.682500", "124802.472500", "124803.260000", "124804.047500", "124804.837500", "124805.625000", "124806.412500", "124807.200000", "124807.990000", "124808.777500", "124809.565000", "124810.352500", "124811.142500", "124811.930000", "124812.717500", "124813.505000", "124814.295000", "124815.082500", "124815.870000", "124816.657500", "124817.447500", "124818.235000", "124819.022500", "124819.810000", "124820.600000", "124821.387500", "124822.175000", "124822.965000", "124823.752500", "124824.540000", "124825.327500", "124826.117500", "124826.905000", "124827.692500", "124828.480000", "124829.270000", "124830.057500", "124830.845000", "124831.632500", "124832.422500", "124833.210000", "124833.997500", "124834.785000", "124835.575000", "124836.362500", "124837.150000", "124837.937500", "124838.727500", "124839.515000", "124840.302500", "124841.092500", "124841.880000", "124842.667500", "124843.455000", "124844.245000", "124845.032500", "124845.820000", "124846.607500", "124847.397500", "124848.185000", "124848.972500", "124849.760000", "124850.550000", "124851.337500", "124852.125000", "124852.912500", "124853.702500", "124854.490000", "124855.277500", "124856.065000", "124856.855000", "124857.642500", "124858.430000", "124859.220000", "124900.007500", "124900.795000", "124901.582500", "124902.372500", "124903.160000", "124903.947500", "124904.735000", "124905.525000", "124906.312500", "124907.100000", "124907.887500", "124908.677500", "124909.465000", "124910.252500", "124911.040000", "124911.830000", "124912.617500", "124913.405000", "124914.192500", "124914.982500", "124915.770000", "124916.557500", "124917.347500", "124918.135000", "124918.922500", "124919.710000", "124920.500000", "124921.287500", "124922.075000", "124922.862500", "124923.652500", "124924.440000", "124925.227500", "124926.015000", "124926.805000", "124927.592500", "124928.380000", "124929.167500", "124929.957500", "124930.745000", "124931.532500", "124932.320000", "124933.110000", "124933.897500", "124934.685000", "124935.475000", "124936.262500", "124937.050000"],
