{
  "AcquisitionMatrixPE": 104,
  "AcquisitionNumber": 1,
  "AcquisitionTime": "15:47:8.187500",
  "BandwidthPerPixelPhaseEncode": 13.935,
  "BaseResolution": 104,
  "CoilString": "C:HEA;HEP",
  "ConversionSoftware": "dcm2niix",
  "ConversionSoftwareVersion": "v1.0.20210317",
  "DerivedVendorReportedEchoSpacing": 0.000690017,
  "DeviceSerialNumber": "35450",
  "DwellTime": 2.5e-06,
  "EchoTime": 0.0348,
  "EffectiveEchoSpacing": 0.000690017,
  "FlipAngle": 55,
  "ImageComments": "Unaliased MB8/PE3",
  "ImageOrientationPatientDICOM": [0.999926, -0.000617337, 0.0121857, -1.09673e-08, 0.998719, 0.0505967],
  "ImageType": [
    "ORIGINAL",
    "PRIMARY",
    "M",
    "MB",
    "ND",
    "MOSAIC"
],
  "ImagingFrequency": 123.234,
  "InPlanePhaseEncodingDirectionDICOM": "COL",
  "InstitutionAddress": "Univeristy Ave. 197,Newark,North East,US,07102-1814",
  "InstitutionName": "RUBIC",
  "InstitutionalDepartmentName": "Department",
  "MRAcquisitionType": "2D",
  "MagneticFieldStrength": 3,
  "Manufacturer": "Siemens",
  "ManufacturersModelName": "TrioTim",
  "Modality": "MR",
  "MultibandAccelerationFactor": 8,
  "PartialFourier": 0.875,
  "PatientPosition": "HFS",
  "PercentPhaseFOV": 100,
  "PercentSampling": 100,
  "PhaseEncodingDirection": "j-",
  "PhaseEncodingSteps": 91,
  "PhaseResolution": 1,
  "PixelBandwidth": 1923,
  "ProcedureStepDescription": "Cole^Michael",
  "ProtocolName": "cmrr_mbep2d_bold_2mm_MB8_Rest",
  "PulseSequenceDetails": "%CustomerSeq%\\cmrr_mbep2d_bold",
  "ReceiveCoilName": "32Ch_Head",
  "ReconMatrixPE": 104,
  "RepetitionTime": 0.785,
  "SAR": 0.126323,
  "ScanOptions": "PFP\\FS",
  "ScanningSequence": "EP",
  "SequenceName": "epfid2d1_104",
  "SequenceVariant": "SK\\SS",
  "SeriesDescription": "cmrr_mbep2d_bold_2mm_MB8_Rest",
  "SeriesNumber": 9,
  "ShimSetting": [2119, -428, -7201, 393, 63, -426, 213, 59],
  "SliceThickness": 2,
  "SliceTiming": [0, 0.4375, 0.0875, 0.525, 0.175, 0.6125, 0.2625, 0.7, 0.35, 0, 0.4375, 0.0875, 0.525, 0.175, 0.6125, 0.2625, 0.7, 0.35, 0, 0.4375, 0.0875, 0.525, 0.175, 0.6125, 0.2625, 0.7, 0.35, 0, 0.4375, 0.0875, 0.525, 0.175, 0.6125, 0.2625, 0.7, 0.35, 0, 0.4375, 0.0875, 0.525, 0.175, 0.6125, 0.2625, 0.7, 0.35, 0, 0.4375, 0.0875, 0.525, 0.175, 0.6125, 0.2625, 0.7, 0.35, 0, 0.4375, 0.0875, 0.525, 0.175, 0.6125, 0.2625, 0.7, 0.35, 0, 0.4375, 0.0875, 0.525, 0.175, 0.6125, 0.2625, 0.7, 0.35],
  "SoftwareVersions": "syngo MR B19",
  "SpacingBetweenSlices": 2,
  "StationName": "MRC35450",
  "TaskName": "rest",
  "TotalReadoutTime": 0.0710717,
  "TxRefAmp": 319.19,
  "dcmmeta_affine": [
    [-1.999851107597351, -2.1934688732017094e-08, 0.02440270595252514, 103.79772186279297],
    [0.0012346745934337378, 1.9974383115768433, 0.1011858731508255, -80.38279724121094],
    [0.024371452629566193, -0.10119340568780899, 1.9972896575927734, -84.81161499023438],
    [0.0, 0.0, 0.0, 1.0]
],
  "dcmmeta_reorient_transform": [
    [0.0, -1.0, 0.0, 103.0],
    [1.0, 0.0, 0.0, 0.0],
    [0.0, 0.0, 1.0, 0.0],
    [0.0, 0.0, 0.0, 1.0]
],
  "dcmmeta_shape": [104, 104, 72, 1070],
  "dcmmeta_slice_dim": 2,
  "dcmmeta_version": 0.6,
  "global": {
    "const": {
      "AcquisitionMatrix": [104, 0, 0, 104],
      "AngioFlag": "N",
      "BitsAllocated": 16,
      "BitsStored": 12,
      "Columns": 936,
      "EchoNumbers": 1,
      "EchoTime": 34.8,
      "EchoTrainLength": 1,
      "FlipAngle": 55.0,
      "HighBit": 11,
      "ImageOrientationPatient": [0.99992556071807, -0.000617337314, 0.01218572596472, -1.0967344e-08, 0.9987191664861, 0.05059670437212],
      "ImagePositionPatient": [-935.73577697177, -955.77407046691, -147.46951684362],
      "ImageType": [
        "ORIGINAL",
        "PRIMARY",
        "M",
        "MB",
        "ND",
        "MOSAIC"
],
      "ImagedNucleus": "1H",
      "ImagingFrequency": 123.234398,
      "InPlanePhaseEncodingDirection": "COL",
      "MRAcquisitionType": "2D",
      "MagneticFieldStrength": 3.0,
      "Manufacturer": "SIEMENS",
      "ManufacturerModelName": "TrioTim",
      "Modality": "MR",
      "NumberOfAverages": 1.0,
      "NumberOfPhaseEncodingSteps": 91,
      "PercentPhaseFieldOfView": 100.0,
      "PercentSampling": 100.0,
      "PerformedProcedureStepStartTime": "150203.328000",
      "PhotometricInterpretation": "MONOCHROME2",
      "PixelBandwidth": 1923.0,
      "PixelRepresentation": 0,
      "PixelSpacing": [2.0, 2.0],
      "ProtocolName": "cmrr_mbep2d_bold_2mm_MB8_Rest",
      "RepetitionTime": 785.0,
      "Rows": 936,
      "SAR": 0.12632299890328,
      "SamplesPerPixel": 1,
      "ScanOptions": [
        "PFP",
        "FS"
],
      "ScanningSequence": "EP",
      "SequenceName": "epfid2d1_104",
      "SequenceVariant": [
        "SK",
        "SS"
],
      "SeriesDescription": "cmrr_mbep2d_bold_2mm_MB8_Rest",
      "SeriesNumber": 9,
      "SeriesTime": "154822.953000",
      "SliceLocation": -87.497008249915,
      "SliceThickness": 2.0,
      "SmallestImagePixelValue": 0,
      "SoftwareVersions": "syngo MR B19",
      "SpacingBetweenSlices": 1.9999999865383,
      "SpecificCharacterSet": "ISO_IR 100",
      "StudyID": "1",
      "StudyTime": "150203.312000",
      "TransmitCoilName": "Body",
      "VariableFlipAngleFlag": "N",
      "WindowCenterWidthExplanation": "Algo1",
      "dBdt": 0.0},
    "slices": {}
  },
  "time": {
    "samples": {
      "AcquisitionNumber": [1, 2, 3, 4, 5, 6, 7, 8, 9, 10, 11, 12, 13, 14, 15, 16, 17, 18, 19, 20, 21, 22, 23, 24, 25, 26, 27, 28, 29, 30, 31, 32, 33, 34, 35, 36, 37, 38, 39, 40, 41, 42, 43, 44, 45, 46, 47, 48, 49, 50, 51, 52, 53, 54, 55, 56, 57, 58, 59, 60, 61, 62, 63, 64, 65, 66, 67, 68, 69, 70, 71, 72, 73, 74, 75, 76, 77, 78, 79, 80, 81, 82, 83, 84, 85, 86, 87, 88, 89, 90, 91, 92, 93, 94, 95, 96, 97, 98, 99, 100, 101, 102, 103, 104, 105, 106, 107, 108, 109, 110, 111, 112, 113, 114, 115, 116, 117, 118, 119, 120, 121, 122, 123, 124, 125, 126, 127, 128, 129, 130, 131, 132, 133, 134, 135, 136, 137, 138, 139, 140, 141, 142, 143, 144, 145, 146, 147, 148, 149, 150, 151, 152, 153, 154, 155, 156, 157, 158, 159, 160, 161, 162, 163, 164, 165, 166, 167, 168, 169, 170, 171, 172, 173, 174, 175, 176, 177, 178, 179, 180, 181, 182, 183, 184, 185, 186, 187, 188, 189, 190, 191, 192, 193, 194, 195, 196, 197, 198, 199, 200, 201, 202, 203, 204, 205, 206, 207, 208, 209, 210, 211, 212, 213, 214, 215, 216, 217, 218, 219, 220, 221, 222, 223, 224, 225, 226, 227, 228, 229, 230, 231, 232, 233, 234, 235, 236, 237, 238, 239, 240, 241, 242, 243, 244, 245, 246, 247, 248, 249, 250, 251, 252, 253, 254, 255, 256, 257, 258, 259, 260, 261, 262, 263, 264, 265, 266, 267, 268, 269, 270, 271, 272, 273, 274, 275, 276, 277, 278, 279, 280, 281, 282, 283, 284, 285, 286, 287, 288, 289, 290, 291, 292, 293, 294, 295, 296, 297, 298, 299, 300, 301, 302, 303, 304, 305, 306, 307, 308, 309, 310, 311, 312, 313, 314, 315, 316, 317, 318, 319, 320, 321, 322, 323, 324, 325, 326, 327, 328, 329, 330, 331, 332, 333, 334, 335, 336, 337, 338, 339, 340, 341, 342, 343, 344, 345, 346, 347, 348, 349, 350, 351, 352, 353, 354, 355, 356, 357, 358, 359, 360, 361, 362, 363, 364, 365, 366, 367, 368, 369, 370, 371, 372, 373, 374, 375, 376, 377, 378, 379, 380, 381, 382, 383, 384, 385, 386, 387, 388, 389, 390, 391, 392, 393, 394, 395, 396, 397, 398, 399, 400, 401, 402, 403, 404, 405, 406, 407, 408, 409, 410, 411, 412, 413, 414, 415, 416, 417, 418, 419, 420, 421, 422, 423, 424, 425, 426, 427, 428, 429, 430, 431, 432, 433, 434, 435, 436, 437, 438, 439, 440, 441, 442, 443, 444, 445, 446, 447, 448, 449, 450, 451, 452, 453, 454, 455, 456, 457, 458, 459, 460, 461, 462, 463, 464, 465, 466, 467, 468, 469, 470, 471, 472, 473, 474, 475, 476, 477, 478, 479, 480, 481, 482, 483, 484, 485, 486, 487, 488, 489, 490, 491, 492, 493, 494, 495, 496, 497, 498, 499, 500, 501, 502, 503, 504, 505, 506, 507, 508, 509, 510, 511, 512, 513, 514, 515, 516, 517, 518, 519, 520, 521, 522, 523, 524, 525, 526, 527, 528, 529, 530, 531, 532, 533, 534, 535, 536, 537, 538, 539, 540, 541, 542, 543, 544, 545, 546, 547, 548, 549, 550, 551, 552, 553, 554, 555, 556, 557, 558, 559, 560, 561, 562, 563, 564, 565, 566, 567, 568, 569, 570, 571, 572, 573, 574, 575, 576, 577, 578, 579, 580, 581, 582, 583, 584, 585, 586, 587, 588, 589, 590, 591, 592, 593, 594, 595, 596, 597, 598, 599, 600, 601, 602, 603, 604, 605, 606, 607, 608, 609, 610, 611, 612, 613, 614, 615, 616, 617, 618, 619, 620, 621, 622, 623, 624, 625, 626, 627, 628, 629, 630, 631, 632, 633, 634, 635, 636, 637, 638, 639, 640, 641, 642, 643, 644, 645, 646, 647, 648, 649, 650, 651, 652, 653, 654, 655, 656, 657, 658, 659, 660, 661, 662, 663, 664, 665, 666, 667, 668, 669, 670, 671, 672, 673, 674, 675, 676, 677, 678, 679, 680, 681, 682, 683, 684, 685, 686, 687, 688, 689, 690, 691, 692, 693, 694, 695, 696, 697, 698, 699, 700, 701, 702, 703, 704, 705, 706, 707, 708, 709, 710, 711, 712, 713, 714, 715, 716, 717, 718, 719, 720, 721, 722, 723, 724, 725, 726, 727, 728, 729, 730, 731, 732, 733, 734, 735, 736, 737, 738, 739, 740, 741, 742, 743, 744, 745, 746, 747, 748, 749, 750, 751, 752, 753, 754, 755, 756, 757, 758, 759, 760, 761, 762, 763, 764, 765, 766, 767, 768, 769, 770, 771, 772, 773, 774, 775, 776, 777, 778, 779, 780, 781, 782, 783, 784, 785, 786, 787, 788, 789, 790, 791, 792, 793, 794, 795, 796, 797, 798, 799, 800, 801, 802, 803, 804, 805, 806, 807, 808, 809, 810, 811, 812, 813, 814, 815, 816, 817, 818, 819, 820, 821, 822, 823, 824, 825, 826, 827, 828, 829, 830, 831, 832, 833, 834, 835, 836, 837, 838, 839, 840, 841, 842, 843, 844, 845, 846, 847, 848, 849, 850, 851, 852, 853, 854, 855, 856, 857, 858, 859, 860, 861, 862, 863, 864, 865, 866, 867, 868, 869, 870, 871, 872, 873, 874, 875, 876, 877, 878, 879, 880, 881, 882, 883, 884, 885, 886, 887, 888, 889, 890, 891, 892, 893, 894, 895, 896, 897, 898, 899, 900, 901, 902, 903, 904, 905, 906, 907, 908, 909, 910, 911, 912, 913, 914, 915, 916, 917, 918, 919, 920, 921, 922, 923, 924, 925, 926, 927, 928, 929, 930, 931, 932, 933, 934, 935, 936, 937, 938, 939, 940, 941, 942, 943, 944, 945, 946, 947, 948, 949, 950, 951, 952, 953, 954, 955, 956, 957, 958, 959, 960, 961, 962, 963, 964, 965, 966, 967, 968, 969, 970, 971, 972, 973, 974, 975, 976, 977, 978, 979, 980, 981, 982, 983, 984, 985, 986, 987, 988, 989, 990, 991, 992, 993, 994, 995, 996, 997, 998, 999, 1000, 1001, 1002, 1003, 1004, 1005, 1006, 1007, 1008, 1009, 1010, 1011, 1012, 1013, 1014, 1015, 1016, 1017, 1018, 1019, 1020, 1021, 1022, 1023, 1024, 1025, 1026, 1027, 1028, 1029, 1030, 1031, 1032, 1033, 1034, 1035, 1036, 1037, 1038, 1039, 1040, 1041, 1042, 1043, 1044, 1045, 1046, 1047, 1048, 1049, 1050, 1051, 1052, 1053, 1054, 1055, 1056, 1057, 1058, 1059, 1060, 1061, 1062, 1063, 1064, 1065, 1066, 1067, 1068, 1069, 1070],
      "AcquisitionTime": ["154708.187500", "154708.977500", "154709.765000", "154710.552500", "154711.340000", "154712.130000", "154712.917500", "154713.705000", "154714.492500", "154715.282500", "154716.070000", "154716.857500", "154717.645000", "154718.435000", "154719.222500", "154720.010000", "154720.797500", "154721.587500", "154722.375000", "154723.162500", "154723.950000", "154724.740000", "154725.527500", "154726.315000", "154727.105000", "154727.892500", "154728.680000", "154729.467500", "154730.257500", "154731.045000", "154731.832500", "154732.620000", "154733.410000", "154734.197500", "154734.985000", "154735.772500", "154736.562500", "154737.350000", "154738.137500", "154738.925000", "154739.715000", "154740.502500", "154741.290000", "154742.077500", "154742.867500", "154743.655000", "154744.442500", "154745.232500", "154746.020000", "154746.807500", "154747.595000", "154748.385000", "154749.172500", "154749.960000", "154750.747500", "154751.537500", "154752.325000", "154753.112500", "154753.900000", "154754.690000", "154755.477500", "154756.265000", "154757.052500", "154757.842500", "154758.630000", "154759.417500", "154800.205000", "154800.995000", "154801.782500", "154802.570000", "154803.360000", "154804.147500", "154804.935000", "154805.722500", "154806.512500", "154807.300000", "154808.087500", "154808.875000", "154809.665000", "154810.452500", "154811.240000", "154812.027500", "154812.817500", "154813.605000", "154814.392500", "154815.180000", "154815.970000", "154816.757500", "154817.545000", "154818.332500", "154819.122500", "154819.910000", "154820.697500", "154821.487500", "154822.275000", "154823.062500", "154823.850000", "154824.640000", "154825.427500", "154826.215000", "154827.002500", "154827.792500", "154828.580000", "154829.367500", "154830.155000", "154830.945000", "154831.732500", "154832.520000", "154833.307500", "154834.097500", "154834.885000", "154835.672500", "154836.460000", "154837.250000", "154838.037500", "154838.825000", "154839.615000", "154840.402500", "154841.190000", "154841.977500", "154842.767500", "154843.555000", "154844.342500", "154845.130000", "154845.920000", "154846.707500", "154847.495000", "154848.282500", "154849.072500", "154849.860000", "154850.647500", "154851.435000", "154852.225000", "154853.012500", "154853.800000", "154854.587500", "154855.377500", "154856.165000", "154856.952500", "154857.742500", "154858.530000", "154859.317500", "154900.105000", "154900.895000", "154901.682500", "154902.470000", "154903.257500", "154904.047500", "154904.835000", "154905.622500", "154906.410000", "154907.200000", "154907.987500", "154908.775000", "154909.562500", "154910.352500", "154911.140000", "154911.927500", "154912.715000", "154913.505000", "154914.292500", "154915.080000", "154915.870000", "154916.657500", "154917.445000", "154918.232500", "154919.022500", "154919.810000", "154920.597500", "154921.385000", "154922.175000", "154922.962500", "154923.750000", "154924.537500", "154925.327500", "154926.115000", "154926.902500", "154927.690000", "154928.480000", "154929.267500", "154930.055000", "154930.845000", "154931.632500", "154932.420000", "154933.207500", "154933.997500", "154934.785000", "154935.572500", "154936.360000", "154937.150000", "154937.937500", "154938.725000", "154939.512500", "154940.302500", "154941.090000", "154941.877500", "154942.665000", "154943.455000", "154944.242500", "154945.030000", "154945.817500", "154946.607500", "154947.395000", "154948.182500", "154948.972500", "154949.760000", "154950.547500", "154951.335000", "154952.125000", "154952.912500", "154953.700000", "154954.487500", "154955.277500", "154956.065000", "154956.852500", "154957.640000", "154958.430000", "154959.217500", "155000.005000", "155000.792500", "155001.582500", "155002.370000", "155003.157500", "155003.945000", "155004.735000", "155005.522500", "155006.310000", "155007.100000", "155007.887500", "155008.675000", "155009.462500", "155010.252500", "155011.040000", "155011.827500", "155012.615000", "155013.405000", "155014.192500", "155014.980000", "155015.767500", "155016.557500", "155017.345000", "155018.132500", "155018.920000", "155019.710000", "155020.497500", "155021.285000", "155022.072500", "155022.862500", "155023.650000", "155024.437500", "155025.227500", "155026.015000", "155026.802500", "155027.590000", "155028.380000", "155029.167500", "155029.955000", "155030.742500", "155031.532500", "155032.320000", "155033.107500", "155033.895000", "155034.685000", "155035.472500", "155036.260000", "155037.047500", "155037.837500", "155038.625000", "155039.412500", "155040.200000", "155040.990000", "155041.777500", "155042.565000", "155043.355000", "155044.142500", "155044.930000", "155045.717500", "155046.507500", "155047.295000", "155048.082500", "155048.870000", "155049.660000", "155050.447500", "155051.235000", "155052.022500", "155052.812500", "155053.600000", "155054.387500", "155055.175000", "155055.965000", "155056.752500", "155057.540000", "155058.327500", "155059.117500", "155059.905000", "155100.692500", "155101.482500", "155102.270000", "155103.057500", "155103.845000", "155104.635000", "155105.422500", "155106.210000", "155106.997500", "155107.787500", "155108.575000", "155109.362500", "155110.150000", "155110.940000", "155111.727500", "155112.515000", "155113.302500", "155114.092500", "155114.880000", "155115.667500", "155116.455000", "155117.245000", "155118.032500", "155118.820000", "155119.610000", "155120.397500", "155121.185000", "155121.972500", "155122.762500", "155123.550000", "155124.337500", "155125.125000", "155125.915000", "155126.702500", "155127.490000", "155128.277500", "155129.067500", "155129.855000", "155130.642500", "155131.430000", "155132.220000", "155133.007500", "155133.795000", "155134.582500", "155135.372500", "155136.160000", "155136.947500", "155137.737500", "155138.525000", "155139.312500", "155140.100000", "155140.890000", "155141.677500", "155142.465000", "155143.252500", "155144.042500", "155144.830000", "155145.617500", "155146.405000", "155147.195000", "155147.982500", "155148.770000", "155149.557500", "155150.347500", "155151.135000", "155151.922500", "155152.710000", "155153.500000", "155154.287500", "155155.075000", "155155.865000", "155156.652500", "155157.440000", "155158.227500", "155159.017500", "155159.805000", "155200.592500", "155201.380000", "155202.170000", "155202.957500", "155203.745000", "155204.532500", "155205.322500", "155206.110000", "155206.897500", "155207.685000", "155208.475000", "155209.262500", "155210.050000", "155210.837500", "155211.627500", "155212.415000", "155213.202500", "155213.992500", "155214.780000", "155215.567500", "155216.355000", "155217.145000", "155217.932500", "155218.720000", "155219.507500", "155220.297500", "155221.085000", "155221.872500", "155222.660000", "155223.450000", "155224.237500", "155225.025000", "155225.812500", "155226.602500", "155227.390000", "155228.177500", "155228.965000", "155229.755000", "155230.542500", "155231.330000", "155232.120000", "155232.907500", "155233.695000", "155234.482500", "155235.272500", "155236.060000", "155236.847500", "155237.635000", "155238.425000", "155239.212500", "155240.000000", "155240.787500", "155241.577500", "155242.365000", "155243.152500", "155243.940000", "155244.730000", "155245.517500", "155246.305000", "155247.095000", "155247.882500", "155248.670000", "155249.457500", "155250.247500", "155251.035000", "155251.822500", "155252.610000", "155253.400000", "155254.187500", "155254.975000", "155255.762500", "155256.552500", "155257.340000", "155258.127500", "155258.915000", "155259.705000", "155300.492500", "155301.280000", "155302.067500", "155302.857500", "155303.645000", "155304.432500", "155305.222500", "155306.010000", "155306.797500", "155307.585000", "155308.375000", "155309.162500", "155309.950000", "155310.737500", "155311.527500", "155312.315000", "155313.102500", "155313.890000", "155314.680000", "155315.467500", "155316.255000", "155317.042500", "155317.832500", "155318.620000", "155319.407500", "155320.195000", "155320.985000", "155321.772500", "155322.560000", "155323.350000", "155324.137500", "155324.925000", "155325.712500", "155326.502500", "155327.290000", "155328.077500", "155328.865000", "155329.655000", "155330.442500", "155331.230000", "155332.017500", "155332.807500", "155333.595000", "155334.382500", "155335.170000", "155335.960000", "155336.747500", "155337.535000", "155338.322500", "155339.112500", "155339.900000", "155340.687500", "155341.477500", "155342.265000", "155343.052500", "155343.840000", "155344.630000", "155345.417500", "155346.205000", "155346.992500", "155347.782500", "155348.570000", "155349.357500", "155350.145000", "155350.935000", "155351.722500", "155352.510000", "155353.297500", "155354.087500", "155354.875000", "155355.662500", "155356.450000", "155357.240000", "155358.027500", "155358.815000", "155359.605000", "155400.392500", "155401.180000", "155401.967500", "155402.757500", "155403.545000", "155404.332500", "155405.120000", "155405.910000", "155406.697500", "155407.485000", "155408.272500", "155409.062500", "155409.850000", "155410.637500", "155411.425000", "155412.215000", "155413.002500", "155413.790000", "155414.577500", "155415.367500", "155416.155000", "155416.942500", "155417.732500", "155418.520000", "155419.307500", "155420.095000", "155420.885000", "155421.672500", "155422.460000", "155423.247500", "155424.037500", "155424.825000", "155425.612500", "155426.400000", "155427.190000", "155427.977500", "155428.765000", "155429.552500", "155430.342500", "155431.130000", "155431.917500", "155432.705000", "155433.495000", "155434.282500", "155435.070000", "155435.860000", "155436.647500", "155437.435000", "155438.222500", "155439.012500", "155439.800000", "155440.587500", "155441.375000", "155442.165000", "155442.952500", "155443.740000", "155444.527500", "155445.317500", "155446.105000", "155446.892500", "155447.680000", "155448.470000", "155449.257500", "155450.045000", "155450.832500", "155451.622500", "155452.410000", "155453.197500", "155453.987500", "155454.775000", "155455.562500", "155456.350000", "155457.140000", "155457.927500", "155458.715000", "155459.502500", "155500.292500", "155501.080000", "155501.867500", "155502.655000", "155503.445000", "155504.232500", "155505.020000", "155505.807500", "155506.597500", "155507.385000", "155508.172500", "155508.960000", "155509.750000", "155510.537500", "155511.325000", "155512.115000", "155512.902500", "155513.690000", "155514.477500", "155515.267500", "155516.055000", "155516.842500", "155517.630000", "155518.420000", "155519.207500", "155519.995000", "155520.782500", "155521.572500", "155522.360000", "155523.147500", "155523.935000", "155524.725000", "155525.512500", "155526.300000", "155527.087500", "155527.877500", "155528.665000", "155529.452500", "155530.242500", "155531.030000", "155531.817500", "155532.605000", "155533.395000", "155534.182500", "155534.970000", "155535.757500", "155536.547500", "155537.335000", "155538.122500", "155538.910000", "155539.700000", "155540.487500", "155541.275000", "155542.062500", "155542.852500", "155543.640000", "155544.427500", "155545.215000", "155546.005000", "155546.792500", "155547.580000", "155548.370000", "155549.157500", "155549.945000", "155550.732500", "155551.522500", "155552.310000", "155553.097500", "155553.885000", "155554.675000", "155555.462500", "155556.250000", "155557.037500", "155557.827500", "155558.615000", "155559.402500", "155600.190000", "155600.980000", "155601.767500", "155602.555000", "155603.345000", "155604.132500", "155604.920000", "155605.707500", "155606.497500", "155607.285000", "155608.072500", "155608.860000", "155609.650000", "155610.437500", "155611.225000", "155612.012500", "155612.802500", "155613.590000", "155614.377500", "155615.165000", "155615.955000", "155616.742500", "155617.530000", "155618.317500", "155619.107500", "155619.895000", "155620.682500", "155621.472500", "155622.260000", "155623.047500", "155623.835000", "155624.625000", "155625.412500", "155626.200000", "155626.987500", "155627.777500", "155628.565000", "155629.352500", "155630.140000", "155630.930000", "155631.717500", "155632.505000", "155633.292500", "155634.082500", "155634.870000", "155635.657500", "155636.445000", "155637.235000", "155638.022500", "155638.810000", "155639.600000", "155640.387500", "155641.175000", "155641.962500", "155642.752500", "155643.540000", "155644.327500", "155645.115000", "155645.905000", "155646.692500", "155647.480000", "155648.267500", "155649.057500", "155649.845000", "155650.632500", "155651.420000", "155652.210000", "155652.997500", "155653.785000", "155654.572500", "155655.362500", "155656.150000", "155656.937500", "155657.727500", "155658.515000", "155659.302500", "155700.090000", "155700.880000", "155701.667500", "155702.455000", "155703.242500", "155704.032500", "155704.820000", "155705.607500", "155706.395000", "155707.185000", "155707.972500", "155708.760000", "155709.547500", "155710.337500", "155711.125000", "155711.912500", "155712.700000", "155713.490000", "155714.277500", "155715.065000", "155715.855000", "155716.642500", "155717.430000", "155718.217500", "155719.007500", "155719.795000", "155720.582500", "155721.370000", "155722.160000", "155722.947500", "155723.735000", "155724.522500", "155725.312500", "155726.100000", "155726.887500", "155727.675000", "155728.465000", "155729.252500", "155730.040000", "155730.827500", "155731.617500", "155732.405000", "155733.192500", "155733.982500", "155734.770000", "155735.557500", "155736.345000", "155737.135000", "155737.922500", "155738.710000", "155739.497500", "155740.287500", "155741.075000", "155741.862500", "155742.650000", "155743.440000", "155744.227500", "155745.015000", "155745.802500", "155746.592500", "155747.380000", "155748.167500", "155748.955000", "155749.745000", "155750.532500", "155751.320000", "155752.110000", "155752.897500", "155753.685000", "155754.472500", "155755.262500", "155756.050000", "155756.837500", "155757.625000", "155758.415000", "155759.202500", "155759.990000", "155800.777500", "155801.567500", "155802.355000", "155803.142500", "155803.930000", "155804.720000", "155805.507500", "155806.295000", "155807.082500", "155807.872500", "155808.660000", "155809.447500", "155810.237500", "155811.025000", "155811.812500", "155812.600000", "155813.390000", "155814.177500", "155814.965000", "155815.752500", "155816.542500", "155817.330000", "155818.117500", "155818.905000", "155819.695000", "155820.482500", "155821.270000", "155822.057500", "155822.847500", "155823.635000", "155824.422500", "155825.210000", "155826.000000", "155826.787500", "155827.575000", "155828.365000", "155829.152500", "155829.940000", "155830.727500", "155831.517500", "155832.305000", "155833.092500", "155833.880000", "155834.670000", "155835.457500", "155836.245000", "155837.032500", "155837.822500", "155838.610000", "155839.397500", "155840.185000", "155840.975000", "155841.762500", "155842.550000", "155843.337500", "155844.127500", "155844.915000", "155845.702500", "155846.492500", "155847.280000", "155848.067500", "155848.855000", "155849.645000", "155850.432500", "155851.220000", "155852.007500", "155852.797500", "155853.585000", "155854.372500", "155855.160000", "155855.950000", "155856.737500", "155857.525000", "155858.312500", "155859.102500", "155859.890000", "155900.677500", "155901.465000", "155902.255000", "155903.042500", "155903.830000", "155904.620000", "155905.407500", "155906.195000", "155906.982500", "155907.772500", "155908.560000", "155909.347500", "155910.135000", "155910.925000", "155911.712500", "155912.500000", "155913.287500", "155914.077500", "155914.865000", "155915.652500", "155916.440000", "155917.230000", "155918.017500", "155918.805000", "155919.595000", "155920.382500", "155921.170000", "155921.957500", "155922.747500", "155923.535000", "155924.322500", "155925.110000", "155925.900000", "155926.687500", "155927.475000", "155928.262500", "155929.052500", "155929.840000", "155930.627500", "155931.415000", "155932.205000", "155932.992500", "155933.780000", "155934.567500", "155935.357500", "155936.145000", "155936.932500", "155937.722500", "155938.510000", "155939.297500", "155940.085000", "155940.875000", "155941.662500", "155942.450000", "155943.237500", "155944.027500", "155944.815000", "155945.602500", "155946.390000", "155947.180000", "155947.967500", "155948.755000", "155949.542500", "155950.332500", "155951.120000", "155951.907500", "155952.695000", "155953.485000", "155954.272500", "155955.060000", "155955.850000", "155956.637500", "155957.425000", "155958.212500", "155959.002500", "155959.790000", "160000.577500", "160001.365000", "160002.155000", "160002.942500", "160003.730000", "160004.517500", "160005.307500", "160006.095000", "160006.882500", "160007.670000", "160008.460000", "160009.247500", "160010.035000", "160010.822500", "160011.612500", "160012.400000", "160013.187500", "160013.977500", "160014.765000", "160015.552500", "160016.340000", "160017.130000", "160017.917500", "160018.705000", "160019.492500", "160020.282500", "160021.070000", "160021.857500", "160022.645000", "160023.435000", "160024.222500", "160025.010000", "160025.797500", "160026.587500", "160027.375000", "160028.162500", "160028.950000", "160029.740000", "160030.527500", "160031.315000", "160032.105000", "160032.892500", "160033.680000", "160034.467500", "160035.257500", "160036.045000", "160036.832500", "160037.620000", "160038.410000", "160039.197500", "160039.985000", "160040.772500", "160041.562500", "160042.350000", "160043.137500", "160043.925000", "160044.715000", "160045.502500", "160046.290000", "160047.077500", "160047.867500", "160048.655000", "160049.442500", "160050.232500", "160051.020000", "160051.807500", "160052.595000", "160053.385000", "160054.172500", "160054.960000", "160055.747500", "160056.537500", "160057.325000", "160058.112500", "160058.900000", "160059.690000", "160100.477500", "160101.265000", "160102.052500", "160102.842500", "160103.630000", "160104.417500", "160105.205000", "160105.995000", "160106.782500", "160107.570000", "160108.360000", "160109.147500", "160109.935000", "160110.722500"],
