{
  "AcquisitionMatrixPE": 104,
  "AcquisitionNumber": 1,
  "AcquisitionTime": "16:59:37.877500",
  "BandwidthPerPixelPhaseEncode": 13.935,
  "BaseResolution": 104,
  "CoilString": "C:HEA;HEP",
  "ConversionSoftware": "dcm2niix",
  "ConversionSoftwareVersion": "v1.0.20210317",
  "DerivedVendorReportedEchoSpacing": 0.000690017,
  "DeviceSerialNumber": "35450",
  "DwellTime": 2.5e-06,
  "EchoTime": 0.0348,
  "EffectiveEchoSpacing": 0.000690017,
  "FlipAngle": 55,
  "ImageComments": "Unaliased MB8/PE3",
  "ImageOrientationPatientDICOM": [0.999926, -0.000617337, 0.0121857, -1.09673e-08, 0.998719, 0.0505967],
  "ImageType": [
    "ORIGINAL",
    "PRIMARY",
    "M",
    "MB",
    "ND",
    "MOSAIC"
],
  "ImagingFrequency": 123.234,
  "InPlanePhaseEncodingDirectionDICOM": "COL",
  "InstitutionAddress": "Univeristy Ave. 197,Newark,North East,US,07102-1814",
  "InstitutionName": "RUBIC",
  "InstitutionalDepartmentName": "Department",
  "MRAcquisitionType": "2D",
  "MagneticFieldStrength": 3,
  "Manufacturer": "Siemens",
  "ManufacturersModelName": "TrioTim",
  "Modality": "MR",
  "MultibandAccelerationFactor": 8,
  "PartialFourier": 0.875,
  "PatientPosition": "HFS",
  "PercentPhaseFOV": 100,
  "PercentSampling": 100,
  "PhaseEncodingDirection": "j-",
  "PhaseEncodingSteps": 91,
  "PhaseResolution": 1,
  "PixelBandwidth": 1923,
  "ProcedureStepDescription": "Cole^Michael",
  "ProtocolName": "cmrr_mbep2d_bold_2mm_MB8_Task_8x",
  "PulseSequenceDetails": "%CustomerSeq%\\cmrr_mbep2d_bold",
  "ReceiveCoilName": "32Ch_Head",
  "ReconMatrixPE": 104,
  "RepetitionTime": 0.785,
  "SAR": 0.109477,
  "ScanOptions": "PFP\\FS",
  "ScanningSequence": "EP",
  "SequenceName": "epfid2d1_104",
  "SequenceVariant": "SK\\SS",
  "SeriesDescription": "cmrr_mbep2d_bold_2mm_MB8_Task_8x",
  "SeriesNumber": 25,
  "ShimSetting": [2119, -428, -7201, 393, 63, -426, 213, 59],
  "SliceThickness": 2,
  "SliceTiming": [0, 0.4375, 0.0875, 0.525, 0.175, 0.6125, 0.2625, 0.7, 0.35, 0, 0.4375, 0.0875, 0.525, 0.175, 0.6125, 0.2625, 0.7, 0.35, 0, 0.4375, 0.0875, 0.525, 0.175, 0.6125, 0.2625, 0.7, 0.35, 0, 0.4375, 0.0875, 0.525, 0.175, 0.6125, 0.2625, 0.7, 0.35, 0, 0.4375, 0.0875, 0.525, 0.175, 0.6125, 0.2625, 0.7, 0.35, 0, 0.4375, 0.0875, 0.525, 0.175, 0.6125, 0.2625, 0.7, 0.35, 0, 0.4375, 0.0875, 0.525, 0.175, 0.6125, 0.2625, 0.7, 0.35, 0, 0.4375, 0.0875, 0.525, 0.175, 0.6125, 0.2625, 0.7, 0.35],
  "SoftwareVersions": "syngo MR B19",
  "SpacingBetweenSlices": 2,
  "StationName": "MRC35450",
  "TaskName": "cpro",
  "TotalReadoutTime": 0.0710717,
  "TxRefAmp": 319.19,
  "dcmmeta_affine": [
    [-1.999851107597351, -2.1934688732017094e-08, 0.02440270595252514, 103.79772186279297],
    [0.0012346745934337378, 1.9974383115768433, 0.1011858731508255, -80.38279724121094],
    [0.024371452629566193, -0.10119340568780899, 1.9972896575927734, -84.81161499023438],
    [0.0, 0.0, 0.0, 1.0]
],
  "dcmmeta_reorient_transform": [
    [0.0, -1.0, 0.0, 103.0],
    [1.0, 0.0, 0.0, 0.0],
    [0.0, 0.0, 1.0, 0.0],
    [0.0, 0.0, 0.0, 1.0]
],
  "dcmmeta_shape": [104, 104, 72, 581],
  "dcmmeta_slice_dim": 2,
  "dcmmeta_version": 0.6,
  "global": {
    "const": {
      "AcquisitionMatrix": [104, 0, 0, 104],
      "AngioFlag": "N",
      "BitsAllocated": 16,
      "BitsStored": 12,
      "Columns": 936,
      "EchoNumbers": 1,
      "EchoTime": 34.8,
      "EchoTrainLength": 1,
      "FlipAngle": 55.0,
      "HighBit": 11,
      "ImageOrientationPatient": [0.99992556071807, -0.000617337314, 0.01218572596472, -1.0967344e-08, 0.9987191664861, 0.05059670437212],
      "ImagePositionPatient": [-935.73577697177, -955.77407046691, -147.46951684362],
      "ImageType": [
        "ORIGINAL",
        "PRIMARY",
        "M",
        "MB",
        "ND",
        "MOSAIC"
],
      "ImagedNucleus": "1H",
      "ImagingFrequency": 123.234452,
      "InPlanePhaseEncodingDirection": "COL",
      "MRAcquisitionType": "2D",
      "MagneticFieldStrength": 3.0,
      "Manufacturer": "SIEMENS",
      "ManufacturerModelName": "TrioTim",
      "Modality": "MR",
      "NumberOfAverages": 1.0,
      "NumberOfPhaseEncodingSteps": 91,
      "PercentPhaseFieldOfView": 100.0,
      "PercentSampling": 100.0,
      "PerformedProcedureStepStartTime": "150203.328000",
      "PhotometricInterpretation": "MONOCHROME2",
      "PixelBandwidth": 1923.0,
      "PixelRepresentation": 0,
      "PixelSpacing": [2.0, 2.0],
      "ProtocolName": "cmrr_mbep2d_bold_2mm_MB8_Task_8x",
      "RepetitionTime": 785.0,
      "Rows": 936,
      "SAR": 0.10947691270066,
      "SamplesPerPixel": 1,
      "ScanOptions": [
        "PFP",
        "FS"
],
      "ScanningSequence": "EP",
      "SequenceName": "epfid2d1_104",
      "SequenceVariant": [
        "SK",
        "SS"
],
      "SeriesDescription": "cmrr_mbep2d_bold_2mm_MB8_Task_8x",
      "SeriesNumber": 25,
      "SeriesTime": "184748.953000",
      "SliceLocation": -87.497008249915,
      "SliceThickness": 2.0,
      "SmallestImagePixelValue": 0,
      "SoftwareVersions": "syngo MR B19",
      "SpacingBetweenSlices": 1.9999999865383,
      "SpecificCharacterSet": "ISO_IR 100",
      "StudyID": "1",
      "StudyTime": "150203.312000",
      "TransmitCoilName": "Body",
      "VariableFlipAngleFlag": "N",
      "WindowCenterWidthExplanation": "Algo1",
      "dBdt": 0.0},
    "slices": {}
  },
  "time": {
    "samples": {
      "AcquisitionNumber": [1, 2, 3, 4, 5, 6, 7, 8, 9, 10, 11, 12, 13, 14, 15, 16, 17, 18, 19, 20, 21, 22, 23, 24, 25, 26, 27, 28, 29, 30, 31, 32, 33, 34, 35, 36, 37, 38, 39, 40, 41, 42, 43, 44, 45, 46, 47, 48, 49, 50, 51, 52, 53, 54, 55, 56, 57, 58, 59, 60, 61, 62, 63, 64, 65, 66, 67, 68, 69, 70, 71, 72, 73, 74, 75, 76, 77, 78, 79, 80, 81, 82, 83, 84, 85, 86, 87, 88, 89, 90, 91, 92, 93, 94, 95, 96, 97, 98, 99, 100, 101, 102, 103, 104, 105, 106, 107, 108, 109, 110, 111, 112, 113, 114, 115, 116, 117, 118, 119, 120, 121, 122, 123, 124, 125, 126, 127, 128, 129, 130, 131, 132, 133, 134, 135, 136, 137, 138, 139, 140, 141, 142, 143, 144, 145, 146, 147, 148, 149, 150, 151, 152, 153, 154, 155, 156, 157, 158, 159, 160, 161, 162, 163, 164, 165, 166, 167, 168, 169, 170, 171, 172, 173, 174, 175, 176, 177, 178, 179, 180, 181, 182, 183, 184, 185, 186, 187, 188, 189, 190, 191, 192, 193, 194, 195, 196, 197, 198, 199, 200, 201, 202, 203, 204, 205, 206, 207, 208, 209, 210, 211, 212, 213, 214, 215, 216, 217, 218, 219, 220, 221, 222, 223, 224, 225, 226, 227, 228, 229, 230, 231, 232, 233, 234, 235, 236, 237, 238, 239, 240, 241, 242, 243, 244, 245, 246, 247, 248, 249, 250, 251, 252, 253, 254, 255, 256, 257, 258, 259, 260, 261, 262, 263, 264, 265, 266, 267, 268, 269, 270, 271, 272, 273, 274, 275, 276, 277, 278, 279, 280, 281, 282, 283, 284, 285, 286, 287, 288, 289, 290, 291, 292, 293, 294, 295, 296, 297, 298, 299, 300, 301, 302, 303, 304, 305, 306, 307, 308, 309, 310, 311, 312, 313, 314, 315, 316, 317, 318, 319, 320, 321, 322, 323, 324, 325, 326, 327, 328, 329, 330, 331, 332, 333, 334, 335, 336, 337, 338, 339, 340, 341, 342, 343, 344, 345, 346, 347, 348, 349, 350, 351, 352, 353, 354, 355, 356, 357, 358, 359, 360, 361, 362, 363, 364, 365, 366, 367, 368, 369, 370, 371, 372, 373, 374, 375, 376, 377, 378, 379, 380, 381, 382, 383, 384, 385, 386, 387, 388, 389, 390, 391, 392, 393, 394, 395, 396, 397, 398, 399, 400, 401, 402, 403, 404, 405, 406, 407, 408, 409, 410, 411, 412, 413, 414, 415, 416, 417, 418, 419, 420, 421, 422, 423, 424, 425, 426, 427, 428, 429, 430, 431, 432, 433, 434, 435, 436, 437, 438, 439, 440, 441, 442, 443, 444, 445, 446, 447, 448, 449, 450, 451, 452, 453, 454, 455, 456, 457, 458, 459, 460, 461, 462, 463, 464, 465, 466, 467, 468, 469, 470, 471, 472, 473, 474, 475, 476, 477, 478, 479, 480, 481, 482, 483, 484, 485, 486, 487, 488, 489, 490, 491, 492, 493, 494, 495, 496, 497, 498, 499, 500, 501, 502, 503, 504, 505, 506, 507, 508, 509, 510, 511, 512, 513, 514, 515, 516, 517, 518, 519, 520, 521, 522, 523, 524, 525, 526, 527, 528, 529, 530, 531, 532, 533, 534, 535, 536, 537, 538, 539, 540, 541, 542, 543, 544, 545, 546, 547, 548, 549, 550, 551, 552, 553, 554, 555, 556, 557, 558, 559, 560, 561, 562, 563, 564, 565, 566, 567, 568, 569, 570, 571, 572, 573, 574, 575, 576, 577, 578, 579, 580, 581],
      "AcquisitionTime": ["165937.877500", "165938.665000", "165939.452500", "165940.240000", "165941.030000", "165941.817500", "165942.605000", "165943.392500", "165944.182500", "165944.970000", "165945.757500", "165946.545000", "165947.335000", "165948.122500", "165948.910000", "165949.700000", "165950.487500", "165951.275000", "165952.062500", "165952.852500", "165953.640000", "165954.427500", "165955.215000", "165956.005000", "165956.792500", "165957.580000", "165958.367500", "165959.157500", "165959.945000", "170000.732500", "170001.520000", "170002.310000", "170003.097500", "170003.885000", "170004.672500", "170005.462500", "170006.250000", "170007.037500", "170007.827500", "170008.615000", "170009.402500", "170010.190000", "170010.980000", "170011.767500", "170012.555000", "170013.342500", "170014.132500", "170014.920000", "170015.707500", "170016.495000", "170017.285000", "170018.072500", "170018.860000", "170019.647500", "170020.437500", "170021.225000", "170022.012500", "170022.800000", "170023.590000", "170024.377500", "170025.165000", "170025.955000", "170026.742500", "170027.530000", "170028.317500", "170029.107500", "170029.895000", "170030.682500", "170031.470000", "170032.260000", "170033.047500", "170033.835000", "170034.622500", "170035.412500", "170036.200000", "170036.987500", "170037.775000", "170038.565000", "170039.352500", "170040.140000", "170040.927500", "170041.717500", "170042.505000", "170043.292500", "170044.082500", "170044.870000", "170045.657500", "170046.445000", "170047.235000", "170048.022500", "170048.810000", "170049.597500", "170050.387500", "170051.175000", "170051.962500", "170052.750000", "170053.540000", "170054.327500", "170055.115000", "170055.902500", "170056.692500", "170057.480000", "170058.267500", "170059.057500", "170059.845000", "170100.632500", "170101.420000", "170102.210000", "170102.997500", "170103.785000", "170104.572500", "170105.362500", "170106.150000", "170106.937500", "170107.725000", "170108.515000", "170109.302500", "170110.090000", "170110.877500", "170111.667500", "170112.455000", "170113.242500", "170114.030000", "170114.820000", "170115.607500", "170116.395000", "170117.185000", "170117.972500", "170118.760000", "170119.547500", "170120.337500", "170121.125000", "170121.912500", "170122.700000", "170123.490000", "170124.277500", "170125.065000", "170125.852500", "170126.642500", "170127.430000", "170128.217500", "170129.005000", "170129.795000", "170130.582500", "170131.370000", "170132.157500", "170132.947500", "170133.735000", "170134.522500", "170135.312500", "170136.100000", "170136.887500", "170137.675000", "170138.465000", "170139.252500", "170140.040000", "170140.827500", "170141.617500", "170142.405000", "170143.192500", "170143.980000", "170144.770000", "170145.557500", "170146.345000", "170147.132500", "170147.922500", "170148.710000", "170149.497500", "170150.285000", "170151.075000", "170151.862500", "170152.650000", "170153.440000", "170154.227500", "170155.015000", "170155.802500", "170156.592500", "170157.380000", "170158.167500", "170158.955000", "170159.745000", "170200.532500", "170201.320000", "170202.107500", "170202.897500", "170203.685000", "170204.472500", "170205.260000", "170206.050000", "170206.837500", "170207.625000", "170208.412500", "170209.202500", "170209.990000", "170210.777500", "170211.567500", "170212.355000", "170213.142500", "170213.930000", "170214.720000", "170215.507500", "170216.295000", "170217.082500", "170217.872500", "170218.660000", "170219.447500", "170220.235000", "170221.025000", "170221.812500", "170222.600000", "170223.387500", "170224.177500", "170224.965000", "170225.752500", "170226.540000", "170227.330000", "170228.117500", "170228.905000", "170229.695000", "170230.482500", "170231.270000", "170232.057500", "170232.847500", "170233.635000", "170234.422500", "170235.210000", "170236.000000", "170236.787500", "170237.575000", "170238.362500", "170239.152500", "170239.940000", "170240.727500", "170241.515000", "170242.305000", "170243.092500", "170243.880000", "170244.667500", "170245.457500", "170246.245000", "170247.032500", "170247.822500", "170248.610000", "170249.397500", "170250.185000", "170250.975000", "170251.762500", "170252.550000", "170253.337500", "170254.127500", "170254.915000", "170255.702500", "170256.490000", "170257.280000", "170258.067500", "170258.855000", "170259.642500", "170300.432500", "170301.220000", "170302.007500", "170302.795000", "170303.585000", "170304.372500", "170305.160000", "170305.950000", "170306.737500", "170307.525000", "170308.312500", "170309.102500", "170309.890000", "170310.677500", "170311.465000", "170312.255000", "170313.042500", "170313.830000", "170314.617500", "170315.407500", "170316.195000", "170316.982500", "170317.770000", "170318.560000", "170319.347500", "170320.135000", "170320.922500", "170321.712500", "170322.500000", "170323.287500", "170324.077500", "170324.865000", "170325.652500", "170326.440000", "170327.230000", "170328.017500", "170328.805000", "170329.592500", "170330.382500", "170331.170000", "170331.957500", "170332.745000", "170333.535000", "170334.322500", "170335.110000", "170335.897500", "170336.687500", "170337.475000", "170338.262500", "170339.050000", "170339.840000", "170340.627500", "170341.415000", "170342.205000", "170342.992500", "170343.780000", "170344.567500", "170345.357500", "170346.145000", "170346.932500", "170347.720000", "170348.510000", "170349.297500", "170350.085000", "170350.872500", "170351.662500", "170352.450000", "170353.237500", "170354.025000", "170354.815000", "170355.602500", "170356.390000", "170357.177500", "170357.967500", "170358.755000", "170359.542500", "170400.332500", "170401.120000", "170401.907500", "170402.695000", "170403.485000", "170404.272500", "170405.060000", "170405.847500", "170406.637500", "170407.425000", "170408.212500", "170409.000000", "170409.790000", "170410.577500", "170411.365000", "170412.152500", "170412.942500", "170413.730000", "170414.517500", "170415.307500", "170416.095000", "170416.882500", "170417.670000", "170418.460000", "170419.247500", "170420.035000", "170420.822500", "170421.612500", "170422.400000", "170423.187500", "170423.975000", "170424.765000", "170425.552500", "170426.340000", "170427.127500", "170427.917500", "170428.705000", "170429.492500", "170430.280000", "170431.070000", "170431.857500", "170432.645000", "170433.435000", "170434.222500", "170435.010000", "170435.797500", "170436.587500", "170437.375000", "170438.162500", "170438.950000", "170439.740000", "170440.527500", "170441.315000", "170442.102500", "170442.892500", "170443.680000", "170444.467500", "170445.255000", "170446.045000", "170446.832500", "170447.620000", "170448.407500", "170449.197500", "170449.985000", "170450.772500", "170451.562500", "170452.350000", "170453.137500", "170453.925000", "170454.715000", "170455.502500", "170456.290000", "170457.077500", "170457.867500", "170458.655000", "170459.442500", "170500.230000", "170501.020000", "170501.807500", "170502.595000", "170503.382500", "170504.172500", "170504.960000", "170505.747500", "170506.535000", "170507.325000", "170508.112500", "170508.900000", "170509.690000", "170510.477500", "170511.265000", "170512.052500", "170512.842500", "170513.630000", "170514.417500", "170515.205000", "170515.995000", "170516.782500", "170517.570000", "170518.357500", "170519.147500", "170519.935000", "170520.722500", "170521.510000", "170522.300000", "170523.087500", "170523.875000", "170524.662500", "170525.452500", "170526.240000", "170527.027500", "170527.817500", "170528.605000", "170529.392500", "170530.180000", "170530.970000", "170531.757500", "170532.545000", "170533.332500", "170534.122500", "170534.910000", "170535.697500", "170536.485000", "170537.275000", "170538.062500", "170538.850000", "170539.637500", "170540.427500", "170541.215000", "170542.002500", "170542.790000", "170543.580000", "170544.367500", "170545.155000", "170545.945000", "170546.732500", "170547.520000", "170548.307500", "170549.097500", "170549.885000", "170550.672500", "170551.460000", "170552.250000", "170553.037500", "170553.825000", "170554.612500", "170555.402500", "170556.190000", "170556.977500", "170557.765000", "170558.555000", "170559.342500", "170600.130000", "170600.917500", "170601.707500", "170602.495000", "170603.282500", "170604.072500", "170604.860000", "170605.647500", "170606.435000", "170607.225000", "170608.012500", "170608.800000", "170609.587500", "170610.377500", "170611.165000", "170611.952500", "170612.740000", "170613.530000", "170614.317500", "170615.105000", "170615.892500", "170616.682500", "170617.470000", "170618.257500", "170619.045000", "170619.835000", "170620.622500", "170621.410000", "170622.200000", "170622.987500", "170623.775000", "170624.562500", "170625.352500", "170626.140000", "170626.927500", "170627.715000", "170628.505000", "170629.292500", "170630.080000", "170630.867500", "170631.657500", "170632.445000", "170633.232500", "170634.020000", "170634.810000", "170635.597500", "170636.385000", "170637.172500", "170637.962500", "170638.750000", "170639.537500", "170640.327500", "170641.115000", "170641.902500", "170642.690000", "170643.480000", "170644.267500", "170645.055000", "170645.842500", "170646.632500", "170647.420000", "170648.207500", "170648.995000", "170649.785000", "170650.572500", "170651.360000", "170652.147500", "170652.937500", "170653.725000", "170654.512500", "170655.300000", "170656.090000", "170656.877500", "170657.665000", "170658.455000", "170659.242500", "170700.030000", "170700.817500", "170701.607500", "170702.395000", "170703.182500", "170703.970000", "170704.760000", "170705.547500", "170706.335000", "170707.122500", "170707.912500", "170708.700000", "170709.487500", "170710.275000", "170711.065000", "170711.852500", "170712.640000", "170713.427500", "170714.217500", "170715.005000"],
      "ContentTime": ["184748.953000", "184748.953000", "184748.953000", "184748.953000", "184748.968000", "184748.968000", "184748.968000", "184748.968000", "184748.968000", "184748.968000", "184748.968000", "184748.984000", "184748.984000", "184748.984000", "184748.984000", "184748.984000", "184748.984000", "184748.984000", "184749.000000", "184749.000000", "184848.953000", "184848.953000", "184848.953000", "184848.953000", "184848.953000", "184848.968000", "184848.968000", "184848.968000", "184848.968000", "184848.968000", "184848.968000", "184848.968000", "184848.984000", "184848.984000", "184848.984000", "184848.984000", "184848.984000", "184848.984000", "184848.984000", "184849.000000", "184849.000000", "184849.000000", "184849.000000", "184849.000000", "184849.000000", "184849.000000", "184849.015000", "184849.015000", "184948.953000", "184948.953000", "184948.953000", "184948.953000", "184948.953000", "184948.968000", "184948.968000", "184948.968000", "184948.968000", "184948.984000", "184948.984000", "184948.984000", "184948.984000", "184948.984000", "184948.984000", "184948.984000", "184949.000000", "184949.000000", "184949.000000", "184949.000000", "184949.000000", "184949.000000", "184949.000000", "184949.015000", "184949.015000", "184949.015000", "184949.015000", "184949.015000", "185048.953000", "185048.953000", "185048.953000", "185048.953000", "185048.953000", "185048.968000", "185048.968000", "185048.968000", "185048.968000", "185048.968000", "185048.968000", "185048.968000", "185048.984000", "185048.984000", "185048.984000", "185048.984000", "185048.984000", "185048.984000", "185048.984000", "185049.000000", "185049.000000", "185049.000000", "185049.000000", "185049.000000", "185049.000000", "185049.000000", "185049.015000", "185049.015000", "185049.015000", "185148.953000", "185148.953000", "185148.953000", "185148.953000", "185148.953000", "185148.968000", "185148.968000", "185148.968000", "185148.968000", "185148.968000", "185148.968000", "185148.968000", "185148.984000", "185148.984000", "185148.984000", "185148.984000", "185148.984000", "185148.984000", "185148.984000", "185149.000000", "185149.000000", "185149.000000", "185149.000000", "185149.000000", "185149.000000", "185149.000000", "185149.015000", "185149.015000", "185248.953000", "185248.953000", "185248.953000", "185248.953000", "185248.953000", "185248.968000", "185248.968000", "185248.968000", "185248.968000", "185248.968000", "185248.968000", "185248.968000", "185248.984000", "185248.984000", "185248.984000", "185248.984000", "185248.984000", "185248.984000", "185249.000000", "185249.000000", "185249.000000", "185249.000000", "185249.000000", "185249.000000", "185249.000000", "185249.015000", "185249.015000", "185249.015000", "185348.953000", "185348.953000", "185348.953000", "185348.953000", "185348.968000", "185348.968000", "185348.968000", "185348.968000", "185348.968000", "185348.968000", "185348.968000", "185348.984000", "185348.984000", "185348.984000", "185348.984000", "185348.984000", "185348.984000", "185348.984000", "185349.000000", "185349.000000", "185349.000000", "185349.000000", "185349.000000", "185349.000000", "185349.000000", "185349.015000", "185349.015000", "185349.015000", "185349.015000", "185448.953000", "185448.953000", "185448.953000", "185448.953000", "185448.968000", "185448.968000", "185448.968000", "185448.968000", "185448.968000", "185448.968000", "185448.968000", "185448.984000", "185448.984000", "185448.984000", "185448.984000", "185448.984000", "185448.984000", "185448.984000", "185449.000000", "185449.000000", "185449.000000", "185449.000000", "185449.000000", "185449.000000", "185449.000000", "185449.015000", "185449.015000", "185449.015000", "185548.953000", "185548.953000", "185548.953000", "185548.953000", "185548.953000", "185548.968000", "185548.968000", "185548.968000", "185548.968000", "185548.968000", "185548.968000", "185548.968000", "185548.984000", "185548.984000", "185548.984000", "185548.984000", "185548.984000", "185548.984000", "185548.984000", "185549.000000", "185549.000000", "185549.000000", "185549.000000", "185549.000000", "185549.000000", "185549.000000", "185549.015000", "185549.015000", "185648.953000", "185648.953000", "185648.953000", "185648.953000", "185648.953000", "185648.968000", "185648.968000", "185648.968000", "185648.968000", "185648.968000", "185648.968000", "185648.968000", "185648.984000", "185648.984000", "185648.984000", "185648.984000", "185648.984000", "185648.984000", "185648.984000", "185649.000000", "185649.000000", "185649.000000", "185649.000000", "185649.000000", "185649.000000", "185649.000000", "185649.015000", "185649.015000", "185649.015000", "185748.953000", "185748.953000", "185748.953000", "185748.953000", "185748.968000", "185748.968000", "185748.968000", "185748.968000", "185748.968000", "185748.968000", "185748.968000", "185748.984000", "185748.984000", "185748.984000", "185748.984000", "185748.984000", "185748.984000", "185748.984000", "185749.000000", "185749.000000", "185749.000000", "185749.000000", "185749.000000", "185749.000000", "185749.000000", "185749.015000", "185749.015000", "185749.015000", "185848.953000", "185848.953000", "185848.953000", "185848.953000", "185848.953000", "185848.968000", "185848.968000", "185848.968000", "185848.968000", "185848.968000", "185848.968000", "185848.984000", "185848.984000", "185848.984000", "185848.984000", "185848.984000", "185848.984000", "185848.984000", "185848.984000", "185849.000000", "185849.000000", "185849.000000", "185849.000000", "185849.000000", "185849.000000", "185849.000000", "185849.015000", "185849.015000", "185948.953000", "185948.953000", "185948.953000", "185948.953000", "185948.968000", "185948.968000", "185948.968000", "185948.968000", "185948.968000", "185948.968000", "185948.968000", "185948.984000", "185948.984000", "185948.984000", "185948.984000", "185948.984000", "185948.984000", "185948.984000", "185948.984000", "185949.000000", "185949.000000", "185949.000000", "185949.000000", "185949.000000", "185949.000000", "185949.015000", "185949.015000", "185949.015000", "185949.015000", "190048.953000", "190048.953000", "190048.953000", "190048.953000", "190048.953000", "190048.968000", "190048.968000", "190048.968000", "190048.968000", "190048.968000", "190048.968000", "190048.968000", "190048.984000", "190048.984000", "190048.984000", "190048.984000", "190048.984000", "190048.984000", "190048.984000", "190049.000000", "190049.000000", "190049.000000", "190049.000000", "190049.000000", "190049.000000", "190049.000000", "190049.015000", "190049.015000", "190148.953000", "190148.953000", "190148.953000", "190148.953000", "190148.953000", "190148.968000", "190148.968000", "190148.968000", "190148.968000", "190148.968000", "190148.968000", "190148.968000", "190148.984000", "190148.984000", "190148.984000", "190148.984000", "190148.984000", "190148.984000", "190149.000000", "190149.000000", "190149.000000", "190149.000000", "190149.000000", "190149.000000", "190149.000000", "190149.015000", "190149.015000", "190149.015000", "190248.953000", "190248.953000", "190248.953000", "190248.953000", "190248.968000", "190248.968000", "190248.968000", "190248.968000", "190248.968000", "190248.968000", "190248.968000", "190248.968000", "190248.984000", "190248.984000", "190248.984000", "190248.984000", "190248.984000", "190248.984000", "190248.984000", "190249.000000", "190249.000000", "190249.000000", "190249.000000", "190249.000000", "190249.000000", "190249.000000", "190249.015000", "190249.015000", "190348.953000", "190348.953000", "190348.953000", "190348.953000", "190348.953000", "190348.968000", "190348.968000", "190348.968000", "190348.968000", "190348.968000", "190348.968000", "190348.968000", "190348.984000", "190348.984000", "190348.984000", "190348.984000", "190348.984000", "190348.984000", "190348.984000", "190349.000000", "190349.000000", "190349.000000", "190349.000000", "190349.000000", "190349.000000", "190349.000000", "190349.015000", "190349.015000", "190349.015000", "190448.953000", "190448.953000", "190448.953000", "190448.953000", "190448.968000", "190448.968000", "190448.968000", "190448.968000", "190448.968000", "190448.968000", "190448.968000", "190448.984000", "190448.984000", "190448.984000", "190448.984000", "190448.984000", "190448.984000", "190448.984000", "190449.000000", "190449.000000", "190449.000000", "190449.000000", "190449.000000", "190449.000000", "190449.000000", "190449.015000", "190449.015000", "190449.015000", "190548.953000", "190548.953000", "190548.953000", "190548.953000", "190548.968000", "190548.968000", "190548.968000", "190548.968000", "190548.968000", "190548.968000", "190548.968000", "190548.968000", "190548.984000", "190548.984000", "190548.984000", "190548.984000", "190548.984000", "190548.984000", "190548.984000", "190549.000000", "190549.000000", "190549.000000", "190549.000000", "190549.000000", "190549.000000", "190549.000000", "190549.015000", "190549.015000", "190648.953000", "190648.953000", "190648.953000", "190648.953000", "190648.968000", "190648.968000", "190648.968000", "190648.968000", "190648.968000", "190648.968000", "190648.968000", "190648.984000", "190648.984000", "190648.984000", "190648.984000", "190648.984000", "190648.984000", "190648.984000", "190649.000000", "190649.000000", "190649.000000", "190649.000000", "190649.000000", "190649.000000", "190649.000000", "190649.000000", "190649.015000", "190649.015000", "190737.468000", "190737.468000", "190737.468000", "190737.468000", "190737.468000", "190737.468000", "190737.484000", "190737.484000", "190737.484000", "190737.484000", "190737.484000", "190737.484000", "190737.500000", "190737.500000", "190737.500000", "190737.500000", "190737.500000", "190737.500000", "190737.500000", "190737.515000", "190737.515000", "190737.515000", "190737.515000", "190737.515000"],
      "DataSetTrailingPadding": [
