{
  "AcquisitionMatrixPE": 104,
  "AcquisitionNumber": 1,
  "AcquisitionTime": "16:19:13.710000",
  "BandwidthPerPixelPhaseEncode": 13.935,
  "BaseResolution": 104,
  "CoilString": "C:HEA;HEP",
  "ConversionSoftware": "dcm2niix",
  "ConversionSoftwareVersion": "v1.0.20210317",
  "DerivedVendorReportedEchoSpacing": 0.000690017,
  "DeviceSerialNumber": "35450",
  "DwellTime": 2.5e-06,
  "EchoTime": 0.0348,
  "EffectiveEchoSpacing": 0.000690017,
  "FlipAngle": 55,
  "ImageComments": "Unaliased MB8/PE3",
  "ImageOrientationPatientDICOM": [0.999926, -0.000617337, 0.0121857, -1.09673e-08, 0.998719, 0.0505967],
  "ImageType": [
    "ORIGINAL",
    "PRIMARY",
    "M",
    "MB",
    "ND",
    "MOSAIC"
],
  "ImagingFrequency": 123.234,
  "InPlanePhaseEncodingDirectionDICOM": "COL",
  "InstitutionAddress": "Univeristy Ave. 197,Newark,North East,US,07102-1814",
  "InstitutionName": "RUBIC",
  "InstitutionalDepartmentName": "Department",
  "MRAcquisitionType": "2D",
  "MagneticFieldStrength": 3,
  "Manufacturer": "Siemens",
  "ManufacturersModelName": "TrioTim",
  "Modality": "MR",
  "MultibandAccelerationFactor": 8,
  "PartialFourier": 0.875,
  "PatientPosition": "HFS",
  "PercentPhaseFOV": 100,
  "PercentSampling": 100,
  "PhaseEncodingDirection": "j-",
  "PhaseEncodingSteps": 91,
  "PhaseResolution": 1,
  "PixelBandwidth": 1923,
  "ProcedureStepDescription": "Cole^Michael",
  "ProtocolName": "cmrr_mbep2d_bold_2mm_MB8_Task_8x",
  "PulseSequenceDetails": "%CustomerSeq%\\cmrr_mbep2d_bold",
  "ReceiveCoilName": "32Ch_Head",
  "ReconMatrixPE": 104,
  "RepetitionTime": 0.785,
  "SAR": 0.109477,
  "ScanOptions": "PFP\\FS",
  "ScanningSequence": "EP",
  "SequenceName": "epfid2d1_104",
  "SequenceVariant": "SK\\SS",
  "SeriesDescription": "cmrr_mbep2d_bold_2mm_MB8_Task_8x",
  "SeriesNumber": 15,
  "ShimSetting": [2119, -428, -7201, 393, 63, -426, 213, 59],
  "SliceThickness": 2,
  "SliceTiming": [0, 0.4375, 0.0875, 0.525, 0.175, 0.6125, 0.2625, 0.7, 0.35, 0, 0.4375, 0.0875, 0.525, 0.175, 0.6125, 0.2625, 0.7, 0.35, 0, 0.4375, 0.0875, 0.525, 0.175, 0.6125, 0.2625, 0.7, 0.35, 0, 0.4375, 0.0875, 0.525, 0.175, 0.6125, 0.2625, 0.7, 0.35, 0, 0.4375, 0.0875, 0.525, 0.175, 0.6125, 0.2625, 0.7, 0.35, 0, 0.4375, 0.0875, 0.525, 0.175, 0.6125, 0.2625, 0.7, 0.35, 0, 0.4375, 0.0875, 0.525, 0.175, 0.6125, 0.2625, 0.7, 0.35, 0, 0.4375, 0.0875, 0.525, 0.175, 0.6125, 0.2625, 0.7, 0.35],
  "SoftwareVersions": "syngo MR B19",
  "SpacingBetweenSlices": 2,
  "StationName": "MRC35450",
  "TaskName": "cpro",
  "TotalReadoutTime": 0.0710717,
  "TxRefAmp": 319.19,
  "dcmmeta_affine": [
    [-1.999851107597351, -2.1934688732017094e-08, 0.02440270595252514, 103.79772186279297],
    [0.0012346745934337378, 1.9974383115768433, 0.1011858731508255, -80.38279724121094],
    [0.024371452629566193, -0.10119340568780899, 1.9972896575927734, -84.81161499023438],
    [0.0, 0.0, 0.0, 1.0]
],
  "dcmmeta_reorient_transform": [
    [0.0, -1.0, 0.0, 103.0],
    [1.0, 0.0, 0.0, 0.0],
    [0.0, 0.0, 1.0, 0.0],
    [0.0, 0.0, 0.0, 1.0]
],
  "dcmmeta_shape": [104, 104, 72, 581],
  "dcmmeta_slice_dim": 2,
  "dcmmeta_version": 0.6,
  "global": {
    "const": {
      "AcquisitionMatrix": [104, 0, 0, 104],
      "AngioFlag": "N",
      "BitsAllocated": 16,
      "BitsStored": 12,
      "Columns": 936,
      "EchoNumbers": 1,
      "EchoTime": 34.8,
      "EchoTrainLength": 1,
      "FlipAngle": 55.0,
      "HighBit": 11,
      "ImageOrientationPatient": [0.99992556071807, -0.000617337314, 0.01218572596472, -1.0967344e-08, 0.9987191664861, 0.05059670437212],
      "ImagePositionPatient": [-935.73577697177, -955.77407046691, -147.46951684362],
      "ImageType": [
        "ORIGINAL",
        "PRIMARY",
        "M",
        "MB",
        "ND",
        "MOSAIC"
],
      "ImagedNucleus": "1H",
      "ImagingFrequency": 123.234452,
      "InPlanePhaseEncodingDirection": "COL",
      "MRAcquisitionType": "2D",
      "MagneticFieldStrength": 3.0,
      "Manufacturer": "SIEMENS",
      "ManufacturerModelName": "TrioTim",
      "Modality": "MR",
      "NumberOfAverages": 1.0,
      "NumberOfPhaseEncodingSteps": 91,
      "PercentPhaseFieldOfView": 100.0,
      "PercentSampling": 100.0,
      "PerformedProcedureStepStartTime": "150203.328000",
      "PhotometricInterpretation": "MONOCHROME2",
      "PixelBandwidth": 1923.0,
      "PixelRepresentation": 0,
      "PixelSpacing": [2.0, 2.0],
      "ProtocolName": "cmrr_mbep2d_bold_2mm_MB8_Task_8x",
      "RepetitionTime": 785.0,
      "Rows": 936,
      "SAR": 0.10947691270066,
      "SamplesPerPixel": 1,
      "ScanOptions": [
        "PFP",
        "FS"
],
      "ScanningSequence": "EP",
      "SequenceName": "epfid2d1_104",
      "SequenceVariant": [
        "SK",
        "SS"
],
      "SeriesDescription": "cmrr_mbep2d_bold_2mm_MB8_Task_8x",
      "SeriesNumber": 15,
      "SeriesTime": "170224.281000",
      "SliceLocation": -87.497008249915,
      "SliceThickness": 2.0,
      "SmallestImagePixelValue": 0,
      "SoftwareVersions": "syngo MR B19",
      "SpacingBetweenSlices": 1.9999999865383,
      "SpecificCharacterSet": "ISO_IR 100",
      "StudyID": "1",
      "StudyTime": "150203.312000",
      "TransmitCoilName": "Body",
      "VariableFlipAngleFlag": "N",
      "WindowCenterWidthExplanation": "Algo1",
      "dBdt": 0.0},
    "slices": {}
  },
  "time": {
    "samples": {
      "AcquisitionNumber": [1, 2, 3, 4, 5, 6, 7, 8, 9, 10, 11, 12, 13, 14, 15, 16, 17, 18, 19, 20, 21, 22, 23, 24, 25, 26, 27, 28, 29, 30, 31, 32, 33, 34, 35, 36, 37, 38, 39, 40, 41, 42, 43, 44, 45, 46, 47, 48, 49, 50, 51, 52, 53, 54, 55, 56, 57, 58, 59, 60, 61, 62, 63, 64, 65, 66, 67, 68, 69, 70, 71, 72, 73, 74, 75, 76, 77, 78, 79, 80, 81, 82, 83, 84, 85, 86, 87, 88, 89, 90, 91, 92, 93, 94, 95, 96, 97, 98, 99, 100, 101, 102, 103, 104, 105, 106, 107, 108, 109, 110, 111, 112, 113, 114, 115, 116, 117, 118, 119, 120, 121, 122, 123, 124, 125, 126, 127, 128, 129, 130, 131, 132, 133, 134, 135, 136, 137, 138, 139, 140, 141, 142, 143, 144, 145, 146, 147, 148, 149, 150, 151, 152, 153, 154, 155, 156, 157, 158, 159, 160, 161, 162, 163, 164, 165, 166, 167, 168, 169, 170, 171, 172, 173, 174, 175, 176, 177, 178, 179, 180, 181, 182, 183, 184, 185, 186, 187, 188, 189, 190, 191, 192, 193, 194, 195, 196, 197, 198, 199, 200, 201, 202, 203, 204, 205, 206, 207, 208, 209, 210, 211, 212, 213, 214, 215, 216, 217, 218, 219, 220, 221, 222, 223, 224, 225, 226, 227, 228, 229, 230, 231, 232, 233, 234, 235, 236, 237, 238, 239, 240, 241, 242, 243, 244, 245, 246, 247, 248, 249, 250, 251, 252, 253, 254, 255, 256, 257, 258, 259, 260, 261, 262, 263, 264, 265, 266, 267, 268, 269, 270, 271, 272, 273, 274, 275, 276, 277, 278, 279, 280, 281, 282, 283, 284, 285, 286, 287, 288, 289, 290, 291, 292, 293, 294, 295, 296, 297, 298, 299, 300, 301, 302, 303, 304, 305, 306, 307, 308, 309, 310, 311, 312, 313, 314, 315, 316, 317, 318, 319, 320, 321, 322, 323, 324, 325, 326, 327, 328, 329, 330, 331, 332, 333, 334, 335, 336, 337, 338, 339, 340, 341, 342, 343, 344, 345, 346, 347, 348, 349, 350, 351, 352, 353, 354, 355, 356, 357, 358, 359, 360, 361, 362, 363, 364, 365, 366, 367, 368, 369, 370, 371, 372, 373, 374, 375, 376, 377, 378, 379, 380, 381, 382, 383, 384, 385, 386, 387, 388, 389, 390, 391, 392, 393, 394, 395, 396, 397, 398, 399, 400, 401, 402, 403, 404, 405, 406, 407, 408, 409, 410, 411, 412, 413, 414, 415, 416, 417, 418, 419, 420, 421, 422, 423, 424, 425, 426, 427, 428, 429, 430, 431, 432, 433, 434, 435, 436, 437, 438, 439, 440, 441, 442, 443, 444, 445, 446, 447, 448, 449, 450, 451, 452, 453, 454, 455, 456, 457, 458, 459, 460, 461, 462, 463, 464, 465, 466, 467, 468, 469, 470, 471, 472, 473, 474, 475, 476, 477, 478, 479, 480, 481, 482, 483, 484, 485, 486, 487, 488, 489, 490, 491, 492, 493, 494, 495, 496, 497, 498, 499, 500, 501, 502, 503, 504, 505, 506, 507, 508, 509, 510, 511, 512, 513, 514, 515, 516, 517, 518, 519, 520, 521, 522, 523, 524, 525, 526, 527, 528, 529, 530, 531, 532, 533, 534, 535, 536, 537, 538, 539, 540, 541, 542, 543, 544, 545, 546, 547, 548, 549, 550, 551, 552, 553, 554, 555, 556, 557, 558, 559, 560, 561, 562, 563, 564, 565, 566, 567, 568, 569, 570, 571, 572, 573, 574, 575, 576, 577, 578, 579, 580, 581],
      "AcquisitionTime": ["161913.710000", "161914.497500", "161915.285000", "161916.072500", "161916.862500", "161917.650000", "161918.437500", "161919.225000", "161920.015000", "161920.802500", "161921.590000", "161922.377500", "161923.167500", "161923.955000", "161924.742500", "161925.530000", "161926.320000", "161927.107500", "161927.895000", "161928.682500", "161929.472500", "161930.260000", "161931.047500", "161931.837500", "161932.625000", "161933.412500", "161934.200000", "161934.990000", "161935.777500", "161936.565000", "161937.352500", "161938.142500", "161938.930000", "161939.717500", "161940.505000", "161941.295000", "161942.082500", "161942.870000", "161943.657500", "161944.447500", "161945.235000", "161946.022500", "161946.810000", "161947.600000", "161948.387500", "161949.175000", "161949.965000", "161950.752500", "161951.540000", "161952.327500", "161953.117500", "161953.905000", "161954.692500", "161955.480000", "161956.270000", "161957.057500", "161957.845000", "161958.632500", "161959.422500", "162000.210000", "162000.997500", "162001.785000", "162002.575000", "162003.362500", "162004.150000", "162004.937500", "162005.727500", "162006.515000", "162007.302500", "162008.092500", "162008.880000", "162009.667500", "162010.455000", "162011.245000", "162012.032500", "162012.820000", "162013.607500", "162014.397500", "162015.185000", "162015.972500", "162016.760000", "162017.550000", "162018.337500", "162019.125000", "162019.912500", "162020.702500", "162021.490000", "162022.277500", "162023.065000", "162023.855000", "162024.642500", "162025.430000", "162026.220000", "162027.007500", "162027.795000", "162028.582500", "162029.372500", "162030.160000", "162030.947500", "162031.735000", "162032.525000", "162033.312500", "162034.100000", "162034.887500", "162035.677500", "162036.465000", "162037.252500", "162038.040000", "162038.830000", "162039.617500", "162040.405000", "162041.192500", "162041.982500", "162042.770000", "162043.557500", "162044.347500", "162045.135000", "162045.922500", "162046.710000", "162047.500000", "162048.287500", "162049.075000", "162049.862500", "162050.652500", "162051.440000", "162052.227500", "162053.015000", "162053.805000", "162054.592500", "162055.380000", "162056.167500", "162056.957500", "162057.745000", "162058.532500", "162059.320000", "162100.110000", "162100.897500", "162101.685000", "162102.475000", "162103.262500", "162104.050000", "162104.837500", "162105.627500", "162106.415000", "162107.202500", "162107.990000", "162108.780000", "162109.567500", "162110.355000", "162111.142500", "162111.932500", "162112.720000", "162113.507500", "162114.295000", "162115.085000", "162115.872500", "162116.660000", "162117.450000", "162118.237500", "162119.025000", "162119.812500", "162120.602500", "162121.390000", "162122.177500", "162122.965000", "162123.755000", "162124.542500", "162125.330000", "162126.117500", "162126.907500", "162127.695000", "162128.482500", "162129.270000", "162130.060000", "162130.847500", "162131.635000", "162132.422500", "162133.212500", "162134.000000", "162134.787500", "162135.577500", "162136.365000", "162137.152500", "162137.940000", "162138.730000", "162139.517500", "162140.305000", "162141.092500", "162141.882500", "162142.670000", "162143.457500", "162144.245000", "162145.035000", "162145.822500", "162146.610000", "162147.397500", "162148.187500", "162148.975000", "162149.762500", "162150.550000", "162151.340000", "162152.127500", "162152.915000", "162153.705000", "162154.492500", "162155.280000", "162156.067500", "162156.857500", "162157.645000", "162158.432500", "162159.220000", "162200.010000", "162200.797500", "162201.585000", "162202.372500", "162203.162500", "162203.950000", "162204.737500", "162205.525000", "162206.315000", "162207.102500", "162207.890000", "162208.677500", "162209.467500", "162210.255000", "162211.042500", "162211.832500", "162212.620000", "162213.407500", "162214.195000", "162214.985000", "162215.772500", "162216.560000", "162217.347500", "162218.137500", "162218.925000", "162219.712500", "162220.500000", "162221.290000", "162222.077500", "162222.865000", "162223.652500", "162224.442500", "162225.230000", "162226.017500", "162226.805000", "162227.595000", "162228.382500", "162229.170000", "162229.960000", "162230.747500", "162231.535000", "162232.322500", "162233.112500", "162233.900000", "162234.687500", "162235.475000", "162236.265000", "162237.052500", "162237.840000", "162238.627500", "162239.417500", "162240.205000", "162240.992500", "162241.780000", "162242.570000", "162243.357500", "162244.145000", "162244.932500", "162245.722500", "162246.510000", "162247.297500", "162248.087500", "162248.875000", "162249.662500", "162250.450000", "162251.240000", "162252.027500", "162252.815000", "162253.602500", "162254.392500", "162255.180000", "162255.967500", "162256.755000", "162257.545000", "162258.332500", "162259.120000", "162259.907500", "162300.697500", "162301.485000", "162302.272500", "162303.060000", "162303.850000", "162304.637500", "162305.425000", "162306.215000", "162307.002500", "162307.790000", "162308.577500", "162309.367500", "162310.155000", "162310.942500", "162311.730000", "162312.520000", "162313.307500", "162314.095000", "162314.882500", "162315.672500", "162316.460000", "162317.247500", "162318.035000", "162318.825000", "162319.612500", "162320.400000", "162321.187500", "162321.977500", "162322.765000", "162323.552500", "162324.342500", "162325.130000", "162325.917500", "162326.705000", "162327.495000", "162328.282500", "162329.070000", "162329.857500", "162330.647500", "162331.435000", "162332.222500", "162333.010000", "162333.800000", "162334.587500", "162335.375000", "162336.162500", "162336.952500", "162337.740000", "162338.527500", "162339.315000", "162340.105000", "162340.892500", "162341.680000", "162342.470000", "162343.257500", "162344.045000", "162344.832500", "162345.622500", "162346.410000", "162347.197500", "162347.985000", "162348.775000", "162349.562500", "162350.350000", "162351.137500", "162351.927500", "162352.715000", "162353.502500", "162354.290000", "162355.080000", "162355.867500", "162356.655000", "162357.442500", "162358.232500", "162359.020000", "162359.807500", "162400.597500", "162401.385000", "162402.172500", "162402.960000", "162403.750000", "162404.537500", "162405.325000", "162406.112500", "162406.902500", "162407.690000", "162408.477500", "162409.265000", "162410.055000", "162410.842500", "162411.630000", "162412.417500", "162413.207500", "162413.995000", "162414.782500", "162415.570000", "162416.360000", "162417.147500", "162417.935000", "162418.725000", "162419.512500", "162420.300000", "162421.087500", "162421.877500", "162422.665000", "162423.452500", "162424.240000", "162425.030000", "162425.817500", "162426.605000", "162427.392500", "162428.182500", "162428.970000", "162429.757500", "162430.545000", "162431.335000", "162432.122500", "162432.910000", "162433.700000", "162434.487500", "162435.275000", "162436.062500", "162436.852500", "162437.640000", "162438.427500", "162439.215000", "162440.005000", "162440.792500", "162441.580000", "162442.367500", "162443.157500", "162443.945000", "162444.732500", "162445.520000", "162446.310000", "162447.097500", "162447.885000", "162448.672500", "162449.462500", "162450.250000", "162451.037500", "162451.827500", "162452.615000", "162453.402500", "162454.190000", "162454.980000", "162455.767500", "162456.555000", "162457.342500", "162458.132500", "162458.920000", "162459.707500", "162500.495000", "162501.285000", "162502.072500", "162502.860000", "162503.647500", "162504.437500", "162505.225000", "162506.012500", "162506.800000", "162507.590000", "162508.377500", "162509.165000", "162509.955000", "162510.742500", "162511.530000", "162512.317500", "162513.107500", "162513.895000", "162514.682500", "162515.470000", "162516.260000", "162517.047500", "162517.835000", "162518.622500", "162519.412500", "162520.200000", "162520.987500", "162521.775000", "162522.565000", "162523.352500", "162524.140000", "162524.927500", "162525.717500", "162526.505000", "162527.292500", "162528.082500", "162528.870000", "162529.657500", "162530.445000", "162531.235000", "162532.022500", "162532.810000", "162533.597500", "162534.387500", "162535.175000", "162535.962500", "162536.750000", "162537.540000", "162538.327500", "162539.115000", "162539.902500", "162540.692500", "162541.480000", "162542.267500", "162543.055000", "162543.845000", "162544.632500", "162545.420000", "162546.210000", "162546.997500", "162547.785000", "162548.572500", "162549.362500", "162550.150000", "162550.937500", "162551.725000", "162552.515000", "162553.302500", "162554.090000", "162554.877500", "162555.667500", "162556.455000", "162557.242500", "162558.030000", "162558.820000", "162559.607500", "162600.395000", "162601.182500", "162601.972500", "162602.760000", "162603.547500", "162604.337500", "162605.125000", "162605.912500", "162606.700000", "162607.490000", "162608.277500", "162609.065000", "162609.852500", "162610.642500", "162611.430000", "162612.217500", "162613.005000", "162613.795000", "162614.582500", "162615.370000", "162616.157500", "162616.947500", "162617.735000", "162618.522500", "162619.310000", "162620.100000", "162620.887500", "162621.675000", "162622.465000", "162623.252500", "162624.040000", "162624.827500", "162625.617500", "162626.405000", "162627.192500", "162627.980000", "162628.770000", "162629.557500", "162630.345000", "162631.132500", "162631.922500", "162632.710000", "162633.497500", "162634.285000", "162635.075000", "162635.862500", "162636.650000", "162637.437500", "162638.227500", "162639.015000", "162639.802500", "162640.592500", "162641.380000", "162642.167500", "162642.955000", "162643.745000", "162644.532500", "162645.320000", "162646.107500", "162646.897500", "162647.685000", "162648.472500", "162649.260000", "162650.050000", "162650.837500"],
      "ContentTime": ["170224.281000", "170224.281000", "170224.281000", "170324.265000", "170324.265000", "170324.265000", "170324.265000", "170324.265000", "170324.281000", "170324.281000", "170324.281000", "170324.281000", "170324.281000", "170324.281000", "170324.281000", "170324.296000", "170324.296000", "170324.296000", "170324.296000", "170324.296000", "170324.296000", "170324.296000", "170324.312000", "170324.312000", "170324.312000", "170324.312000", "170324.312000", "170324.312000", "170324.312000", "170324.312000", "170424.265000", "170424.265000", "170424.265000", "170424.265000", "170424.265000", "170424.281000", "170424.281000", "170424.281000", "170424.281000", "170424.281000", "170424.281000", "170424.281000", "170424.296000", "170424.296000", "170424.296000", "170424.296000", "170424.296000", "170424.296000", "170424.296000", "170424.312000", "170424.312000", "170424.312000", "170424.312000", "170424.312000", "170424.312000", "170424.312000", "170424.328000", "170424.328000", "170524.265000", "170524.265000", "170524.265000", "170524.265000", "170524.265000", "170524.281000", "170524.281000", "170524.281000", "170524.281000", "170524.281000", "170524.281000", "170524.281000", "170524.296000", "170524.296000", "170524.296000", "170524.296000", "170524.296000", "170524.296000", "170524.296000", "170524.296000", "170524.312000", "170524.312000", "170524.312000", "170524.312000", "170524.312000", "170524.312000", "170524.312000", "170624.265000", "170624.265000", "170624.265000", "170624.265000", "170624.265000", "170624.281000", "170624.281000", "170624.281000", "170624.281000", "170624.281000", "170624.281000", "170624.281000", "170624.296000", "170624.296000", "170624.296000", "170624.296000", "170624.296000", "170624.296000", "170624.296000", "170624.312000", "170624.312000", "170624.312000", "170624.312000", "170624.312000", "170624.312000", "170624.312000", "170624.328000", "170624.328000", "170724.265000", "170724.265000", "170724.265000", "170724.265000", "170724.265000", "170724.281000", "170724.281000", "170724.281000", "170724.281000", "170724.281000", "170724.281000", "170724.281000", "170724.296000", "170724.296000", "170724.296000", "170724.296000", "170724.296000", "170724.296000", "170724.296000", "170724.312000", "170724.312000", "170724.312000", "170724.312000", "170724.312000", "170724.312000", "170724.312000", "170724.328000", "170824.265000", "170824.265000", "170824.265000", "170824.265000", "170824.265000", "170824.281000", "170824.281000", "170824.281000", "170824.281000", "170824.281000", "170824.281000", "170824.281000", "170824.281000", "170824.296000", "170824.296000", "170824.296000", "170824.296000", "170824.296000", "170824.296000", "170824.296000", "170824.312000", "170824.312000", "170824.312000", "170824.312000", "170824.312000", "170824.312000", "170824.312000", "170824.328000", "170924.265000", "170924.265000", "170924.265000", "170924.265000", "170924.265000", "170924.281000", "170924.281000", "170924.281000", "170924.281000", "170924.281000", "170924.281000", "170924.281000", "170924.296000", "170924.296000", "170924.296000", "170924.296000", "170924.296000", "170924.296000", "170924.296000", "170924.312000", "170924.312000", "170924.312000", "170924.312000", "170924.312000", "170924.312000", "170924.312000", "170924.328000", "171024.265000", "171024.265000", "171024.265000", "171024.265000", "171024.265000", "171024.281000", "171024.281000", "171024.281000", "171024.281000", "171024.281000", "171024.281000", "171024.281000", "171024.296000", "171024.296000", "171024.296000", "171024.296000", "171024.296000", "171024.296000", "171024.296000", "171024.312000", "171024.312000", "171024.312000", "171024.312000", "171024.312000", "171024.312000", "171024.312000", "171024.328000", "171124.265000", "171124.265000", "171124.265000", "171124.265000", "171124.265000", "171124.281000", "171124.281000", "171124.281000", "171124.281000", "171124.281000", "171124.281000", "171124.281000", "171124.296000", "171124.296000", "171124.296000", "171124.296000", "171124.296000", "171124.296000", "171124.296000", "171124.312000", "171124.312000", "171124.312000", "171124.312000", "171124.312000", "171124.312000", "171124.312000", "171124.312000", "171124.328000", "171224.265000", "171224.265000", "171224.265000", "171224.265000", "171224.265000", "171224.281000", "171224.281000", "171224.281000", "171224.281000", "171224.281000", "171224.281000", "171224.281000", "171224.281000", "171224.296000", "171224.296000", "171224.296000", "171224.296000", "171224.296000", "171224.296000", "171224.296000", "171224.312000", "171224.312000", "171224.312000", "171224.312000", "171224.312000", "171224.312000", "171224.312000", "171324.265000", "171324.265000", "171324.265000", "171324.265000", "171324.265000", "171324.281000", "171324.281000", "171324.281000", "171324.281000", "171324.281000", "171324.281000", "171324.281000", "171324.281000", "171324.296000", "171324.296000", "171324.296000", "171324.296000", "171324.296000", "171324.296000", "171324.296000", "171324.312000", "171324.312000", "171324.312000", "171324.312000", "171324.312000", "171324.312000", "171324.312000", "171324.328000", "171424.265000", "171424.265000", "171424.265000", "171424.265000", "171424.265000", "171424.281000", "171424.281000", "171424.281000", "171424.281000", "171424.281000", "171424.281000", "171424.281000", "171424.296000", "171424.296000", "171424.296000", "171424.296000", "171424.296000", "171424.296000", "171424.296000", "171424.296000", "171424.312000", "171424.312000", "171424.312000", "171424.312000", "171424.312000", "171424.312000", "171424.312000", "171524.265000", "171524.265000", "171524.265000", "171524.265000", "171524.265000", "171524.281000", "171524.281000", "171524.281000", "171524.281000", "171524.281000", "171524.281000", "171524.281000", "171524.296000", "171524.296000", "171524.296000", "171524.296000", "171524.296000", "171524.296000", "171524.296000", "171524.296000", "171524.312000", "171524.312000", "171524.312000", "171524.312000", "171524.312000", "171524.312000", "171524.328000", "171524.328000", "171624.265000", "171624.265000", "171624.265000", "171624.265000", "171624.265000", "171624.281000", "171624.281000", "171624.281000", "171624.281000", "171624.281000", "171624.281000", "171624.281000", "171624.281000", "171624.296000", "171624.296000", "171624.296000", "171624.296000", "171624.296000", "171624.296000", "171624.296000", "171624.312000", "171624.312000", "171624.312000", "171624.312000", "171624.312000", "171624.312000", "171624.312000", "171624.328000", "171724.265000", "171724.265000", "171724.265000", "171724.265000", "171724.265000", "171724.281000", "171724.281000", "171724.281000", "171724.281000", "171724.281000", "171724.281000", "171724.281000", "171724.296000", "171724.296000", "171724.296000", "171724.296000", "171724.296000", "171724.296000", "171724.296000", "171724.312000", "171724.312000", "171724.312000", "171724.312000", "171724.312000", "171724.312000", "171724.312000", "171724.328000", "171824.265000", "171824.265000", "171824.265000", "171824.265000", "171824.265000", "171824.281000", "171824.281000", "171824.281000", "171824.281000", "171824.281000", "171824.281000", "171824.281000", "171824.296000", "171824.296000", "171824.296000", "171824.296000", "171824.296000", "171824.296000", "171824.296000", "171824.312000", "171824.312000", "171824.312000", "171824.312000", "171824.312000", "171824.312000", "171824.312000", "171824.328000", "171824.328000", "171904.265000", "171904.265000", "171904.265000", "171904.265000", "171904.265000", "171904.281000", "171904.281000", "171904.281000", "171904.281000", "171904.281000", "171904.281000", "171904.281000", "171904.296000", "171904.296000", "171904.296000", "171904.296000", "171904.296000", "171904.296000", "171904.296000", "172004.265000", "172004.265000", "172004.265000", "172004.265000", "172004.265000", "172004.281000", "172004.281000", "172004.281000", "172004.281000", "172004.281000", "172004.281000", "172004.281000", "172004.296000", "172004.296000", "172004.296000", "172004.296000", "172004.296000", "172004.296000", "172004.296000", "172004.296000", "172004.312000", "172004.312000", "172004.312000", "172004.312000", "172004.312000", "172004.312000", "172004.312000", "172104.265000", "172104.265000", "172104.265000", "172104.265000", "172104.281000", "172104.281000", "172104.281000", "172104.281000", "172104.281000", "172104.281000", "172104.281000", "172104.296000", "172104.296000", "172104.296000", "172104.296000", "172104.296000", "172104.296000", "172104.312000", "172104.312000", "172104.312000", "172104.312000", "172104.312000", "172104.328000", "172104.328000", "172104.328000", "172104.328000", "172104.328000", "172104.328000", "172204.265000", "172204.265000", "172204.265000", "172204.265000", "172204.281000", "172204.281000", "172204.281000", "172204.281000", "172204.281000", "172204.281000", "172204.281000", "172204.296000", "172204.296000", "172204.296000", "172204.296000", "172204.296000", "172204.296000", "172204.296000", "172204.312000", "172204.312000", "172204.312000", "172204.312000", "172204.312000", "172204.312000", "172204.312000", "172204.328000", "172204.328000", "172204.328000", "172304.265000", "172304.265000", "172304.265000", "172304.265000", "172304.281000", "172304.281000", "172304.281000", "172304.281000", "172304.281000", "172304.281000", "172304.281000", "172304.281000", "172304.296000", "172304.296000", "172304.296000", "172304.296000", "172304.296000", "172304.296000", "172304.312000", "172304.312000", "172304.312000", "172304.312000", "172304.312000", "172304.312000", "172304.312000", "172304.312000", "172304.328000", "172304.328000", "172320.390000", "172320.390000", "172320.390000", "172320.390000", "172320.390000", "172320.406000", "172320.406000", "172320.406000"],
      "DataSetTrailingPadding": [
