{
  "AcquisitionMatrixPE": 104,
  "AcquisitionNumber": 1,
  "AcquisitionTime": "16:27:15.725000",
  "BandwidthPerPixelPhaseEncode": 13.935,
  "BaseResolution": 104,
  "CoilString": "C:HEA;HEP",
  "ConversionSoftware": "dcm2niix",
  "ConversionSoftwareVersion": "v1.0.20210317",
  "DerivedVendorReportedEchoSpacing": 0.000690017,
  "DeviceSerialNumber": "35450",
  "DwellTime": 2.5e-06,
  "EchoTime": 0.0348,
  "EffectiveEchoSpacing": 0.000690017,
  "FlipAngle": 55,
  "ImageComments": "Unaliased MB8/PE3",
  "ImageOrientationPatientDICOM": [0.999926, -0.000617337, 0.0121857, -1.09673e-08, 0.998719, 0.0505967],
  "ImageType": [
    "ORIGINAL",
    "PRIMARY",
    "M",
    "MB",
    "ND",
    "MOSAIC"
],
  "ImagingFrequency": 123.234,
  "InPlanePhaseEncodingDirectionDICOM": "COL",
  "InstitutionAddress": "Univeristy Ave. 197,Newark,North East,US,07102-1814",
  "InstitutionName": "RUBIC",
  "InstitutionalDepartmentName": "Department",
  "MRAcquisitionType": "2D",
  "MagneticFieldStrength": 3,
  "Manufacturer": "Siemens",
  "ManufacturersModelName": "TrioTim",
  "Modality": "MR",
  "MultibandAccelerationFactor": 8,
  "PartialFourier": 0.875,
  "PatientPosition": "HFS",
  "PercentPhaseFOV": 100,
  "PercentSampling": 100,
  "PhaseEncodingDirection": "j-",
  "PhaseEncodingSteps": 91,
  "PhaseResolution": 1,
  "PixelBandwidth": 1923,
  "ProcedureStepDescription": "Cole^Michael",
  "ProtocolName": "cmrr_mbep2d_bold_2mm_MB8_Task_8x",
  "PulseSequenceDetails": "%CustomerSeq%\\cmrr_mbep2d_bold",
  "ReceiveCoilName": "32Ch_Head",
  "ReconMatrixPE": 104,
  "RepetitionTime": 0.785,
  "SAR": 0.109477,
  "ScanOptions": "PFP\\FS",
  "ScanningSequence": "EP",
  "SequenceName": "epfid2d1_104",
  "SequenceVariant": "SK\\SS",
  "SeriesDescription": "cmrr_mbep2d_bold_2mm_MB8_Task_8x",
  "SeriesNumber": 17,
  "ShimSetting": [2119, -428, -7201, 393, 63, -426, 213, 59],
  "SliceThickness": 2,
  "SliceTiming": [0, 0.4375, 0.0875, 0.525, 0.175, 0.6125, 0.2625, 0.7, 0.35, 0, 0.4375, 0.0875, 0.525, 0.175, 0.6125, 0.2625, 0.7, 0.35, 0, 0.4375, 0.0875, 0.525, 0.175, 0.6125, 0.2625, 0.7, 0.35, 0, 0.4375, 0.0875, 0.525, 0.175, 0.6125, 0.2625, 0.7, 0.35, 0, 0.4375, 0.0875, 0.525, 0.175, 0.6125, 0.2625, 0.7, 0.35, 0, 0.4375, 0.0875, 0.525, 0.175, 0.6125, 0.2625, 0.7, 0.35, 0, 0.4375, 0.0875, 0.525, 0.175, 0.6125, 0.2625, 0.7, 0.35, 0, 0.4375, 0.0875, 0.525, 0.175, 0.6125, 0.2625, 0.7, 0.35],
  "SoftwareVersions": "syngo MR B19",
  "SpacingBetweenSlices": 2,
  "StationName": "MRC35450",
  "TaskName": "cpro",
  "TotalReadoutTime": 0.0710717,
  "TxRefAmp": 319.19,
  "dcmmeta_affine": [
    [-1.999851107597351, -2.1934688732017094e-08, 0.02440270595252514, 103.79772186279297],
    [0.0012346745934337378, 1.9974383115768433, 0.1011858731508255, -80.38279724121094],
    [0.024371452629566193, -0.10119340568780899, 1.9972896575927734, -84.81161499023438],
    [0.0, 0.0, 0.0, 1.0]
],
  "dcmmeta_reorient_transform": [
    [0.0, -1.0, 0.0, 103.0],
    [1.0, 0.0, 0.0, 0.0],
    [0.0, 0.0, 1.0, 0.0],
    [0.0, 0.0, 0.0, 1.0]
],
  "dcmmeta_shape": [104, 104, 72, 581],
  "dcmmeta_slice_dim": 2,
  "dcmmeta_version": 0.6,
  "global": {
    "const": {
      "AcquisitionMatrix": [104, 0, 0, 104],
      "AngioFlag": "N",
      "BitsAllocated": 16,
      "BitsStored": 12,
      "Columns": 936,
      "EchoNumbers": 1,
      "EchoTime": 34.8,
      "EchoTrainLength": 1,
      "FlipAngle": 55.0,
      "HighBit": 11,
      "ImageOrientationPatient": [0.99992556071807, -0.000617337314, 0.01218572596472, -1.0967344e-08, 0.9987191664861, 0.05059670437212],
      "ImagePositionPatient": [-935.73577697177, -955.77407046691, -147.46951684362],
      "ImageType": [
        "ORIGINAL",
        "PRIMARY",
        "M",
        "MB",
        "ND",
        "MOSAIC"
],
      "ImagedNucleus": "1H",
      "ImagingFrequency": 123.234452,
      "InPlanePhaseEncodingDirection": "COL",
      "MRAcquisitionType": "2D",
      "MagneticFieldStrength": 3.0,
      "Manufacturer": "SIEMENS",
      "ManufacturerModelName": "TrioTim",
      "Modality": "MR",
      "NumberOfAverages": 1.0,
      "NumberOfPhaseEncodingSteps": 91,
      "PercentPhaseFieldOfView": 100.0,
      "PercentSampling": 100.0,
      "PerformedProcedureStepStartTime": "150203.328000",
      "PhotometricInterpretation": "MONOCHROME2",
      "PixelBandwidth": 1923.0,
      "PixelRepresentation": 0,
      "PixelSpacing": [2.0, 2.0],
      "ProtocolName": "cmrr_mbep2d_bold_2mm_MB8_Task_8x",
      "RepetitionTime": 785.0,
      "Rows": 936,
      "SAR": 0.10947691270066,
      "SamplesPerPixel": 1,
      "ScanOptions": [
        "PFP",
        "FS"
],
      "ScanningSequence": "EP",
      "SequenceName": "epfid2d1_104",
      "SequenceVariant": [
        "SK",
        "SS"
],
      "SeriesDescription": "cmrr_mbep2d_bold_2mm_MB8_Task_8x",
      "SeriesNumber": 17,
      "SeriesTime": "172342.921000",
      "SliceLocation": -87.497008249915,
      "SliceThickness": 2.0,
      "SmallestImagePixelValue": 0,
      "SoftwareVersions": "syngo MR B19",
      "SpacingBetweenSlices": 1.9999999865383,
      "SpecificCharacterSet": "ISO_IR 100",
      "StudyID": "1",
      "StudyTime": "150203.312000",
      "TransmitCoilName": "Body",
      "VariableFlipAngleFlag": "N",
      "WindowCenterWidthExplanation": "Algo1",
      "dBdt": 0.0},
    "slices": {}
  },
  "time": {
    "samples": {
      "AcquisitionNumber": [1, 2, 3, 4, 5, 6, 7, 8, 9, 10, 11, 12, 13, 14, 15, 16, 17, 18, 19, 20, 21, 22, 23, 24, 25, 26, 27, 28, 29, 30, 31, 32, 33, 34, 35, 36, 37, 38, 39, 40, 41, 42, 43, 44, 45, 46, 47, 48, 49, 50, 51, 52, 53, 54, 55, 56, 57, 58, 59, 60, 61, 62, 63, 64, 65, 66, 67, 68, 69, 70, 71, 72, 73, 74, 75, 76, 77, 78, 79, 80, 81, 82, 83, 84, 85, 86, 87, 88, 89, 90, 91, 92, 93, 94, 95, 96, 97, 98, 99, 100, 101, 102, 103, 104, 105, 106, 107, 108, 109, 110, 111, 112, 113, 114, 115, 116, 117, 118, 119, 120, 121, 122, 123, 124, 125, 126, 127, 128, 129, 130, 131, 132, 133, 134, 135, 136, 137, 138, 139, 140, 141, 142, 143, 144, 145, 146, 147, 148, 149, 150, 151, 152, 153, 154, 155, 156, 157, 158, 159, 160, 161, 162, 163, 164, 165, 166, 167, 168, 169, 170, 171, 172, 173, 174, 175, 176, 177, 178, 179, 180, 181, 182, 183, 184, 185, 186, 187, 188, 189, 190, 191, 192, 193, 194, 195, 196, 197, 198, 199, 200, 201, 202, 203, 204, 205, 206, 207, 208, 209, 210, 211, 212, 213, 214, 215, 216, 217, 218, 219, 220, 221, 222, 223, 224, 225, 226, 227, 228, 229, 230, 231, 232, 233, 234, 235, 236, 237, 238, 239, 240, 241, 242, 243, 244, 245, 246, 247, 248, 249, 250, 251, 252, 253, 254, 255, 256, 257, 258, 259, 260, 261, 262, 263, 264, 265, 266, 267, 268, 269, 270, 271, 272, 273, 274, 275, 276, 277, 278, 279, 280, 281, 282, 283, 284, 285, 286, 287, 288, 289, 290, 291, 292, 293, 294, 295, 296, 297, 298, 299, 300, 301, 302, 303, 304, 305, 306, 307, 308, 309, 310, 311, 312, 313, 314, 315, 316, 317, 318, 319, 320, 321, 322, 323, 324, 325, 326, 327, 328, 329, 330, 331, 332, 333, 334, 335, 336, 337, 338, 339, 340, 341, 342, 343, 344, 345, 346, 347, 348, 349, 350, 351, 352, 353, 354, 355, 356, 357, 358, 359, 360, 361, 362, 363, 364, 365, 366, 367, 368, 369, 370, 371, 372, 373, 374, 375, 376, 377, 378, 379, 380, 381, 382, 383, 384, 385, 386, 387, 388, 389, 390, 391, 392, 393, 394, 395, 396, 397, 398, 399, 400, 401, 402, 403, 404, 405, 406, 407, 408, 409, 410, 411, 412, 413, 414, 415, 416, 417, 418, 419, 420, 421, 422, 423, 424, 425, 426, 427, 428, 429, 430, 431, 432, 433, 434, 435, 436, 437, 438, 439, 440, 441, 442, 443, 444, 445, 446, 447, 448, 449, 450, 451, 452, 453, 454, 455, 456, 457, 458, 459, 460, 461, 462, 463, 464, 465, 466, 467, 468, 469, 470, 471, 472, 473, 474, 475, 476, 477, 478, 479, 480, 481, 482, 483, 484, 485, 486, 487, 488, 489, 490, 491, 492, 493, 494, 495, 496, 497, 498, 499, 500, 501, 502, 503, 504, 505, 506, 507, 508, 509, 510, 511, 512, 513, 514, 515, 516, 517, 518, 519, 520, 521, 522, 523, 524, 525, 526, 527, 528, 529, 530, 531, 532, 533, 534, 535, 536, 537, 538, 539, 540, 541, 542, 543, 544, 545, 546, 547, 548, 549, 550, 551, 552, 553, 554, 555, 556, 557, 558, 559, 560, 561, 562, 563, 564, 565, 566, 567, 568, 569, 570, 571, 572, 573, 574, 575, 576, 577, 578, 579, 580, 581],
      "AcquisitionTime": ["162715.725000", "162716.512500", "162717.302500", "162718.090000", "162718.877500", "162719.665000", "162720.455000", "162721.242500", "162722.030000", "162722.817500", "162723.607500", "162724.395000", "162725.182500", "162725.970000", "162726.760000", "162727.547500", "162728.335000", "162729.122500", "162729.912500", "162730.700000", "162731.487500", "162732.277500", "162733.065000", "162733.852500", "162734.640000", "162735.430000", "162736.217500", "162737.005000", "162737.792500", "162738.582500", "162739.370000", "162740.157500", "162740.945000", "162741.735000", "162742.522500", "162743.310000", "162744.097500", "162744.887500", "162745.675000", "162746.462500", "162747.250000", "162748.040000", "162748.827500", "162749.615000", "162750.405000", "162751.192500", "162751.980000", "162752.767500", "162753.557500", "162754.345000", "162755.132500", "162755.920000", "162756.710000", "162757.497500", "162758.285000", "162759.072500", "162759.862500", "162800.650000", "162801.437500", "162802.225000", "162803.015000", "162803.802500", "162804.590000", "162805.377500", "162806.167500", "162806.955000", "162807.742500", "162808.532500", "162809.320000", "162810.107500", "162810.895000", "162811.685000", "162812.472500", "162813.260000", "162814.047500", "162814.837500", "162815.625000", "162816.412500", "162817.200000", "162817.990000", "162818.777500", "162819.565000", "162820.352500", "162821.142500", "162821.930000", "162822.717500", "162823.505000", "162824.295000", "162825.082500", "162825.870000", "162826.660000", "162827.447500", "162828.235000", "162829.022500", "162829.812500", "162830.600000", "162831.387500", "162832.175000", "162832.965000", "162833.752500", "162834.540000", "162835.327500", "162836.117500", "162836.905000", "162837.692500", "162838.480000", "162839.270000", "162840.057500", "162840.845000", "162841.632500", "162842.422500", "162843.210000", "162843.997500", "162844.787500", "162845.575000", "162846.362500", "162847.150000", "162847.940000", "162848.727500", "162849.515000", "162850.302500", "162851.092500", "162851.880000", "162852.667500", "162853.455000", "162854.245000", "162855.032500", "162855.820000", "162856.607500", "162857.397500", "162858.185000", "162858.972500", "162859.760000", "162900.550000", "162901.337500", "162902.125000", "162902.915000", "162903.702500", "162904.490000", "162905.277500", "162906.067500", "162906.855000", "162907.642500", "162908.430000", "162909.220000", "162910.007500", "162910.795000", "162911.582500", "162912.372500", "162913.160000", "162913.947500", "162914.735000", "162915.525000", "162916.312500", "162917.100000", "162917.890000", "162918.677500", "162919.465000", "162920.252500", "162921.042500", "162921.830000", "162922.617500", "162923.405000", "162924.195000", "162924.982500", "162925.770000", "162926.557500", "162927.347500", "162928.135000", "162928.922500", "162929.710000", "162930.500000", "162931.287500", "162932.075000", "162932.862500", "162933.652500", "162934.440000", "162935.227500", "162936.017500", "162936.805000", "162937.592500", "162938.380000", "162939.170000", "162939.957500", "162940.745000", "162941.532500", "162942.322500", "162943.110000", "162943.897500", "162944.685000", "162945.475000", "162946.262500", "162947.050000", "162947.837500", "162948.627500", "162949.415000", "162950.202500", "162950.990000", "162951.780000", "162952.567500", "162953.355000", "162954.145000", "162954.932500", "162955.720000", "162956.507500", "162957.297500", "162958.085000", "162958.872500", "162959.660000", "163000.450000", "163001.237500", "163002.025000", "163002.812500", "163003.602500", "163004.390000", "163005.177500", "163005.965000", "163006.755000", "163007.542500", "163008.330000", "163009.117500", "163009.907500", "163010.695000", "163011.482500", "163012.272500", "163013.060000", "163013.847500", "163014.635000", "163015.425000", "163016.212500", "163017.000000", "163017.787500", "163018.577500", "163019.365000", "163020.152500", "163020.940000", "163021.730000", "163022.517500", "163023.305000", "163024.092500", "163024.882500", "163025.670000", "163026.457500", "163027.245000", "163028.035000", "163028.822500", "163029.610000", "163030.400000", "163031.187500", "163031.975000", "163032.762500", "163033.552500", "163034.340000", "163035.127500", "163035.915000", "163036.705000", "163037.492500", "163038.280000", "163039.067500", "163039.857500", "163040.645000", "163041.432500", "163042.220000", "163043.010000", "163043.797500", "163044.585000", "163045.372500", "163046.162500", "163046.950000", "163047.737500", "163048.527500", "163049.315000", "163050.102500", "163050.890000", "163051.680000", "163052.467500", "163053.255000", "163054.042500", "163054.832500", "163055.620000", "163056.407500", "163057.195000", "163057.985000", "163058.772500", "163059.560000", "163100.347500", "163101.137500", "163101.925000", "163102.712500", "163103.500000", "163104.290000", "163105.077500", "163105.865000", "163106.655000", "163107.442500", "163108.230000", "163109.017500", "163109.807500", "163110.595000", "163111.382500", "163112.170000", "163112.960000", "163113.747500", "163114.535000", "163115.322500", "163116.112500", "163116.900000", "163117.687500", "163118.475000", "163119.265000", "163120.052500", "163120.840000", "163121.627500", "163122.417500", "163123.205000", "163123.992500", "163124.782500", "163125.570000", "163126.357500", "163127.145000", "163127.935000", "163128.722500", "163129.510000", "163130.297500", "163131.087500", "163131.875000", "163132.662500", "163133.450000", "163134.240000", "163135.027500", "163135.815000", "163136.602500", "163137.392500", "163138.180000", "163138.967500", "163139.755000", "163140.545000", "163141.332500", "163142.120000", "163142.910000", "163143.697500", "163144.485000", "163145.272500", "163146.062500", "163146.850000", "163147.637500", "163148.425000", "163149.215000", "163150.002500", "163150.790000", "163151.577500", "163152.367500", "163153.155000", "163153.942500", "163154.730000", "163155.520000", "163156.307500", "163157.095000", "163157.882500", "163158.672500", "163159.460000", "163200.247500", "163201.037500", "163201.825000", "163202.612500", "163203.400000", "163204.190000", "163204.977500", "163205.765000", "163206.552500", "163207.342500", "163208.130000", "163208.917500", "163209.705000", "163210.495000", "163211.282500", "163212.070000", "163212.857500", "163213.647500", "163214.435000", "163215.222500", "163216.010000", "163216.800000", "163217.587500", "163218.375000", "163219.165000", "163219.952500", "163220.740000", "163221.527500", "163222.317500", "163223.105000", "163223.892500", "163224.680000", "163225.470000", "163226.257500", "163227.045000", "163227.832500", "163228.622500", "163229.410000", "163230.197500", "163230.985000", "163231.775000", "163232.562500", "163233.350000", "163234.140000", "163234.927500", "163235.715000", "163236.502500", "163237.292500", "163238.080000", "163238.867500", "163239.655000", "163240.445000", "163241.232500", "163242.020000", "163242.807500", "163243.597500", "163244.385000", "163245.172500", "163245.960000", "163246.750000", "163247.537500", "163248.325000", "163249.112500", "163249.902500", "163250.690000", "163251.477500", "163252.267500", "163253.055000", "163253.842500", "163254.630000", "163255.420000", "163256.207500", "163256.995000", "163257.782500", "163258.572500", "163259.360000", "163300.147500", "163300.935000", "163301.725000", "163302.512500", "163303.300000", "163304.087500", "163304.877500", "163305.665000", "163306.452500", "163307.240000", "163308.030000", "163308.817500", "163309.605000", "163310.395000", "163311.182500", "163311.970000", "163312.757500", "163313.547500", "163314.335000", "163315.122500", "163315.910000", "163316.700000", "163317.487500", "163318.275000", "163319.062500", "163319.852500", "163320.640000", "163321.427500", "163322.215000", "163323.005000", "163323.792500", "163324.580000", "163325.367500", "163326.157500", "163326.945000", "163327.732500", "163328.522500", "163329.310000", "163330.097500", "163330.885000", "163331.675000", "163332.462500", "163333.250000", "163334.037500", "163334.827500", "163335.615000", "163336.402500", "163337.190000", "163337.980000", "163338.767500", "163339.555000", "163340.342500", "163341.132500", "163341.920000", "163342.707500", "163343.495000", "163344.285000", "163345.072500", "163345.860000", "163346.650000", "163347.437500", "163348.225000", "163349.012500", "163349.802500", "163350.590000", "163351.377500", "163352.165000", "163352.955000", "163353.742500", "163354.530000", "163355.317500", "163356.107500", "163356.895000", "163357.682500", "163358.470000", "163359.260000", "163400.047500", "163400.835000", "163401.622500", "163402.412500", "163403.200000", "163403.987500", "163404.777500", "163405.565000", "163406.352500", "163407.140000", "163407.930000", "163408.717500", "163409.505000", "163410.292500", "163411.082500", "163411.870000", "163412.657500", "163413.445000", "163414.235000", "163415.022500", "163415.810000", "163416.597500", "163417.387500", "163418.175000", "163418.962500", "163419.750000", "163420.540000", "163421.327500", "163422.115000", "163422.905000", "163423.692500", "163424.480000", "163425.267500", "163426.057500", "163426.845000", "163427.632500", "163428.420000", "163429.210000", "163429.997500", "163430.785000", "163431.572500", "163432.362500", "163433.150000", "163433.937500", "163434.725000", "163435.515000", "163436.302500", "163437.090000", "163437.877500", "163438.667500", "163439.455000", "163440.242500", "163441.032500", "163441.820000", "163442.607500", "163443.395000", "163444.185000", "163444.972500", "163445.760000", "163446.547500", "163447.337500", "163448.125000", "163448.912500", "163449.700000", "163450.490000", "163451.277500", "163452.065000", "163452.852500"],
      "ContentTime": ["172342.921000", "172342.921000", "172442.906000", "172442.906000", "172442.906000", "172442.906000", "172442.906000", "172442.921000", "172442.921000", "172442.921000", "172442.921000", "172442.921000", "172442.921000", "172442.921000", "172442.937000", "172442.937000", "172442.937000", "172442.937000", "172442.937000", "172442.937000", "172442.937000", "172442.953000", "172442.953000", "172442.953000", "172442.953000", "172442.953000", "172442.953000", "172442.953000", "172442.968000", "172442.968000", "172542.906000", "172542.906000", "172542.906000", "172542.906000", "172542.906000", "172542.921000", "172542.921000", "172542.921000", "172542.921000", "172542.921000", "172542.921000", "172542.921000", "172542.937000", "172542.937000", "172542.937000", "172542.937000", "172542.937000", "172542.937000", "172542.937000", "172542.953000", "172542.953000", "172542.953000", "172542.953000", "172542.953000", "172542.953000", "172542.953000", "172542.968000", "172542.968000", "172642.906000", "172642.906000", "172642.906000", "172642.906000", "172642.921000", "172642.921000", "172642.921000", "172642.921000", "172642.921000", "172642.921000", "172642.921000", "172642.921000", "172642.937000", "172642.937000", "172642.937000", "172642.937000", "172642.937000", "172642.937000", "172642.937000", "172642.953000", "172642.953000", "172642.953000", "172642.953000", "172642.953000", "172642.953000", "172642.953000", "172642.968000", "172642.968000", "172742.906000", "172742.906000", "172742.906000", "172742.906000", "172742.921000", "172742.921000", "172742.921000", "172742.921000", "172742.921000", "172742.921000", "172742.921000", "172742.937000", "172742.937000", "172742.937000", "172742.937000", "172742.937000", "172742.937000", "172742.937000", "172742.953000", "172742.953000", "172742.953000", "172742.953000", "172742.953000", "172742.953000", "172742.953000", "172742.968000", "172742.968000", "172742.968000", "172842.906000", "172842.906000", "172842.906000", "172842.906000", "172842.906000", "172842.921000", "172842.921000", "172842.921000", "172842.921000", "172842.921000", "172842.921000", "172842.921000", "172842.937000", "172842.937000", "172842.937000", "172842.937000", "172842.937000", "172842.937000", "172842.937000", "172842.953000", "172842.953000", "172842.953000", "172842.953000", "172842.953000", "172842.953000", "172842.953000", "172842.968000", "172842.968000", "172842.968000", "172942.906000", "172942.906000", "172942.906000", "172942.906000", "172942.906000", "172942.921000", "172942.921000", "172942.921000", "172942.921000", "172942.921000", "172942.921000", "172942.921000", "172942.937000", "172942.937000", "172942.937000", "172942.937000", "172942.937000", "172942.937000", "172942.937000", "172942.953000", "172942.953000", "172942.953000", "172942.953000", "172942.953000", "172942.953000", "172942.953000", "172942.968000", "172942.968000", "173042.906000", "173042.906000", "173042.906000", "173042.906000", "173042.906000", "173042.921000", "173042.921000", "173042.921000", "173042.921000", "173042.921000", "173042.921000", "173042.921000", "173042.937000", "173042.937000", "173042.937000", "173042.937000", "173042.937000", "173042.937000", "173042.937000", "173042.953000", "173042.953000", "173042.953000", "173042.953000", "173042.953000", "173042.953000", "173042.953000", "173042.968000", "173042.968000", "173142.906000", "173142.906000", "173142.906000", "173142.906000", "173142.906000", "173142.921000", "173142.921000", "173142.921000", "173142.921000", "173142.921000", "173142.921000", "173142.921000", "173142.937000", "173142.937000", "173142.937000", "173142.937000", "173142.937000", "173142.937000", "173142.937000", "173142.953000", "173142.953000", "173142.953000", "173142.953000", "173142.953000", "173142.953000", "173142.953000", "173142.968000", "173142.968000", "173222.906000", "173222.906000", "173222.906000", "173222.906000", "173222.906000", "173222.921000", "173222.921000", "173222.921000", "173222.921000", "173222.921000", "173222.921000", "173222.921000", "173222.937000", "173222.937000", "173222.937000", "173222.937000", "173222.937000", "173222.937000", "173222.937000", "173322.906000", "173322.906000", "173322.906000", "173322.906000", "173322.921000", "173322.921000", "173322.921000", "173322.921000", "173322.921000", "173322.921000", "173322.921000", "173322.937000", "173322.937000", "173322.937000", "173322.937000", "173322.937000", "173322.937000", "173322.937000", "173322.953000", "173322.953000", "173322.953000", "173322.953000", "173322.953000", "173322.953000", "173322.953000", "173322.968000", "173322.968000", "173322.968000", "173422.906000", "173422.906000", "173422.906000", "173422.906000", "173422.906000", "173422.921000", "173422.921000", "173422.921000", "173422.921000", "173422.921000", "173422.921000", "173422.921000", "173422.937000", "173422.937000", "173422.937000", "173422.937000", "173422.937000", "173422.937000", "173422.937000", "173422.953000", "173422.953000", "173422.953000", "173422.953000", "173422.953000", "173422.953000", "173422.953000", "173422.968000", "173422.968000", "173522.906000", "173522.906000", "173522.906000", "173522.906000", "173522.906000", "173522.921000", "173522.921000", "173522.921000", "173522.921000", "173522.921000", "173522.921000", "173522.921000", "173522.937000", "173522.937000", "173522.937000", "173522.937000", "173522.937000", "173522.937000", "173522.937000", "173522.953000", "173522.953000", "173522.953000", "173522.953000", "173522.953000", "173522.953000", "173522.953000", "173522.968000", "173522.968000", "173522.968000", "173622.906000", "173622.906000", "173622.906000", "173622.906000", "173622.906000", "173622.921000", "173622.921000", "173622.921000", "173622.921000", "173622.921000", "173622.921000", "173622.921000", "173622.937000", "173622.937000", "173622.937000", "173622.937000", "173622.937000", "173622.937000", "173622.937000", "173622.953000", "173622.953000", "173622.953000", "173622.953000", "173622.953000", "173622.953000", "173622.953000", "173622.968000", "173622.968000", "173722.906000", "173722.906000", "173722.906000", "173722.906000", "173722.921000", "173722.921000", "173722.921000", "173722.921000", "173722.921000", "173722.921000", "173722.921000", "173722.921000", "173722.937000", "173722.937000", "173722.937000", "173722.937000", "173722.937000", "173722.937000", "173722.937000", "173722.953000", "173722.953000", "173722.953000", "173722.953000", "173722.953000", "173722.953000", "173722.953000", "173722.968000", "173722.968000", "173822.906000", "173822.906000", "173822.906000", "173822.906000", "173822.906000", "173822.921000", "173822.921000", "173822.921000", "173822.921000", "173822.921000", "173822.921000", "173822.921000", "173822.937000", "173822.937000", "173822.937000", "173822.937000", "173822.937000", "173822.937000", "173822.937000", "173822.953000", "173822.953000", "173822.953000", "173822.953000", "173822.953000", "173822.953000", "173822.953000", "173822.968000", "173822.968000", "173922.906000", "173922.906000", "173922.906000", "173922.906000", "173922.921000", "173922.921000", "173922.921000", "173922.921000", "173922.921000", "173922.921000", "173922.921000", "173922.921000", "173922.937000", "173922.937000", "173922.937000", "173922.937000", "173922.937000", "173922.937000", "173922.937000", "173922.953000", "173922.953000", "173922.953000", "173922.953000", "173922.953000", "173922.953000", "173922.953000", "173922.968000", "173922.968000", "174022.906000", "174022.906000", "174022.906000", "174022.906000", "174022.906000", "174022.921000", "174022.921000", "174022.921000", "174022.921000", "174022.921000", "174022.921000", "174022.921000", "174022.937000", "174022.937000", "174022.937000", "174022.937000", "174022.937000", "174022.937000", "174022.937000", "174022.953000", "174022.953000", "174022.953000", "174022.953000", "174022.953000", "174022.953000", "174022.953000", "174022.968000", "174022.968000", "174022.968000", "174122.906000", "174122.906000", "174122.906000", "174122.906000", "174122.906000", "174122.921000", "174122.921000", "174122.921000", "174122.921000", "174122.921000", "174122.921000", "174122.921000", "174122.937000", "174122.937000", "174122.937000", "174122.937000", "174122.937000", "174122.937000", "174122.937000", "174122.953000", "174122.953000", "174122.953000", "174122.953000", "174122.953000", "174122.953000", "174122.953000", "174122.968000", "174122.968000", "174222.906000", "174222.906000", "174222.906000", "174222.906000", "174222.921000", "174222.921000", "174222.921000", "174222.921000", "174222.921000", "174222.921000", "174222.921000", "174222.937000", "174222.937000", "174222.937000", "174222.937000", "174222.937000", "174222.937000", "174222.937000", "174222.953000", "174222.953000", "174222.953000", "174222.953000", "174222.953000", "174222.953000", "174222.953000", "174222.968000", "174222.968000", "174222.968000", "174322.906000", "174322.906000", "174322.906000", "174322.906000", "174322.906000", "174322.921000", "174322.921000", "174322.921000", "174322.921000", "174322.921000", "174322.921000", "174322.921000", "174322.937000", "174322.937000", "174322.937000", "174322.937000", "174322.937000", "174322.937000", "174322.937000", "174322.953000", "174322.953000", "174322.953000", "174322.953000", "174322.953000", "174322.953000", "174322.953000", "174322.968000", "174322.968000", "174413.953000", "174413.953000", "174413.953000", "174413.968000", "174413.968000", "174413.968000", "174413.968000", "174413.968000", "174413.968000", "174413.968000", "174413.984000", "174413.984000", "174413.984000", "174413.984000", "174413.984000", "174413.984000", "174413.984000", "174414.000000", "174414.000000", "174414.000000", "174414.000000", "174414.000000", "174414.000000", "174414.000000", "174414.015000"],
      "DataSetTrailingPadding": [
