{
  "AcquisitionMatrixPE": 104,
  "AcquisitionNumber": 1,
  "AcquisitionTime": "16:05:11.717500",
  "BandwidthPerPixelPhaseEncode": 13.935,
  "BaseResolution": 104,
  "CoilString": "C:HEA;HEP",
  "ConversionSoftware": "dcm2niix",
  "ConversionSoftwareVersion": "v1.0.20210317",
  "DerivedVendorReportedEchoSpacing": 0.000690017,
  "DeviceSerialNumber": "35450",
  "DwellTime": 2.5e-06,
  "EchoTime": 0.0348,
  "EffectiveEchoSpacing": 0.000690017,
  "FlipAngle": 55,
  "ImageComments": "Unaliased MB8/PE3",
  "ImageOrientationPatientDICOM": [0.999553, -0.00270044, -0.02976, -4.51451e-08, 0.995908, -0.090371],
  "ImageType": [
    "ORIGINAL",
    "PRIMARY",
    "M",
    "MB",
    "ND",
    "MOSAIC"
],
  "ImagingFrequency": 123.234,
  "InPlanePhaseEncodingDirectionDICOM": "COL",
  "InstitutionAddress": "Univeristy Ave. 197,Newark,North East,US,07102-1814",
  "InstitutionName": "RUBIC",
  "InstitutionalDepartmentName": "Department",
  "MRAcquisitionType": "2D",
  "MagneticFieldStrength": 3,
  "Manufacturer": "Siemens",
  "ManufacturersModelName": "TrioTim",
  "Modality": "MR",
  "MultibandAccelerationFactor": 8,
  "PartialFourier": 0.875,
  "PatientPosition": "HFS",
  "PercentPhaseFOV": 100,
  "PercentSampling": 100,
  "PhaseEncodingDirection": "j-",
  "PhaseEncodingSteps": 91,
  "PhaseResolution": 1,
  "PixelBandwidth": 1923,
  "ProcedureStepDescription": "Cole^Michael",
  "ProtocolName": "cmrr_mbep2d_bold_2mm_MB8_Task_8x",
  "PulseSequenceDetails": "%CustomerSeq%\\cmrr_mbep2d_bold",
  "ReceiveCoilName": "32Ch_Head",
  "ReconMatrixPE": 104,
  "RepetitionTime": 0.785,
  "SAR": 0.0970201,
  "ScanOptions": "PFP\\FS",
  "ScanningSequence": "EP",
  "SequenceName": "epfid2d1_104",
  "SequenceVariant": "SK\\SS",
  "SeriesDescription": "cmrr_mbep2d_bold_2mm_MB8_Task_8x",
  "SeriesNumber": 17,
  "ShimSetting": [2067, -402, -7326, 583, -14, -116, 186, -2],
  "SliceThickness": 2,
  "SliceTiming": [0, 0.4375, 0.0875, 0.525, 0.175, 0.6125, 0.2625, 0.7, 0.35, 0, 0.4375, 0.0875, 0.525, 0.175, 0.6125, 0.2625, 0.7, 0.35, 0, 0.4375, 0.0875, 0.525, 0.175, 0.6125, 0.2625, 0.7, 0.35, 0, 0.4375, 0.0875, 0.525, 0.175, 0.6125, 0.2625, 0.7, 0.35, 0, 0.4375, 0.0875, 0.525, 0.175, 0.6125, 0.2625, 0.7, 0.35, 0, 0.4375, 0.0875, 0.525, 0.175, 0.6125, 0.2625, 0.7, 0.35, 0, 0.4375, 0.0875, 0.525, 0.175, 0.6125, 0.2625, 0.7, 0.35, 0, 0.4375, 0.0875, 0.525, 0.175, 0.6125, 0.2625, 0.7, 0.35],
  "SoftwareVersions": "syngo MR B19",
  "SpacingBetweenSlices": 2,
  "StationName": "MRC35450",
  "TaskName": "cpro",
  "TotalReadoutTime": 0.0710717,
  "TxRefAmp": 314.481,
  "dcmmeta_affine": [
    [-1.9991068840026855, -9.029015046735367e-08, -0.05976450443267822, 105.97872161865234],
    [0.005400888156145811, 1.9918162822723389, -0.18066130578517914, -79.74598693847656],
    [-0.05951996520161629, 0.18074201047420502, 1.9909268617630005, -101.71373748779297],
    [0.0, 0.0, 0.0, 1.0]
],
  "dcmmeta_reorient_transform": [
    [0.0, -1.0, 0.0, 103.0],
    [1.0, 0.0, 0.0, 0.0],
    [0.0, 0.0, 1.0, 0.0],
    [0.0, 0.0, 0.0, 1.0]
],
  "dcmmeta_shape": [104, 104, 72, 581],
  "dcmmeta_slice_dim": 2,
  "dcmmeta_version": 0.6,
  "global": {
    "const": {
      "AcquisitionMatrix": [104, 0, 0, 104],
      "AngioFlag": "N",
      "BitsAllocated": 16,
      "BitsStored": 12,
      "Columns": 936,
      "EchoNumbers": 1,
      "EchoTime": 34.8,
      "EchoTrainLength": 1,
      "FlipAngle": 55.0,
      "HighBit": 11,
      "ImageOrientationPatient": [0.99955342582259, -0.0027004441543, -0.0297599819841, -4.5145075e-08, 0.99590816907338, -0.0903710062626],
      "ImagePositionPatient": [-937.60712629574, -951.75992129274, 16.851670245463],
      "ImageType": [
        "ORIGINAL",
        "PRIMARY",
        "M",
        "MB",
        "ND",
        "MOSAIC"
],
      "ImagedNucleus": "1H",
      "ImagingFrequency": 123.234462,
      "InPlanePhaseEncodingDirection": "COL",
      "MRAcquisitionType": "2D",
      "MagneticFieldStrength": 3.0,
      "Manufacturer": "SIEMENS",
      "ManufacturerModelName": "TrioTim",
      "Modality": "MR",
      "NumberOfAverages": 1.0,
      "NumberOfPhaseEncodingSteps": 91,
      "PercentPhaseFieldOfView": 100.0,
      "PercentSampling": 100.0,
      "PerformedProcedureStepStartTime": "144154.796000",
      "PhotometricInterpretation": "MONOCHROME2",
      "PixelBandwidth": 1923.0,
      "PixelRepresentation": 0,
      "PixelSpacing": [2.0, 2.0],
      "ProtocolName": "cmrr_mbep2d_bold_2mm_MB8_Task_8x",
      "RepetitionTime": 785.0,
      "Rows": 936,
      "SAR": 0.09702006861576,
      "SamplesPerPixel": 1,
      "ScanOptions": [
        "PFP",
        "FS"
],
      "ScanningSequence": "EP",
      "SequenceName": "epfid2d1_104",
      "SequenceVariant": [
        "SK",
        "SS"
],
      "SeriesDescription": "cmrr_mbep2d_bold_2mm_MB8_Task_8x",
      "SeriesNumber": 17,
      "SeriesTime": "170156.921000",
      "SliceLocation": -97.215682751145,
      "SliceThickness": 2.0,
      "SmallestImagePixelValue": 0,
      "SoftwareVersions": "syngo MR B19",
      "SpacingBetweenSlices": 2.0000000320349,
      "SpecificCharacterSet": "ISO_IR 100",
      "StudyID": "1",
      "StudyTime": "144154.765000",
      "TransmitCoilName": "Body",
      "VariableFlipAngleFlag": "N",
      "WindowCenterWidthExplanation": "Algo1",
      "dBdt": 0.0},
    "slices": {}
  },
  "time": {
    "samples": {
      "AcquisitionNumber": [1, 2, 3, 4, 5, 6, 7, 8, 9, 10, 11, 12, 13, 14, 15, 16, 17, 18, 19, 20, 21, 22, 23, 24, 25, 26, 27, 28, 29, 30, 31, 32, 33, 34, 35, 36, 37, 38, 39, 40, 41, 42, 43, 44, 45, 46, 47, 48, 49, 50, 51, 52, 53, 54, 55, 56, 57, 58, 59, 60, 61, 62, 63, 64, 65, 66, 67, 68, 69, 70, 71, 72, 73, 74, 75, 76, 77, 78, 79, 80, 81, 82, 83, 84, 85, 86, 87, 88, 89, 90, 91, 92, 93, 94, 95, 96, 97, 98, 99, 100, 101, 102, 103, 104, 105, 106, 107, 108, 109, 110, 111, 112, 113, 114, 115, 116, 117, 118, 119, 120, 121, 122, 123, 124, 125, 126, 127, 128, 129, 130, 131, 132, 133, 134, 135, 136, 137, 138, 139, 140, 141, 142, 143, 144, 145, 146, 147, 148, 149, 150, 151, 152, 153, 154, 155, 156, 157, 158, 159, 160, 161, 162, 163, 164, 165, 166, 167, 168, 169, 170, 171, 172, 173, 174, 175, 176, 177, 178, 179, 180, 181, 182, 183, 184, 185, 186, 187, 188, 189, 190, 191, 192, 193, 194, 195, 196, 197, 198, 199, 200, 201, 202, 203, 204, 205, 206, 207, 208, 209, 210, 211, 212, 213, 214, 215, 216, 217, 218, 219, 220, 221, 222, 223, 224, 225, 226, 227, 228, 229, 230, 231, 232, 233, 234, 235, 236, 237, 238, 239, 240, 241, 242, 243, 244, 245, 246, 247, 248, 249, 250, 251, 252, 253, 254, 255, 256, 257, 258, 259, 260, 261, 262, 263, 264, 265, 266, 267, 268, 269, 270, 271, 272, 273, 274, 275, 276, 277, 278, 279, 280, 281, 282, 283, 284, 285, 286, 287, 288, 289, 290, 291, 292, 293, 294, 295, 296, 297, 298, 299, 300, 301, 302, 303, 304, 305, 306, 307, 308, 309, 310, 311, 312, 313, 314, 315, 316, 317, 318, 319, 320, 321, 322, 323, 324, 325, 326, 327, 328, 329, 330, 331, 332, 333, 334, 335, 336, 337, 338, 339, 340, 341, 342, 343, 344, 345, 346, 347, 348, 349, 350, 351, 352, 353, 354, 355, 356, 357, 358, 359, 360, 361, 362, 363, 364, 365, 366, 367, 368, 369, 370, 371, 372, 373, 374, 375, 376, 377, 378, 379, 380, 381, 382, 383, 384, 385, 386, 387, 388, 389, 390, 391, 392, 393, 394, 395, 396, 397, 398, 399, 400, 401, 402, 403, 404, 405, 406, 407, 408, 409, 410, 411, 412, 413, 414, 415, 416, 417, 418, 419, 420, 421, 422, 423, 424, 425, 426, 427, 428, 429, 430, 431, 432, 433, 434, 435, 436, 437, 438, 439, 440, 441, 442, 443, 444, 445, 446, 447, 448, 449, 450, 451, 452, 453, 454, 455, 456, 457, 458, 459, 460, 461, 462, 463, 464, 465, 466, 467, 468, 469, 470, 471, 472, 473, 474, 475, 476, 477, 478, 479, 480, 481, 482, 483, 484, 485, 486, 487, 488, 489, 490, 491, 492, 493, 494, 495, 496, 497, 498, 499, 500, 501, 502, 503, 504, 505, 506, 507, 508, 509, 510, 511, 512, 513, 514, 515, 516, 517, 518, 519, 520, 521, 522, 523, 524, 525, 526, 527, 528, 529, 530, 531, 532, 533, 534, 535, 536, 537, 538, 539, 540, 541, 542, 543, 544, 545, 546, 547, 548, 549, 550, 551, 552, 553, 554, 555, 556, 557, 558, 559, 560, 561, 562, 563, 564, 565, 566, 567, 568, 569, 570, 571, 572, 573, 574, 575, 576, 577, 578, 579, 580, 581],
      "AcquisitionTime": ["160511.717500", "160512.505000", "160513.295000", "160514.082500", "160514.870000", "160515.657500", "160516.447500", "160517.235000", "160518.022500", "160518.812500", "160519.600000", "160520.387500", "160521.175000", "160521.965000", "160522.752500", "160523.540000", "160524.327500", "160525.117500", "160525.905000", "160526.692500", "160527.480000", "160528.270000", "160529.057500", "160529.845000", "160530.632500", "160531.422500", "160532.210000", "160532.997500", "160533.785000", "160534.575000", "160535.362500", "160536.150000", "160536.940000", "160537.727500", "160538.515000", "160539.302500", "160540.092500", "160540.880000", "160541.667500", "160542.455000", "160543.245000", "160544.032500", "160544.820000", "160545.607500", "160546.397500", "160547.185000", "160547.972500", "160548.760000", "160549.550000", "160550.337500", "160551.125000", "160551.912500", "160552.702500", "160553.490000", "160554.277500", "160555.067500", "160555.855000", "160556.642500", "160557.430000", "160558.220000", "160559.007500", "160559.795000", "160600.582500", "160601.372500", "160602.160000", "160602.947500", "160603.735000", "160604.525000", "160605.312500", "160606.100000", "160606.887500", "160607.677500", "160608.465000", "160609.252500", "160610.040000", "160610.830000", "160611.617500", "160612.405000", "160613.195000", "160613.982500", "160614.770000", "160615.557500", "160616.347500", "160617.135000", "160617.922500", "160618.710000", "160619.500000", "160620.287500", "160621.075000", "160621.862500", "160622.652500", "160623.440000", "160624.227500", "160625.015000", "160625.805000", "160626.592500", "160627.380000", "160628.167500", "160628.957500", "160629.745000", "160630.532500", "160631.322500", "160632.110000", "160632.897500", "160633.685000", "160634.475000", "160635.262500", "160636.050000", "160636.837500", "160637.627500", "160638.415000", "160639.202500", "160639.990000", "160640.780000", "160641.567500", "160642.355000", "160643.142500", "160643.932500", "160644.720000", "160645.507500", "160646.295000", "160647.085000", "160647.872500", "160648.660000", "160649.450000", "160650.237500", "160651.025000", "160651.812500", "160652.602500", "160653.390000", "160654.177500", "160654.965000", "160655.755000", "160656.542500", "160657.330000", "160658.117500", "160658.907500", "160659.695000", "160700.482500", "160701.270000", "160702.060000", "160702.847500", "160703.635000", "160704.422500", "160705.212500", "160706.000000", "160706.787500", "160707.577500", "160708.365000", "160709.152500", "160709.940000", "160710.730000", "160711.517500", "160712.305000", "160713.092500", "160713.882500", "160714.670000", "160715.457500", "160716.245000", "160717.035000", "160717.822500", "160718.610000", "160719.397500", "160720.187500", "160720.975000", "160721.762500", "160722.550000", "160723.340000", "160724.127500", "160724.915000", "160725.705000", "160726.492500", "160727.280000", "160728.067500", "160728.857500", "160729.645000", "160730.432500", "160731.220000", "160732.010000", "160732.797500", "160733.585000", "160734.372500", "160735.162500", "160735.950000", "160736.737500", "160737.525000", "160738.315000", "160739.102500", "160739.890000", "160740.677500", "160741.467500", "160742.255000", "160743.042500", "160743.832500", "160744.620000", "160745.407500", "160746.195000", "160746.985000", "160747.772500", "160748.560000", "160749.347500", "160750.137500", "160750.925000", "160751.712500", "160752.500000", "160753.290000", "160754.077500", "160754.865000", "160755.652500", "160756.442500", "160757.230000", "160758.017500", "160758.807500", "160759.595000", "160800.382500", "160801.170000", "160801.960000", "160802.747500", "160803.535000", "160804.322500", "160805.112500", "160805.900000", "160806.687500", "160807.475000", "160808.265000", "160809.052500", "160809.840000", "160810.627500", "160811.417500", "160812.205000", "160812.992500", "160813.780000", "160814.570000", "160815.357500", "160816.145000", "160816.935000", "160817.722500", "160818.510000", "160819.297500", "160820.087500", "160820.875000", "160821.662500", "160822.450000", "160823.240000", "160824.027500", "160824.815000", "160825.602500", "160826.392500", "160827.180000", "160827.967500", "160828.755000", "160829.545000", "160830.332500", "160831.120000", "160831.907500", "160832.697500", "160833.485000", "160834.272500", "160835.062500", "160835.850000", "160836.637500", "160837.425000", "160838.215000", "160839.002500", "160839.790000", "160840.577500", "160841.367500", "160842.155000", "160842.942500", "160843.730000", "160844.520000", "160845.307500", "160846.095000", "160846.882500", "160847.672500", "160848.460000", "160849.247500", "160850.035000", "160850.825000", "160851.612500", "160852.400000", "160853.190000", "160853.977500", "160854.765000", "160855.552500", "160856.342500", "160857.130000", "160857.917500", "160858.705000", "160859.495000", "160900.282500", "160901.070000", "160901.857500", "160902.647500", "160903.435000", "160904.222500", "160905.010000", "160905.800000", "160906.587500", "160907.375000", "160908.162500", "160908.952500", "160909.740000", "160910.527500", "160911.317500", "160912.105000", "160912.892500", "160913.680000", "160914.470000", "160915.257500", "160916.045000", "160916.832500", "160917.622500", "160918.410000", "160919.197500", "160919.985000", "160920.775000", "160921.562500", "160922.350000", "160923.137500", "160923.927500", "160924.715000", "160925.502500", "160926.290000", "160927.080000", "160927.867500", "160928.655000", "160929.445000", "160930.232500", "160931.020000", "160931.807500", "160932.597500", "160933.385000", "160934.172500", "160934.960000", "160935.750000", "160936.537500", "160937.325000", "160938.112500", "160938.902500", "160939.690000", "160940.477500", "160941.265000", "160942.055000", "160942.842500", "160943.630000", "160944.417500", "160945.207500", "160945.995000", "160946.782500", "160947.572500", "160948.360000", "160949.147500", "160949.935000", "160950.725000", "160951.512500", "160952.300000", "160953.087500", "160953.877500", "160954.665000", "160955.452500", "160956.240000", "160957.030000", "160957.817500", "160958.605000", "160959.392500", "161000.182500", "161000.970000", "161001.757500", "161002.545000", "161003.335000", "161004.122500", "161004.910000", "161005.700000", "161006.487500", "161007.275000", "161008.062500", "161008.852500", "161009.640000", "161010.427500", "161011.215000", "161012.005000", "161012.792500", "161013.580000", "161014.367500", "161015.157500", "161015.945000", "161016.732500", "161017.520000", "161018.310000", "161019.097500", "161019.885000", "161020.672500", "161021.462500", "161022.250000", "161023.037500", "161023.827500", "161024.615000", "161025.402500", "161026.190000", "161026.980000", "161027.767500", "161028.555000", "161029.342500", "161030.132500", "161030.920000", "161031.707500", "161032.495000", "161033.285000", "161034.072500", "161034.860000", "161035.647500", "161036.437500", "161037.225000", "161038.012500", "161038.800000", "161039.590000", "161040.377500", "161041.165000", "161041.955000", "161042.742500", "161043.530000", "161044.317500", "161045.107500", "161045.895000", "161046.682500", "161047.470000", "161048.260000", "161049.047500", "161049.835000", "161050.622500", "161051.412500", "161052.200000", "161052.987500", "161053.775000", "161054.565000", "161055.352500", "161056.140000", "161056.927500", "161057.717500", "161058.505000", "161059.292500", "161100.082500", "161100.870000", "161101.657500", "161102.445000", "161103.235000", "161104.022500", "161104.810000", "161105.597500", "161106.387500", "161107.175000", "161107.962500", "161108.750000", "161109.540000", "161110.327500", "161111.115000", "161111.902500", "161112.692500", "161113.480000", "161114.267500", "161115.057500", "161115.845000", "161116.632500", "161117.420000", "161118.210000", "161118.997500", "161119.785000", "161120.572500", "161121.362500", "161122.150000", "161122.937500", "161123.725000", "161124.515000", "161125.302500", "161126.090000", "161126.877500", "161127.667500", "161128.455000", "161129.242500", "161130.030000", "161130.820000", "161131.607500", "161132.395000", "161133.185000", "161133.972500", "161134.760000", "161135.547500", "161136.337500", "161137.125000", "161137.912500", "161138.700000", "161139.490000", "161140.277500", "161141.065000", "161141.852500", "161142.642500", "161143.430000", "161144.217500", "161145.005000", "161145.795000", "161146.582500", "161147.370000", "161148.157500", "161148.947500", "161149.735000", "161150.522500", "161151.312500", "161152.100000", "161152.887500", "161153.675000", "161154.465000", "161155.252500", "161156.040000", "161156.827500", "161157.617500", "161158.405000", "161159.192500", "161159.980000", "161200.770000", "161201.557500", "161202.345000", "161203.132500", "161203.922500", "161204.710000", "161205.497500", "161206.285000", "161207.075000", "161207.862500", "161208.650000", "161209.440000", "161210.227500", "161211.015000", "161211.802500", "161212.592500", "161213.380000", "161214.167500", "161214.955000", "161215.745000", "161216.532500", "161217.320000", "161218.107500", "161218.897500", "161219.685000", "161220.472500", "161221.260000", "161222.050000", "161222.837500", "161223.625000", "161224.412500", "161225.202500", "161225.990000", "161226.777500", "161227.567500", "161228.355000", "161229.142500", "161229.930000", "161230.720000", "161231.507500", "161232.295000", "161233.082500", "161233.872500", "161234.660000", "161235.447500", "161236.235000", "161237.025000", "161237.812500", "161238.600000", "161239.387500", "161240.177500", "161240.965000", "161241.752500", "161242.540000", "161243.330000", "161244.117500", "161244.905000", "161245.695000", "161246.482500", "161247.270000", "161248.057500", "161248.847500"],
      "ContentTime": ["170156.921000", "170156.921000", "170156.921000", "170156.921000", "170216.890000", "170216.906000", "170216.906000", "170216.906000", "170216.906000", "170216.906000", "170216.906000", "170216.906000", "170216.921000", "170316.890000", "170316.906000", "170316.906000", "170316.906000", "170316.906000", "170316.906000", "170316.906000", "170316.906000", "170316.921000", "170316.921000", "170316.921000", "170316.921000", "170316.921000", "170316.921000", "170316.921000", "170316.937000", "170316.937000", "170316.937000", "170316.937000", "170316.937000", "170316.937000", "170316.937000", "170316.953000", "170316.953000", "170316.953000", "170316.953000", "170316.953000", "170316.953000", "170416.890000", "170416.906000", "170416.906000", "170416.906000", "170416.906000", "170416.906000", "170416.906000", "170416.906000", "170416.921000", "170416.921000", "170416.921000", "170416.921000", "170416.921000", "170416.921000", "170416.921000", "170416.937000", "170416.937000", "170416.937000", "170416.937000", "170416.937000", "170416.937000", "170416.937000", "170416.953000", "170416.953000", "170416.953000", "170416.953000", "170416.953000", "170416.953000", "170516.890000", "170516.906000", "170516.906000", "170516.906000", "170516.906000", "170516.906000", "170516.906000", "170516.906000", "170516.921000", "170516.921000", "170516.921000", "170516.921000", "170516.921000", "170516.921000", "170516.921000", "170516.937000", "170516.937000", "170516.937000", "170516.937000", "170516.937000", "170516.937000", "170516.937000", "170516.953000", "170516.953000", "170516.953000", "170516.953000", "170516.953000", "170516.953000", "170616.890000", "170616.906000", "170616.906000", "170616.906000", "170616.906000", "170616.906000", "170616.906000", "170616.906000", "170616.921000", "170616.921000", "170616.921000", "170616.921000", "170616.921000", "170616.921000", "170616.921000", "170616.937000", "170616.937000", "170616.937000", "170616.937000", "170616.937000", "170616.937000", "170616.937000", "170616.953000", "170616.953000", "170616.953000", "170616.953000", "170616.953000", "170616.953000", "170716.890000", "170716.906000", "170716.906000", "170716.906000", "170716.906000", "170716.906000", "170716.906000", "170716.906000", "170716.921000", "170716.921000", "170716.921000", "170716.921000", "170716.921000", "170716.921000", "170716.921000", "170716.937000", "170716.937000", "170716.937000", "170716.937000", "170716.937000", "170716.937000", "170716.937000", "170716.953000", "170716.953000", "170716.953000", "170716.953000", "170716.953000", "170716.953000", "170816.890000", "170816.906000", "170816.906000", "170816.906000", "170816.906000", "170816.921000", "170816.921000", "170816.921000", "170816.921000", "170816.921000", "170816.937000", "170816.937000", "170816.937000", "170816.937000", "170816.937000", "170816.937000", "170816.937000", "170816.953000", "170816.953000", "170816.953000", "170816.953000", "170816.953000", "170816.953000", "170816.953000", "170816.968000", "170816.968000", "170816.968000", "170816.968000", "170916.890000", "170916.906000", "170916.906000", "170916.906000", "170916.906000", "170916.906000", "170916.906000", "170916.906000", "170916.921000", "170916.921000", "170916.921000", "170916.921000", "170916.921000", "170916.921000", "170916.921000", "170916.937000", "170916.937000", "170916.937000", "170916.937000", "170916.937000", "170916.937000", "170916.937000", "170916.953000", "170916.953000", "170916.953000", "170916.953000", "170916.968000", "170916.968000", "170916.968000", "171016.890000", "171016.906000", "171016.906000", "171016.906000", "171016.906000", "171016.906000", "171016.906000", "171016.906000", "171016.921000", "171016.921000", "171016.921000", "171016.921000", "171016.921000", "171016.921000", "171016.921000", "171016.937000", "171016.937000", "171016.937000", "171016.937000", "171016.937000", "171016.937000", "171016.937000", "171016.953000", "171016.953000", "171016.953000", "171016.953000", "171016.953000", "171016.953000", "171116.890000", "171116.906000", "171116.906000", "171116.906000", "171116.906000", "171116.906000", "171116.906000", "171116.906000", "171116.921000", "171116.921000", "171116.921000", "171116.921000", "171116.921000", "171116.921000", "171116.921000", "171116.937000", "171116.937000", "171116.937000", "171116.937000", "171116.937000", "171116.953000", "171116.953000", "171116.953000", "171116.953000", "171116.953000", "171116.953000", "171116.953000", "171116.968000", "171216.890000", "171216.906000", "171216.906000", "171216.906000", "171216.906000", "171216.906000", "171216.906000", "171216.906000", "171216.921000", "171216.921000", "171216.921000", "171216.921000", "171216.921000", "171216.921000", "171216.921000", "171216.937000", "171216.937000", "171216.937000", "171216.937000", "171216.937000", "171216.937000", "171216.953000", "171216.953000", "171216.953000", "171216.953000", "171216.953000", "171216.968000", "171216.968000", "171316.890000", "171316.906000", "171316.906000", "171316.906000", "171316.906000", "171316.906000", "171316.906000", "171316.906000", "171316.921000", "171316.921000", "171316.921000", "171316.921000", "171316.921000", "171316.937000", "171316.937000", "171316.937000", "171316.937000", "171316.937000", "171316.937000", "171316.937000", "171316.953000", "171316.953000", "171316.953000", "171316.953000", "171316.953000", "171316.953000", "171316.953000", "171316.968000", "171416.890000", "171416.906000", "171416.906000", "171416.906000", "171416.906000", "171416.906000", "171416.906000", "171416.906000", "171416.921000", "171416.921000", "171416.921000", "171416.921000", "171416.921000", "171416.921000", "171416.937000", "171416.937000", "171416.937000", "171416.937000", "171416.937000", "171416.937000", "171416.953000", "171416.953000", "171416.953000", "171416.953000", "171416.953000", "171416.953000", "171416.953000", "171416.968000", "171516.890000", "171516.906000", "171516.906000", "171516.906000", "171516.906000", "171516.906000", "171516.906000", "171516.906000", "171516.921000", "171516.921000", "171516.921000", "171516.921000", "171516.921000", "171516.937000", "171516.937000", "171516.937000", "171516.937000", "171516.937000", "171516.937000", "171516.937000", "171516.953000", "171516.953000", "171516.953000", "171516.953000", "171516.953000", "171516.953000", "171516.953000", "171516.968000", "171516.968000", "171616.890000", "171616.906000", "171616.906000", "171616.906000", "171616.906000", "171616.906000", "171616.906000", "171616.906000", "171616.921000", "171616.921000", "171616.921000", "171616.921000", "171616.921000", "171616.921000", "171616.937000", "171616.937000", "171616.937000", "171616.937000", "171616.937000", "171616.937000", "171616.953000", "171616.953000", "171616.953000", "171616.953000", "171616.953000", "171616.953000", "171616.953000", "171616.953000", "171716.890000", "171716.906000", "171716.906000", "171716.906000", "171716.906000", "171716.906000", "171716.906000", "171716.906000", "171716.921000", "171716.921000", "171716.921000", "171716.921000", "171716.921000", "171716.921000", "171716.921000", "171716.937000", "171716.937000", "171716.937000", "171716.937000", "171716.937000", "171716.937000", "171716.937000", "171716.953000", "171716.953000", "171716.953000", "171716.953000", "171716.953000", "171716.968000", "171816.890000", "171816.906000", "171816.906000", "171816.906000", "171816.906000", "171816.906000", "171816.906000", "171816.906000", "171816.921000", "171816.921000", "171816.921000", "171816.921000", "171816.921000", "171816.921000", "171816.921000", "171816.937000", "171816.937000", "171816.937000", "171816.937000", "171816.937000", "171816.937000", "171816.937000", "171816.953000", "171816.953000", "171816.953000", "171816.953000", "171816.953000", "171816.953000", "171916.890000", "171916.906000", "171916.906000", "171916.906000", "171916.906000", "171916.906000", "171916.906000", "171916.906000", "171916.921000", "171916.921000", "171916.921000", "171916.921000", "171916.921000", "171916.921000", "171916.921000", "171916.937000", "171916.937000", "171916.937000", "171916.937000", "171916.937000", "171916.937000", "171916.937000", "171916.953000", "171916.953000", "171916.953000", "171916.953000", "171916.953000", "171916.953000", "172016.890000", "172016.906000", "172016.906000", "172016.906000", "172016.906000", "172016.906000", "172016.906000", "172016.906000", "172016.921000", "172016.921000", "172016.921000", "172016.921000", "172016.921000", "172016.921000", "172016.921000", "172016.937000", "172016.937000", "172016.937000", "172016.937000", "172016.937000", "172016.937000", "172016.937000", "172016.953000", "172016.953000", "172016.953000", "172016.953000", "172016.953000", "172016.953000", "172116.890000", "172116.906000", "172116.906000", "172116.906000", "172116.906000", "172116.906000", "172116.906000", "172116.906000", "172116.921000", "172116.921000", "172116.921000", "172116.921000", "172116.921000", "172116.921000", "172116.921000", "172116.937000", "172116.937000", "172116.937000", "172116.937000", "172116.937000", "172116.937000", "172116.937000", "172116.953000", "172116.953000", "172116.953000", "172116.953000", "172116.953000", "172116.953000", "172116.953000", "172216.890000", "172216.906000", "172216.906000", "172216.906000", "172216.906000", "172216.906000", "172216.906000", "172216.906000", "172216.921000", "172216.921000", "172216.921000", "172216.921000", "172216.921000", "172216.921000", "172216.921000", "172216.937000", "172216.937000", "172216.937000", "172216.937000", "172216.937000", "172216.937000", "172216.937000", "172216.953000", "172216.953000", "172216.953000", "172216.953000", "172216.953000", "172216.953000", "172226.140000", "172226.156000", "172226.156000", "172226.156000", "172226.156000"],
