{
  "AcquisitionMatrixPE": 104,
  "AcquisitionNumber": 1,
  "AcquisitionTime": "16:48:17.712500",
  "BandwidthPerPixelPhaseEncode": 13.935,
  "BaseResolution": 104,
  "CoilString": "C:HEA;HEP",
  "ConversionSoftware": "dcm2niix",
  "ConversionSoftwareVersion": "v1.0.20210317",
  "DerivedVendorReportedEchoSpacing": 0.000690017,
  "DeviceSerialNumber": "35450",
  "DwellTime": 2.5e-06,
  "EchoTime": 0.0348,
  "EffectiveEchoSpacing": 0.000690017,
  "FlipAngle": 55,
  "ImageComments": "Unaliased MB8/PE3 (remote)",
  "ImageOrientationPatientDICOM": [1, 0, 0, 0, 0.996345, -0.0854169],
  "ImageType": [
    "ORIGINAL",
    "PRIMARY",
    "M",
    "MB",
    "ND",
    "MOSAIC"
],
  "ImagingFrequency": 123.235,
  "InPlanePhaseEncodingDirectionDICOM": "COL",
  "InstitutionAddress": "Univeristy Ave. 197,Newark,North East,US,07102-1814",
  "InstitutionName": "RUBIC",
  "InstitutionalDepartmentName": "Department",
  "MRAcquisitionType": "2D",
  "MagneticFieldStrength": 3,
  "Manufacturer": "Siemens",
  "ManufacturersModelName": "TrioTim",
  "Modality": "MR",
  "MultibandAccelerationFactor": 8,
  "PartialFourier": 0.875,
  "PatientPosition": "HFS",
  "PercentPhaseFOV": 100,
  "PercentSampling": 100,
  "PhaseEncodingDirection": "j-",
  "PhaseEncodingSteps": 91,
  "PhaseResolution": 1,
  "PixelBandwidth": 1923,
  "ProcedureStepDescription": "Cole^Michael",
  "ProtocolName": "cmrr_mbep2d_bold_2mm_MB8_Task_8x",
  "PulseSequenceDetails": "%CustomerSeq%\\cmrr_mbep2d_bold",
  "ReceiveCoilName": "32Ch_Head",
  "ReconMatrixPE": 104,
  "RepetitionTime": 0.785,
  "SAR": 0.141337,
  "ScanOptions": "PFP\\FS",
  "ScanningSequence": "EP",
  "SequenceName": "epfid2d1_104",
  "SequenceVariant": "SK\\SS",
  "SeriesDescription": "cmrr_mbep2d_bold_2mm_MB8_Task_8x",
  "SeriesNumber": 25,
  "ShimSetting": [2111, -294, -7386, 715, -13, 196, -242, -2],
  "SliceThickness": 2,
  "SliceTiming": [0, 0.4375, 0.0875, 0.525, 0.175, 0.6125, 0.2625, 0.7, 0.35, 0, 0.4375, 0.0875, 0.525, 0.175, 0.6125, 0.2625, 0.7, 0.35, 0, 0.4375, 0.0875, 0.525, 0.175, 0.6125, 0.2625, 0.7, 0.35, 0, 0.4375, 0.0875, 0.525, 0.175, 0.6125, 0.2625, 0.7, 0.35, 0, 0.4375, 0.0875, 0.525, 0.175, 0.6125, 0.2625, 0.7, 0.35, 0, 0.4375, 0.0875, 0.525, 0.175, 0.6125, 0.2625, 0.7, 0.35, 0, 0.4375, 0.0875, 0.525, 0.175, 0.6125, 0.2625, 0.7, 0.35, 0, 0.4375, 0.0875, 0.525, 0.175, 0.6125, 0.2625, 0.7, 0.35],
  "SoftwareVersions": "syngo MR B19",
  "SpacingBetweenSlices": 2,
  "StationName": "MRC35450",
  "TaskName": "cpro",
  "TotalReadoutTime": 0.0710717,
  "TxRefAmp": 382.266,
  "dcmmeta_affine": [
    [-2.0, 0.0, 0.0, 105.3559341430664],
    [0.0, 1.9926905632019043, -0.17083384096622467, -70.197998046875],
    [0.0, 0.17083384096622467, 1.9926905632019043, -107.13838958740234],
    [0.0, 0.0, 0.0, 1.0]
],
  "dcmmeta_reorient_transform": [
    [0.0, -1.0, 0.0, 103.0],
    [1.0, 0.0, 0.0, 0.0],
    [0.0, 0.0, 1.0, 0.0],
    [0.0, 0.0, 0.0, 1.0]
],
  "dcmmeta_shape": [104, 104, 72, 581],
  "dcmmeta_slice_dim": 2,
  "dcmmeta_version": 0.6,
  "global": {
    "const": {
      "AcquisitionMatrix": [104, 0, 0, 104],
      "AngioFlag": "N",
      "BitsAllocated": 16,
      "BitsStored": 12,
      "Columns": 936,
      "EchoNumbers": 1,
      "EchoTime": 34.8,
      "EchoTrainLength": 1,
      "FlipAngle": 55.0,
      "HighBit": 11,
      "ImageOrientationPatient": [1.0, 0.0, 0.0, 0.0, 0.99634529631223, -0.0854169217223],
      "ImagePositionPatient": [-937.35593223572, -964.00841945518, -18.47562644131],
      "ImageType": [
        "ORIGINAL",
        "PRIMARY",
        "M",
        "MB",
        "ND",
        "MOSAIC"
],
      "ImagedNucleus": "1H",
      "ImagingFrequency": 123.234545,
      "InPlanePhaseEncodingDirection": "COL",
      "MRAcquisitionType": "2D",
      "MagneticFieldStrength": 3.0,
      "Manufacturer": "SIEMENS",
      "ManufacturerModelName": "TrioTim",
      "Modality": "MR",
      "NumberOfAverages": 1.0,
      "NumberOfPhaseEncodingSteps": 91,
      "PercentPhaseFieldOfView": 100.0,
      "PercentSampling": 100.0,
      "PerformedProcedureStepStartTime": "150639.843000",
      "PhotometricInterpretation": "MONOCHROME2",
      "PixelBandwidth": 1923.0,
      "PixelRepresentation": 0,
      "PixelSpacing": [2.0, 2.0],
      "ProtocolName": "cmrr_mbep2d_bold_2mm_MB8_Task_8x",
      "RepetitionTime": 785.0,
      "Rows": 936,
      "SAR": 0.14133655061537,
      "SamplesPerPixel": 1,
      "ScanOptions": [
        "PFP",
        "FS"
],
      "ScanningSequence": "EP",
      "SequenceName": "epfid2d1_104",
      "SequenceVariant": [
        "SK",
        "SS"
],
      "SeriesDescription": "cmrr_mbep2d_bold_2mm_MB8_Task_8x",
      "SeriesNumber": 25,
      "SeriesTime": "164846.187000",
      "SliceLocation": -100.75073520542,
      "SliceThickness": 2.0,
      "SmallestImagePixelValue": 0,
      "SoftwareVersions": "syngo MR B19",
      "SpacingBetweenSlices": 1.9999999650905,
      "SpecificCharacterSet": "ISO_IR 100",
      "StudyID": "1",
      "StudyTime": "150639.812000",
      "TransmitCoilName": "Body",
      "VariableFlipAngleFlag": "N",
      "WindowCenterWidthExplanation": "Algo1",
      "dBdt": 0.0},
    "slices": {}
  },
  "time": {
    "samples": {
      "AcquisitionNumber": [1, 2, 3, 4, 5, 6, 7, 8, 9, 10, 11, 12, 13, 14, 15, 16, 17, 18, 19, 20, 21, 22, 23, 24, 25, 26, 27, 28, 29, 30, 31, 32, 33, 34, 35, 36, 37, 38, 39, 40, 41, 42, 43, 44, 45, 46, 47, 48, 49, 50, 51, 52, 53, 54, 55, 56, 57, 58, 59, 60, 61, 62, 63, 64, 65, 66, 67, 68, 69, 70, 71, 72, 73, 74, 75, 76, 77, 78, 79, 80, 81, 82, 83, 84, 85, 86, 87, 88, 89, 90, 91, 92, 93, 94, 95, 96, 97, 98, 99, 100, 101, 102, 103, 104, 105, 106, 107, 108, 109, 110, 111, 112, 113, 114, 115, 116, 117, 118, 119, 120, 121, 122, 123, 124, 125, 126, 127, 128, 129, 130, 131, 132, 133, 134, 135, 136, 137, 138, 139, 140, 141, 142, 143, 144, 145, 146, 147, 148, 149, 150, 151, 152, 153, 154, 155, 156, 157, 158, 159, 160, 161, 162, 163, 164, 165, 166, 167, 168, 169, 170, 171, 172, 173, 174, 175, 176, 177, 178, 179, 180, 181, 182, 183, 184, 185, 186, 187, 188, 189, 190, 191, 192, 193, 194, 195, 196, 197, 198, 199, 200, 201, 202, 203, 204, 205, 206, 207, 208, 209, 210, 211, 212, 213, 214, 215, 216, 217, 218, 219, 220, 221, 222, 223, 224, 225, 226, 227, 228, 229, 230, 231, 232, 233, 234, 235, 236, 237, 238, 239, 240, 241, 242, 243, 244, 245, 246, 247, 248, 249, 250, 251, 252, 253, 254, 255, 256, 257, 258, 259, 260, 261, 262, 263, 264, 265, 266, 267, 268, 269, 270, 271, 272, 273, 274, 275, 276, 277, 278, 279, 280, 281, 282, 283, 284, 285, 286, 287, 288, 289, 290, 291, 292, 293, 294, 295, 296, 297, 298, 299, 300, 301, 302, 303, 304, 305, 306, 307, 308, 309, 310, 311, 312, 313, 314, 315, 316, 317, 318, 319, 320, 321, 322, 323, 324, 325, 326, 327, 328, 329, 330, 331, 332, 333, 334, 335, 336, 337, 338, 339, 340, 341, 342, 343, 344, 345, 346, 347, 348, 349, 350, 351, 352, 353, 354, 355, 356, 357, 358, 359, 360, 361, 362, 363, 364, 365, 366, 367, 368, 369, 370, 371, 372, 373, 374, 375, 376, 377, 378, 379, 380, 381, 382, 383, 384, 385, 386, 387, 388, 389, 390, 391, 392, 393, 394, 395, 396, 397, 398, 399, 400, 401, 402, 403, 404, 405, 406, 407, 408, 409, 410, 411, 412, 413, 414, 415, 416, 417, 418, 419, 420, 421, 422, 423, 424, 425, 426, 427, 428, 429, 430, 431, 432, 433, 434, 435, 436, 437, 438, 439, 440, 441, 442, 443, 444, 445, 446, 447, 448, 449, 450, 451, 452, 453, 454, 455, 456, 457, 458, 459, 460, 461, 462, 463, 464, 465, 466, 467, 468, 469, 470, 471, 472, 473, 474, 475, 476, 477, 478, 479, 480, 481, 482, 483, 484, 485, 486, 487, 488, 489, 490, 491, 492, 493, 494, 495, 496, 497, 498, 499, 500, 501, 502, 503, 504, 505, 506, 507, 508, 509, 510, 511, 512, 513, 514, 515, 516, 517, 518, 519, 520, 521, 522, 523, 524, 525, 526, 527, 528, 529, 530, 531, 532, 533, 534, 535, 536, 537, 538, 539, 540, 541, 542, 543, 544, 545, 546, 547, 548, 549, 550, 551, 552, 553, 554, 555, 556, 557, 558, 559, 560, 561, 562, 563, 564, 565, 566, 567, 568, 569, 570, 571, 572, 573, 574, 575, 576, 577, 578, 579, 580, 581],
      "AcquisitionTime": ["164817.712500", "164818.500000", "164819.287500", "164820.077500", "164820.865000", "164821.652500", "164822.440000", "164823.230000", "164824.017500", "164824.805000", "164825.592500", "164826.382500", "164827.170000", "164827.957500", "164828.745000", "164829.535000", "164830.322500", "164831.110000", "164831.897500", "164832.687500", "164833.475000", "164834.262500", "164835.052500", "164835.840000", "164836.627500", "164837.415000", "164838.205000", "164838.992500", "164839.780000", "164840.567500", "164841.357500", "164842.145000", "164842.932500", "164843.720000", "164844.510000", "164845.297500", "164846.085000", "164846.872500", "164847.662500", "164848.450000", "164849.237500", "164850.027500", "164850.815000", "164851.602500", "164852.390000", "164853.180000", "164853.967500", "164854.755000", "164855.542500", "164856.332500", "164857.120000", "164857.907500", "164858.695000", "164859.485000", "164900.272500", "164901.060000", "164901.847500", "164902.637500", "164903.425000", "164904.212500", "164905.000000", "164905.790000", "164906.577500", "164907.365000", "164908.155000", "164908.942500", "164909.730000", "164910.517500", "164911.307500", "164912.095000", "164912.882500", "164913.670000", "164914.460000", "164915.247500", "164916.035000", "164916.822500", "164917.612500", "164918.400000", "164919.187500", "164919.975000", "164920.765000", "164921.552500", "164922.340000", "164923.127500", "164923.917500", "164924.705000", "164925.492500", "164926.282500", "164927.070000", "164927.857500", "164928.645000", "164929.435000", "164930.222500", "164931.010000", "164931.797500", "164932.587500", "164933.375000", "164934.162500", "164934.950000", "164935.740000", "164936.527500", "164937.315000", "164938.102500", "164938.892500", "164939.680000", "164940.467500", "164941.255000", "164942.045000", "164942.832500", "164943.620000", "164944.410000", "164945.197500", "164945.985000", "164946.772500", "164947.562500", "164948.350000", "164949.137500", "164949.925000", "164950.715000", "164951.502500", "164952.290000", "164953.077500", "164953.867500", "164954.655000", "164955.442500", "164956.230000", "164957.020000", "164957.807500", "164958.595000", "164959.382500", "165000.172500", "165000.960000", "165001.747500", "165002.537500", "165003.325000", "165004.112500", "165004.900000", "165005.690000", "165006.477500", "165007.265000", "165008.052500", "165008.842500", "165009.630000", "165010.417500", "165011.205000", "165011.995000", "165012.782500", "165013.570000", "165014.357500", "165015.147500", "165015.935000", "165016.722500", "165017.510000", "165018.300000", "165019.087500", "165019.875000", "165020.665000", "165021.452500", "165022.240000", "165023.027500", "165023.817500", "165024.605000", "165025.392500", "165026.180000", "165026.970000", "165027.757500", "165028.545000", "165029.332500", "165030.122500", "165030.910000", "165031.697500", "165032.485000", "165033.275000", "165034.062500", "165034.850000", "165035.637500", "165036.427500", "165037.215000", "165038.002500", "165038.792500", "165039.580000", "165040.367500", "165041.155000", "165041.945000", "165042.732500", "165043.520000", "165044.307500", "165045.097500", "165045.885000", "165046.672500", "165047.460000", "165048.250000", "165049.037500", "165049.825000", "165050.612500", "165051.402500", "165052.190000", "165052.977500", "165053.765000", "165054.555000", "165055.342500", "165056.130000", "165056.920000", "165057.707500", "165058.495000", "165059.282500", "165100.072500", "165100.860000", "165101.647500", "165102.435000", "165103.225000", "165104.012500", "165104.800000", "165105.587500", "165106.377500", "165107.165000", "165107.952500", "165108.740000", "165109.530000", "165110.317500", "165111.105000", "165111.892500", "165112.682500", "165113.470000", "165114.257500", "165115.047500", "165115.835000", "165116.622500", "165117.410000", "165118.200000", "165118.987500", "165119.775000", "165120.562500", "165121.352500", "165122.140000", "165122.927500", "165123.715000", "165124.505000", "165125.292500", "165126.080000", "165126.867500", "165127.657500", "165128.445000", "165129.232500", "165130.020000", "165130.810000", "165131.597500", "165132.385000", "165133.175000", "165133.962500", "165134.750000", "165135.537500", "165136.327500", "165137.115000", "165137.902500", "165138.690000", "165139.480000", "165140.267500", "165141.055000", "165141.842500", "165142.632500", "165143.420000", "165144.207500", "165144.995000", "165145.785000", "165146.572500", "165147.360000", "165148.147500", "165148.937500", "165149.725000", "165150.512500", "165151.302500", "165152.090000", "165152.877500", "165153.665000", "165154.455000", "165155.242500", "165156.030000", "165156.817500", "165157.607500", "165158.395000", "165159.182500", "165159.970000", "165200.760000", "165201.547500", "165202.335000", "165203.122500", "165203.912500", "165204.700000", "165205.487500", "165206.277500", "165207.065000", "165207.852500", "165208.640000", "165209.430000", "165210.217500", "165211.005000", "165211.792500", "165212.582500", "165213.370000", "165214.157500", "165214.945000", "165215.735000", "165216.522500", "165217.310000", "165218.097500", "165218.887500", "165219.675000", "165220.462500", "165221.250000", "165222.040000", "165222.827500", "165223.615000", "165224.405000", "165225.192500", "165225.980000", "165226.767500", "165227.557500", "165228.345000", "165229.132500", "165229.920000", "165230.710000", "165231.497500", "165232.285000", "165233.072500", "165233.862500", "165234.650000", "165235.437500", "165236.225000", "165237.015000", "165237.802500", "165238.590000", "165239.377500", "165240.167500", "165240.955000", "165241.742500", "165242.532500", "165243.320000", "165244.107500", "165244.895000", "165245.685000", "165246.472500", "165247.260000", "165248.047500", "165248.837500", "165249.625000", "165250.412500", "165251.200000", "165251.990000", "165252.777500", "165253.565000", "165254.352500", "165255.142500", "165255.930000", "165256.717500", "165257.505000", "165258.295000", "165259.082500", "165259.870000", "165300.660000", "165301.447500", "165302.235000", "165303.022500", "165303.812500", "165304.600000", "165305.387500", "165306.175000", "165306.965000", "165307.752500", "165308.540000", "165309.327500", "165310.117500", "165310.905000", "165311.692500", "165312.480000", "165313.270000", "165314.057500", "165314.845000", "165315.632500", "165316.422500", "165317.210000", "165317.997500", "165318.787500", "165319.575000", "165320.362500", "165321.150000", "165321.940000", "165322.727500", "165323.515000", "165324.302500", "165325.092500", "165325.880000", "165326.667500", "165327.455000", "165328.245000", "165329.032500", "165329.820000", "165330.607500", "165331.397500", "165332.185000", "165332.972500", "165333.760000", "165334.550000", "165335.337500", "165336.125000", "165336.915000", "165337.702500", "165338.490000", "165339.277500", "165340.067500", "165340.855000", "165341.642500", "165342.430000", "165343.220000", "165344.007500", "165344.795000", "165345.582500", "165346.372500", "165347.160000", "165347.947500", "165348.735000", "165349.525000", "165350.312500", "165351.100000", "165351.887500", "165352.677500", "165353.465000", "165354.252500", "165355.042500", "165355.830000", "165356.617500", "165357.405000", "165358.195000", "165358.982500", "165359.770000", "165400.557500", "165401.347500", "165402.135000", "165402.922500", "165403.710000", "165404.500000", "165405.287500", "165406.075000", "165406.862500", "165407.652500", "165408.440000", "165409.227500", "165410.015000", "165410.805000", "165411.592500", "165412.380000", "165413.170000", "165413.957500", "165414.745000", "165415.532500", "165416.322500", "165417.110000", "165417.897500", "165418.685000", "165419.475000", "165420.262500", "165421.050000", "165421.837500", "165422.627500", "165423.415000", "165424.202500", "165424.990000", "165425.780000", "165426.567500", "165427.355000", "165428.142500", "165428.932500", "165429.720000", "165430.507500", "165431.297500", "165432.085000", "165432.872500", "165433.660000", "165434.450000", "165435.237500", "165436.025000", "165436.812500", "165437.602500", "165438.390000", "165439.177500", "165439.965000", "165440.755000", "165441.542500", "165442.330000", "165443.117500", "165443.907500", "165444.695000", "165445.482500", "165446.270000", "165447.060000", "165447.847500", "165448.635000", "165449.425000", "165450.212500", "165451.000000", "165451.787500", "165452.577500", "165453.365000", "165454.152500", "165454.940000", "165455.730000", "165456.517500", "165457.305000", "165458.092500", "165458.882500", "165459.670000", "165500.457500", "165501.245000", "165502.035000", "165502.822500", "165503.610000", "165504.397500", "165505.187500", "165505.975000", "165506.762500", "165507.552500", "165508.340000", "165509.127500", "165509.915000", "165510.705000", "165511.492500", "165512.280000", "165513.067500", "165513.857500", "165514.645000", "165515.432500", "165516.220000", "165517.010000", "165517.797500", "165518.585000", "165519.372500", "165520.162500", "165520.950000", "165521.737500", "165522.527500", "165523.315000", "165524.102500", "165524.890000", "165525.680000", "165526.467500", "165527.255000", "165528.042500", "165528.832500", "165529.620000", "165530.407500", "165531.195000", "165531.985000", "165532.772500", "165533.560000", "165534.347500", "165535.137500", "165535.925000", "165536.712500", "165537.500000", "165538.290000", "165539.077500", "165539.865000", "165540.655000", "165541.442500", "165542.230000", "165543.017500", "165543.807500", "165544.595000", "165545.382500", "165546.170000", "165546.960000", "165547.747500", "165548.535000", "165549.322500", "165550.112500", "165550.900000", "165551.687500", "165552.475000", "165553.265000", "165554.052500", "165554.840000"],
      "ContentTime": ["164846.187000", "164846.187000", "164846.187000", "164846.203000", "164846.203000", "164846.203000", "164846.203000", "164846.203000", "164846.203000", "164846.203000", "164846.218000", "164846.218000", "164846.218000", "164846.218000", "164846.218000", "164846.218000", "164846.234000", "164846.234000", "164846.234000", "164846.234000", "164846.234000", "164846.250000", "164846.250000", "164846.250000", "164846.250000", "164846.250000", "164846.250000", "164846.250000", "164846.265000", "164846.265000", "164846.265000", "164846.265000", "164906.156000", "164906.156000", "164906.156000", "164906.156000", "164906.171000", "164906.171000", "164906.171000", "164906.171000", "164906.171000", "164906.171000", "164906.171000", "164906.187000", "164906.187000", "164906.187000", "164906.187000", "164906.187000", "164906.187000", "164906.203000", "164906.203000", "164906.203000", "164906.203000", "164906.203000", "164906.203000", "164906.203000", "164906.218000", "164906.218000", "164926.156000", "164926.156000", "164926.156000", "164926.156000", "164926.171000", "164926.171000", "164926.171000", "164926.171000", "164926.171000", "164926.171000", "164926.171000", "164926.187000", "164926.187000", "164926.187000", "164926.187000", "164926.187000", "164926.203000", "164926.203000", "164926.203000", "164926.203000", "164926.203000", "164926.203000", "164926.203000", "164926.218000", "164926.218000", "164946.156000", "164946.156000", "164946.156000", "164946.156000", "164946.171000", "164946.171000", "164946.171000", "164946.171000", "164946.171000", "164946.171000", "164946.171000", "164946.187000", "164946.187000", "164946.187000", "164946.187000", "164946.187000", "164946.187000", "164946.187000", "164946.203000", "164946.203000", "164946.203000", "164946.203000", "164946.203000", "164946.218000", "164946.218000", "164946.218000", "165006.156000", "165006.156000", "165006.156000", "165006.156000", "165006.171000", "165006.171000", "165006.171000", "165006.171000", "165006.171000", "165006.171000", "165006.171000", "165006.187000", "165006.187000", "165006.187000", "165006.187000", "165006.187000", "165006.187000", "165006.187000", "165006.203000", "165006.203000", "165006.203000", "165006.203000", "165006.203000", "165006.203000", "165006.218000", "165026.156000", "165026.156000", "165026.156000", "165026.156000", "165026.171000", "165026.171000", "165026.171000", "165026.171000", "165026.171000", "165026.171000", "165026.187000", "165026.187000", "165026.187000", "165026.187000", "165026.187000", "165026.187000", "165026.187000", "165026.203000", "165026.203000", "165026.203000", "165026.203000", "165026.203000", "165026.203000", "165026.218000", "165026.218000", "165026.218000", "165046.156000", "165046.156000", "165046.156000", "165046.156000", "165046.171000", "165046.171000", "165046.171000", "165046.171000", "165046.171000", "165046.171000", "165046.171000", "165046.187000", "165046.187000", "165046.187000", "165046.187000", "165046.187000", "165046.187000", "165046.187000", "165046.203000", "165046.203000", "165046.203000", "165046.203000", "165046.203000", "165046.203000", "165046.203000", "165106.156000", "165106.156000", "165106.156000", "165106.156000", "165106.171000", "165106.171000", "165106.171000", "165106.171000", "165106.171000", "165106.171000", "165106.171000", "165106.187000", "165106.187000", "165106.187000", "165106.187000", "165106.187000", "165106.203000", "165106.203000", "165106.203000", "165106.203000", "165106.203000", "165106.203000", "165106.203000", "165106.218000", "165106.218000", "165126.156000", "165126.156000", "165126.156000", "165126.156000", "165126.171000", "165126.171000", "165126.171000", "165126.171000", "165126.171000", "165126.171000", "165126.187000", "165126.187000", "165126.187000", "165126.187000", "165126.187000", "165126.187000", "165126.187000", "165126.203000", "165126.203000", "165126.203000", "165126.203000", "165126.203000", "165126.203000", "165126.203000", "165126.218000", "165126.218000", "165146.156000", "165146.156000", "165146.156000", "165146.156000", "165146.171000", "165146.171000", "165146.171000", "165146.171000", "165146.171000", "165146.171000", "165146.187000", "165146.187000", "165146.187000", "165146.187000", "165146.187000", "165146.187000", "165146.203000", "165146.203000", "165146.203000", "165146.203000", "165146.203000", "165146.203000", "165146.203000", "165146.218000", "165146.218000", "165206.156000", "165206.156000", "165206.203000", "165206.203000", "165206.218000", "165206.218000", "165206.218000", "165206.218000", "165206.218000", "165206.218000", "165206.234000", "165206.234000", "165206.250000", "165206.250000", "165206.250000", "165206.250000", "165206.250000", "165206.250000", "165206.250000", "165206.265000", "165206.265000", "165206.265000", "165206.265000", "165206.265000", "165206.265000", "165206.265000", "165226.156000", "165226.156000", "165226.156000", "165226.156000", "165226.171000", "165226.171000", "165226.171000", "165226.171000", "165226.171000", "165226.171000", "165226.187000", "165226.187000", "165226.187000", "165226.187000", "165226.187000", "165226.187000", "165226.187000", "165226.203000", "165226.203000", "165226.203000", "165226.203000", "165226.203000", "165226.203000", "165226.218000", "165226.218000", "165246.156000", "165246.156000", "165246.156000", "165246.156000", "165246.171000", "165246.171000", "165246.171000", "165246.187000", "165246.187000", "165246.187000", "165246.187000", "165246.187000", "165246.187000", "165246.187000", "165246.203000", "165246.203000", "165246.203000", "165246.203000", "165246.203000", "165246.203000", "165246.203000", "165246.218000", "165246.218000", "165246.218000", "165246.218000", "165246.218000", "165306.156000", "165306.156000", "165306.156000", "165306.156000", "165306.171000", "165306.171000", "165306.171000", "165306.171000", "165306.187000", "165306.187000", "165306.187000", "165306.187000", "165306.187000", "165306.187000", "165306.187000", "165306.203000", "165306.203000", "165306.203000", "165306.203000", "165306.203000", "165306.203000", "165306.203000", "165306.218000", "165306.218000", "165306.218000", "165326.156000", "165326.156000", "165326.203000", "165326.203000", "165326.218000", "165326.218000", "165326.218000", "165326.218000", "165326.218000", "165326.218000", "165326.234000", "165326.234000", "165326.234000", "165326.234000", "165326.234000", "165326.250000", "165326.250000", "165326.250000", "165326.250000", "165326.250000", "165326.250000", "165326.265000", "165326.265000", "165326.265000", "165326.265000", "165326.265000", "165346.156000", "165346.156000", "165346.156000", "165346.156000", "165346.171000", "165346.171000", "165346.187000", "165346.187000", "165346.187000", "165346.187000", "165346.187000", "165346.187000", "165346.187000", "165346.203000", "165346.203000", "165346.203000", "165346.203000", "165346.203000", "165346.218000", "165346.218000", "165346.218000", "165346.218000", "165346.218000", "165346.218000", "165346.218000", "165406.156000", "165406.156000", "165406.171000", "165406.171000", "165406.171000", "165406.171000", "165406.171000", "165406.171000", "165406.187000", "165406.187000", "165406.187000", "165406.187000", "165406.187000", "165406.187000", "165406.203000", "165406.203000", "165406.203000", "165406.203000", "165406.203000", "165406.203000", "165406.203000", "165406.218000", "165406.218000", "165406.218000", "165406.218000", "165406.218000", "165426.156000", "165426.156000", "165426.156000", "165426.156000", "165426.171000", "165426.171000", "165426.171000", "165426.171000", "165426.171000", "165426.187000", "165426.187000", "165426.187000", "165426.187000", "165426.187000", "165426.187000", "165426.187000", "165426.203000", "165426.203000", "165426.203000", "165426.203000", "165426.203000", "165426.203000", "165426.203000", "165426.218000", "165426.218000", "165446.156000", "165446.156000", "165446.203000", "165446.218000", "165446.218000", "165446.218000", "165446.218000", "165446.218000", "165446.218000", "165446.234000", "165446.234000", "165446.234000", "165446.234000", "165446.234000", "165446.234000", "165446.234000", "165446.250000", "165446.250000", "165446.250000", "165446.250000", "165446.250000", "165446.250000", "165446.250000", "165446.265000", "165446.265000", "165446.265000", "165506.156000", "165506.156000", "165506.156000", "165506.156000", "165506.171000", "165506.171000", "165506.171000", "165506.171000", "165506.171000", "165506.171000", "165506.171000", "165506.187000", "165506.187000", "165506.187000", "165506.187000", "165506.187000", "165506.187000", "165506.203000", "165506.203000", "165506.203000", "165506.203000", "165506.203000", "165506.203000", "165506.203000", "165506.218000", "165526.156000", "165526.156000", "165526.156000", "165526.156000", "165526.171000", "165526.171000", "165526.171000", "165526.171000", "165526.171000", "165526.187000", "165526.187000", "165526.187000", "165526.187000", "165526.187000", "165526.187000", "165526.203000", "165526.203000", "165526.203000", "165526.203000", "165526.203000", "165526.203000", "165526.203000", "165526.218000", "165526.218000", "165526.218000", "165526.218000", "165546.156000", "165546.156000", "165546.156000", "165546.156000", "165546.171000", "165546.171000", "165546.171000", "165546.171000", "165546.171000", "165546.171000", "165546.171000", "165546.187000", "165546.187000", "165546.187000", "165546.187000", "165546.187000", "165546.187000", "165546.203000", "165546.203000", "165546.203000", "165546.203000", "165546.203000", "165546.203000", "165546.203000", "165546.218000", "165556.656000", "165556.656000", "165556.656000", "165556.656000", "165556.656000", "165556.656000", "165556.671000", "165556.671000", "165556.671000", "165556.671000", "165556.671000", "165556.687000", "165556.687000", "165556.687000"],
      "DataSetTrailingPadding": [
        "\u0000\u0000\u0000\u0000\u0000\u0000\u0000\u0000\u0000\u0000\u0000\u0000\u0000\u0000\u0000\u0000\u0000\u0000\u0000\u0000\u0000\u0000\u0000\u0000\u0000\u0000\u0000\u0000\u0000\u0000\u0000\u0000\u0000\u0000\u0000\u0000\u0000\u0000\u0000\u0000\u0000\u0000\u0000\u0000\u0000\u0000\u0000\u0000\u0000\u0000\u0000\u0000\u0000\u0000\u0000\u0000\u0000\u0000\u0000\u0000\u0000\u0000\u0000\u0000\u0000\u0000\u0000\u0000\u0000\u0000\u0000\u0000\u0000\u0000\u0000\u0000\u0000\u0000\u0000\u0000\u0000\u0000\u0000\u0000\u0000\u0000\u0000\u0000\u0000\u0000\u0000\u0000\u0000\u0000\u0000\u0000\u0000\u0000\u0000\u0000\u0000\u0000\u0000\u0000\u0000\u0000\u0000\u0000\u0000\u0000\u0000\u0000\u0000\u0000\u0000\u0000\u0000\u0000\u0000\u0000\u0000\u0000\u0000\u0000\u0000\u0000\u0000\u0000\u0000\u0000\u0000\u0000\u0000\u0000\u0000\u0000\u0000\u0000\u0000\u0000\u0000\u0000\u0000\u0000\u0000\u0000\u0000\u0000\u0000\u0000\u0000\u0000\u0000\u0000\u0000\u0000\u0000\u0000\u0000\u0000\u0000\u0000\u0000\u0000\u0000\u0000\u0000\u0000\u0000\u0000\u0000\u0000\u0000\u0000\u0000\u0000\u0000\u0000\u0000\u0000\u0000\u0000\u0000\u0000\u0000\u0000\u0000\u0000\u0000\u0000\u0000\u0000\u0000\u0000\u0000\u0000\u0000\u0000\u0000\u0000\u0000\u0000",
