{
  "AcquisitionMatrixPE": 104,
  "AcquisitionNumber": 1,
  "AcquisitionTime": "14:37:46.707500",
  "BandwidthPerPixelPhaseEncode": 13.935,
  "BaseResolution": 104,
  "CoilString": "C:HEA;HEP",
  "ConversionSoftware": "dcm2niix",
  "ConversionSoftwareVersion": "v1.0.20210317",
  "DerivedVendorReportedEchoSpacing": 0.000690017,
  "DeviceSerialNumber": "35450",
  "DwellTime": 2.5e-06,
  "EchoTime": 0.0348,
  "EffectiveEchoSpacing": 0.000690017,
  "FlipAngle": 55,
  "ImageComments": "Unaliased MB8/PE3 (remote)",
  "ImageOrientationPatientDICOM": [0.999854, -0.00308923, -0.0168291, 5.91495e-08, 0.983567, -0.180545],
  "ImageType": [
    "ORIGINAL",
    "PRIMARY",
    "M",
    "MB",
    "ND",
    "MOSAIC"
],
  "ImagingFrequency": 123.234,
  "InPlanePhaseEncodingDirectionDICOM": "COL",
  "InstitutionAddress": "Univeristy Ave. 197,Newark,North East,US,07102-1814",
  "InstitutionName": "RUBIC",
  "InstitutionalDepartmentName": "Department",
  "MRAcquisitionType": "2D",
  "MagneticFieldStrength": 3,
  "Manufacturer": "Siemens",
  "ManufacturersModelName": "TrioTim",
  "Modality": "MR",
  "MultibandAccelerationFactor": 8,
  "PartialFourier": 0.875,
  "PatientPosition": "HFS",
  "PercentPhaseFOV": 100,
  "PercentSampling": 100,
  "PhaseEncodingDirection": "j-",
  "PhaseEncodingSteps": 91,
  "PhaseResolution": 1,
  "PixelBandwidth": 1923,
  "ProcedureStepDescription": "Cole^Michael",
  "ProtocolName": "cmrr_mbep2d_bold_2mm_MB8_Task_8x",
  "PulseSequenceDetails": "%CustomerSeq%\\cmrr_mbep2d_bold",
  "ReceiveCoilName": "32Ch_Head",
  "ReconMatrixPE": 104,
  "RepetitionTime": 0.785,
  "SAR": 0.116451,
  "ScanOptions": "PFP\\FS",
  "ScanningSequence": "EP",
  "SequenceName": "epfid2d1_104",
  "SequenceVariant": "SK\\SS",
  "SeriesDescription": "cmrr_mbep2d_bold_2mm_MB8_Task_8x",
  "SeriesNumber": 15,
  "ShimSetting": [2109, -351, -7327, 443, -111, -414, -39, 99],
  "SliceThickness": 2,
  "SliceTiming": [0, 0.4375, 0.0875, 0.525, 0.175, 0.6125, 0.2625, 0.7, 0.35, 0, 0.4375, 0.0875, 0.525, 0.175, 0.6125, 0.2625, 0.7, 0.35, 0, 0.4375, 0.0875, 0.525, 0.175, 0.6125, 0.2625, 0.7, 0.35, 0, 0.4375, 0.0875, 0.525, 0.175, 0.6125, 0.2625, 0.7, 0.35, 0, 0.4375, 0.0875, 0.525, 0.175, 0.6125, 0.2625, 0.7, 0.35, 0, 0.4375, 0.0875, 0.525, 0.175, 0.6125, 0.2625, 0.7, 0.35, 0, 0.4375, 0.0875, 0.525, 0.175, 0.6125, 0.2625, 0.7, 0.35, 0, 0.4375, 0.0875, 0.525, 0.175, 0.6125, 0.2625, 0.7, 0.35],
  "SoftwareVersions": "syngo MR B19",
  "SpacingBetweenSlices": 2,
  "StationName": "MRC35450",
  "TaskName": "cpro",
  "TotalReadoutTime": 0.0710717,
  "TxRefAmp": 322.319,
  "dcmmeta_affine": [
    [-1.9997072219848633, 1.1829893509229805e-07, -0.03422063589096069, 106.5240707397461],
    [0.006178467068821192, 1.967133641242981, -0.3610363006591797, -72.4842300415039],
    [-0.033658262342214584, 0.36108916997909546, 1.9668456315994263, -108.79446411132812],
    [0.0, 0.0, 0.0, 1.0]
],
  "dcmmeta_reorient_transform": [
    [0.0, -1.0, 0.0, 103.0],
    [1.0, 0.0, 0.0, 0.0],
    [0.0, 0.0, 1.0, 0.0],
    [0.0, 0.0, 0.0, 1.0]
],
  "dcmmeta_shape": [104, 104, 72, 581],
  "dcmmeta_slice_dim": 2,
  "dcmmeta_version": 0.6,
  "global": {
    "const": {
      "AcquisitionMatrix": [104, 0, 0, 104],
      "AngioFlag": "N",
      "BitsAllocated": 16,
      "BitsStored": 12,
      "Columns": 936,
      "EchoNumbers": 1,
      "EchoTime": 34.8,
      "EchoTrainLength": 1,
      "FlipAngle": 55.0,
      "HighBit": 11,
      "ImageOrientationPatient": [0.9998536077852, -0.0030892334261, -0.0168291305708, 5.9149467e-08, 0.98356680241819, -0.1805445794835],
      "ImagePositionPatient": [-938.40233722254, -945.88787226768, 92.612642220196],
      "ImageType": [
        "ORIGINAL",
        "PRIMARY",
        "M",
        "MB",
        "ND",
        "MOSAIC"
],
      "ImagedNucleus": "1H",
      "ImagingFrequency": 123.234424,
      "InPlanePhaseEncodingDirection": "COL",
      "MRAcquisitionType": "2D",
      "MagneticFieldStrength": 3.0,
      "Manufacturer": "SIEMENS",
      "ManufacturerModelName": "TrioTim",
      "Modality": "MR",
      "NumberOfAverages": 1.0,
      "NumberOfPhaseEncodingSteps": 91,
      "PercentPhaseFieldOfView": 100.0,
      "PercentSampling": 100.0,
      "PerformedProcedureStepStartTime": "132052.500000",
      "PhotometricInterpretation": "MONOCHROME2",
      "PixelBandwidth": 1923.0,
      "PixelRepresentation": 0,
      "PixelSpacing": [2.0, 2.0],
      "ProtocolName": "cmrr_mbep2d_bold_2mm_MB8_Task_8x",
      "RepetitionTime": 785.0,
      "Rows": 936,
      "SAR": 0.11645063800734,
      "SamplesPerPixel": 1,
      "ScanOptions": [
        "PFP",
        "FS"
],
      "ScanningSequence": "EP",
      "SequenceName": "epfid2d1_104",
      "SequenceVariant": [
        "SK",
        "SS"
],
      "SeriesDescription": "cmrr_mbep2d_bold_2mm_MB8_Task_8x",
      "SeriesNumber": 15,
      "SeriesTime": "143820.843000",
      "SliceLocation": -95.728904523233,
      "SliceThickness": 2.0,
      "SmallestImagePixelValue": 0,
      "SoftwareVersions": "syngo MR B19",
      "SpacingBetweenSlices": 2.0000000291049,
      "SpecificCharacterSet": "ISO_IR 100",
      "StudyID": "1",
      "StudyTime": "132052.484000",
      "TransmitCoilName": "Body",
      "VariableFlipAngleFlag": "N",
      "WindowCenterWidthExplanation": "Algo1",
      "dBdt": 0.0},
    "slices": {}
  },
  "time": {
    "samples": {
      "AcquisitionNumber": [1, 2, 3, 4, 5, 6, 7, 8, 9, 10, 11, 12, 13, 14, 15, 16, 17, 18, 19, 20, 21, 22, 23, 24, 25, 26, 27, 28, 29, 30, 31, 32, 33, 34, 35, 36, 37, 38, 39, 40, 41, 42, 43, 44, 45, 46, 47, 48, 49, 50, 51, 52, 53, 54, 55, 56, 57, 58, 59, 60, 61, 62, 63, 64, 65, 66, 67, 68, 69, 70, 71, 72, 73, 74, 75, 76, 77, 78, 79, 80, 81, 82, 83, 84, 85, 86, 87, 88, 89, 90, 91, 92, 93, 94, 95, 96, 97, 98, 99, 100, 101, 102, 103, 104, 105, 106, 107, 108, 109, 110, 111, 112, 113, 114, 115, 116, 117, 118, 119, 120, 121, 122, 123, 124, 125, 126, 127, 128, 129, 130, 131, 132, 133, 134, 135, 136, 137, 138, 139, 140, 141, 142, 143, 144, 145, 146, 147, 148, 149, 150, 151, 152, 153, 154, 155, 156, 157, 158, 159, 160, 161, 162, 163, 164, 165, 166, 167, 168, 169, 170, 171, 172, 173, 174, 175, 176, 177, 178, 179, 180, 181, 182, 183, 184, 185, 186, 187, 188, 189, 190, 191, 192, 193, 194, 195, 196, 197, 198, 199, 200, 201, 202, 203, 204, 205, 206, 207, 208, 209, 210, 211, 212, 213, 214, 215, 216, 217, 218, 219, 220, 221, 222, 223, 224, 225, 226, 227, 228, 229, 230, 231, 232, 233, 234, 235, 236, 237, 238, 239, 240, 241, 242, 243, 244, 245, 246, 247, 248, 249, 250, 251, 252, 253, 254, 255, 256, 257, 258, 259, 260, 261, 262, 263, 264, 265, 266, 267, 268, 269, 270, 271, 272, 273, 274, 275, 276, 277, 278, 279, 280, 281, 282, 283, 284, 285, 286, 287, 288, 289, 290, 291, 292, 293, 294, 295, 296, 297, 298, 299, 300, 301, 302, 303, 304, 305, 306, 307, 308, 309, 310, 311, 312, 313, 314, 315, 316, 317, 318, 319, 320, 321, 322, 323, 324, 325, 326, 327, 328, 329, 330, 331, 332, 333, 334, 335, 336, 337, 338, 339, 340, 341, 342, 343, 344, 345, 346, 347, 348, 349, 350, 351, 352, 353, 354, 355, 356, 357, 358, 359, 360, 361, 362, 363, 364, 365, 366, 367, 368, 369, 370, 371, 372, 373, 374, 375, 376, 377, 378, 379, 380, 381, 382, 383, 384, 385, 386, 387, 388, 389, 390, 391, 392, 393, 394, 395, 396, 397, 398, 399, 400, 401, 402, 403, 404, 405, 406, 407, 408, 409, 410, 411, 412, 413, 414, 415, 416, 417, 418, 419, 420, 421, 422, 423, 424, 425, 426, 427, 428, 429, 430, 431, 432, 433, 434, 435, 436, 437, 438, 439, 440, 441, 442, 443, 444, 445, 446, 447, 448, 449, 450, 451, 452, 453, 454, 455, 456, 457, 458, 459, 460, 461, 462, 463, 464, 465, 466, 467, 468, 469, 470, 471, 472, 473, 474, 475, 476, 477, 478, 479, 480, 481, 482, 483, 484, 485, 486, 487, 488, 489, 490, 491, 492, 493, 494, 495, 496, 497, 498, 499, 500, 501, 502, 503, 504, 505, 506, 507, 508, 509, 510, 511, 512, 513, 514, 515, 516, 517, 518, 519, 520, 521, 522, 523, 524, 525, 526, 527, 528, 529, 530, 531, 532, 533, 534, 535, 536, 537, 538, 539, 540, 541, 542, 543, 544, 545, 546, 547, 548, 549, 550, 551, 552, 553, 554, 555, 556, 557, 558, 559, 560, 561, 562, 563, 564, 565, 566, 567, 568, 569, 570, 571, 572, 573, 574, 575, 576, 577, 578, 579, 580, 581],
      "AcquisitionTime": ["143746.707500", "143747.495000", "143748.282500", "143749.070000", "143749.860000", "143750.647500", "143751.435000", "143752.222500", "143753.012500", "143753.800000", "143754.587500", "143755.377500", "143756.165000", "143756.952500", "143757.740000", "143758.530000", "143759.317500", "143800.105000", "143800.892500", "143801.682500", "143802.470000", "143803.257500", "143804.045000", "143804.835000", "143805.622500", "143806.410000", "143807.197500", "143807.987500", "143808.775000", "143809.562500", "143810.350000", "143811.140000", "143811.927500", "143812.715000", "143813.505000", "143814.292500", "143815.080000", "143815.867500", "143816.657500", "143817.445000", "143818.232500", "143819.020000", "143819.810000", "143820.597500", "143821.385000", "143822.172500", "143822.962500", "143823.750000", "143824.537500", "143825.325000", "143826.115000", "143826.902500", "143827.690000", "143828.477500", "143829.267500", "143830.055000", "143830.842500", "143831.632500", "143832.420000", "143833.207500", "143833.995000", "143834.785000", "143835.572500", "143836.360000", "143837.147500", "143837.937500", "143838.725000", "143839.512500", "143840.300000", "143841.090000", "143841.877500", "143842.665000", "143843.452500", "143844.242500", "143845.030000", "143845.817500", "143846.605000", "143847.395000", "143848.182500", "143848.970000", "143849.760000", "143850.547500", "143851.335000", "143852.122500", "143852.912500", "143853.700000", "143854.487500", "143855.275000", "143856.065000", "143856.852500", "143857.640000", "143858.427500", "143859.217500", "143900.005000", "143900.792500", "143901.580000", "143902.370000", "143903.157500", "143903.945000", "143904.732500", "143905.522500", "143906.310000", "143907.097500", "143907.887500", "143908.675000", "143909.462500", "143910.250000", "143911.040000", "143911.827500", "143912.615000", "143913.402500", "143914.192500", "143914.980000", "143915.767500", "143916.555000", "143917.345000", "143918.132500", "143918.920000", "143919.707500", "143920.497500", "143921.285000", "143922.072500", "143922.860000", "143923.650000", "143924.437500", "143925.225000", "143926.015000", "143926.802500", "143927.590000", "143928.377500", "143929.167500", "143929.955000", "143930.742500", "143931.530000", "143932.320000", "143933.107500", "143933.895000", "143934.682500", "143935.472500", "143936.260000", "143937.047500", "143937.835000", "143938.625000", "143939.412500", "143940.200000", "143940.987500", "143941.777500", "143942.565000", "143943.352500", "143944.142500", "143944.930000", "143945.717500", "143946.505000", "143947.295000", "143948.082500", "143948.870000", "143949.657500", "143950.447500", "143951.235000", "143952.022500", "143952.810000", "143953.600000", "143954.387500", "143955.175000", "143955.962500", "143956.752500", "143957.540000", "143958.327500", "143959.115000", "143959.905000", "144000.692500", "144001.480000", "144002.270000", "144003.057500", "144003.845000", "144004.632500", "144005.422500", "144006.210000", "144006.997500", "144007.785000", "144008.575000", "144009.362500", "144010.150000", "144010.937500", "144011.727500", "144012.515000", "144013.302500", "144014.090000", "144014.880000", "144015.667500", "144016.455000", "144017.242500", "144018.032500", "144018.820000", "144019.607500", "144020.397500", "144021.185000", "144021.972500", "144022.760000", "144023.550000", "144024.337500", "144025.125000", "144025.912500", "144026.702500", "144027.490000", "144028.277500", "144029.065000", "144029.855000", "144030.642500", "144031.430000", "144032.217500", "144033.007500", "144033.795000", "144034.582500", "144035.372500", "144036.160000", "144036.947500", "144037.735000", "144038.525000", "144039.312500", "144040.100000", "144040.887500", "144041.677500", "144042.465000", "144043.252500", "144044.040000", "144044.830000", "144045.617500", "144046.405000", "144047.192500", "144047.982500", "144048.770000", "144049.557500", "144050.345000", "144051.135000", "144051.922500", "144052.710000", "144053.500000", "144054.287500", "144055.075000", "144055.862500", "144056.652500", "144057.440000", "144058.227500", "144059.015000", "144059.805000", "144100.592500", "144101.380000", "144102.167500", "144102.957500", "144103.745000", "144104.532500", "144105.320000", "144106.110000", "144106.897500", "144107.685000", "144108.472500", "144109.262500", "144110.050000", "144110.837500", "144111.627500", "144112.415000", "144113.202500", "144113.990000", "144114.780000", "144115.567500", "144116.355000", "144117.142500", "144117.932500", "144118.720000", "144119.507500", "144120.295000", "144121.085000", "144121.872500", "144122.660000", "144123.447500", "144124.237500", "144125.025000", "144125.812500", "144126.600000", "144127.390000", "144128.177500", "144128.965000", "144129.755000", "144130.542500", "144131.330000", "144132.117500", "144132.907500", "144133.695000", "144134.482500", "144135.270000", "144136.060000", "144136.847500", "144137.635000", "144138.422500", "144139.212500", "144140.000000", "144140.787500", "144141.575000", "144142.365000", "144143.152500", "144143.940000", "144144.727500", "144145.517500", "144146.305000", "144147.092500", "144147.882500", "144148.670000", "144149.457500", "144150.245000", "144151.035000", "144151.822500", "144152.610000", "144153.397500", "144154.187500", "144154.975000", "144155.762500", "144156.550000", "144157.340000", "144158.127500", "144158.915000", "144159.702500", "144200.492500", "144201.280000", "144202.067500", "144202.855000", "144203.645000", "144204.432500", "144205.220000", "144206.010000", "144206.797500", "144207.585000", "144208.372500", "144209.162500", "144209.950000", "144210.737500", "144211.525000", "144212.315000", "144213.102500", "144213.890000", "144214.677500", "144215.467500", "144216.255000", "144217.042500", "144217.830000", "144218.620000", "144219.407500", "144220.195000", "144220.982500", "144221.772500", "144222.560000", "144223.347500", "144224.137500", "144224.925000", "144225.712500", "144226.500000", "144227.290000", "144228.077500", "144228.865000", "144229.652500", "144230.442500", "144231.230000", "144232.017500", "144232.805000", "144233.595000", "144234.382500", "144235.170000", "144235.957500", "144236.747500", "144237.535000", "144238.322500", "144239.110000", "144239.900000", "144240.687500", "144241.475000", "144242.265000", "144243.052500", "144243.840000", "144244.627500", "144245.417500", "144246.205000", "144246.992500", "144247.780000", "144248.570000", "144249.357500", "144250.145000", "144250.932500", "144251.722500", "144252.510000", "144253.297500", "144254.085000", "144254.875000", "144255.662500", "144256.450000", "144257.237500", "144258.027500", "144258.815000", "144259.602500", "144300.392500", "144301.180000", "144301.967500", "144302.755000", "144303.545000", "144304.332500", "144305.120000", "144305.907500", "144306.697500", "144307.485000", "144308.272500", "144309.060000", "144309.850000", "144310.637500", "144311.425000", "144312.212500", "144313.002500", "144313.790000", "144314.577500", "144315.365000", "144316.155000", "144316.942500", "144317.730000", "144318.520000", "144319.307500", "144320.095000", "144320.882500", "144321.672500", "144322.460000", "144323.247500", "144324.035000", "144324.825000", "144325.612500", "144326.400000", "144327.187500", "144327.977500", "144328.765000", "144329.552500", "144330.340000", "144331.130000", "144331.917500", "144332.705000", "144333.492500", "144334.282500", "144335.070000", "144335.857500", "144336.647500", "144337.435000", "144338.222500", "144339.010000", "144339.800000", "144340.587500", "144341.375000", "144342.162500", "144342.952500", "144343.740000", "144344.527500", "144345.315000", "144346.105000", "144346.892500", "144347.680000", "144348.467500", "144349.257500", "144350.045000", "144350.832500", "144351.622500", "144352.410000", "144353.197500", "144353.985000", "144354.775000", "144355.562500", "144356.350000", "144357.137500", "144357.927500", "144358.715000", "144359.502500", "144400.290000", "144401.080000", "144401.867500", "144402.655000", "144403.442500", "144404.232500", "144405.020000", "144405.807500", "144406.595000", "144407.385000", "144408.172500", "144408.960000", "144409.750000", "144410.537500", "144411.325000", "144412.112500", "144412.902500", "144413.690000", "144414.477500", "144415.265000", "144416.055000", "144416.842500", "144417.630000", "144418.417500", "144419.207500", "144419.995000", "144420.782500", "144421.570000", "144422.360000", "144423.147500", "144423.935000", "144424.722500", "144425.512500", "144426.300000", "144427.087500", "144427.877500", "144428.665000", "144429.452500", "144430.240000", "144431.030000", "144431.817500", "144432.605000", "144433.392500", "144434.182500", "144434.970000", "144435.757500", "144436.545000", "144437.335000", "144438.122500", "144438.910000", "144439.697500", "144440.487500", "144441.275000", "144442.062500", "144442.850000", "144443.640000", "144444.427500", "144445.215000", "144446.005000", "144446.792500", "144447.580000", "144448.367500", "144449.157500", "144449.945000", "144450.732500", "144451.520000", "144452.310000", "144453.097500", "144453.885000", "144454.672500", "144455.462500", "144456.250000", "144457.037500", "144457.825000", "144458.615000", "144459.402500", "144500.190000", "144500.977500", "144501.767500", "144502.555000", "144503.342500", "144504.132500", "144504.920000", "144505.707500", "144506.495000", "144507.285000", "144508.072500", "144508.860000", "144509.647500", "144510.437500", "144511.225000", "144512.012500", "144512.800000", "144513.590000", "144514.377500", "144515.165000", "144515.952500", "144516.742500", "144517.530000", "144518.317500", "144519.105000", "144519.895000", "144520.682500", "144521.470000", "144522.260000", "144523.047500", "144523.835000"],
      "ContentTime": ["143820.843000", "143820.859000", "143820.859000", "143820.859000", "143820.859000", "143820.859000", "143820.859000", "143820.875000", "143820.875000", "143820.875000", "143820.875000", "143820.875000", "143820.875000", "143820.875000", "143820.890000", "143820.890000", "143820.890000", "143820.890000", "143820.890000", "143820.890000", "143820.890000", "143820.906000", "143820.906000", "143820.906000", "143820.906000", "143820.906000", "143820.906000", "143820.906000", "143820.921000", "143820.921000", "143820.921000", "143820.921000", "143820.921000", "143820.921000", "143820.921000", "143820.937000", "143820.937000", "143820.937000", "143820.937000", "143820.937000", "143820.953000", "143840.828000", "143840.828000", "143840.828000", "143840.828000", "143840.828000", "143840.828000", "143840.843000", "143840.843000", "143840.843000", "143840.843000", "143840.843000", "143840.843000", "143840.843000", "143840.859000", "143840.859000", "143840.859000", "143840.859000", "143840.859000", "143840.859000", "143840.859000", "143840.875000", "143840.875000", "143840.875000", "143840.875000", "143840.875000", "143900.828000", "143900.828000", "143900.828000", "143900.828000", "143900.828000", "143900.828000", "143900.843000", "143900.843000", "143900.843000", "143900.843000", "143900.843000", "143900.843000", "143900.843000", "143900.859000", "143900.859000", "143900.859000", "143900.859000", "143900.859000", "143900.859000", "143900.859000", "143900.875000", "143900.875000", "143900.875000", "143900.875000", "143900.875000", "143900.875000", "143920.828000", "143920.828000", "143920.828000", "143920.828000", "143920.828000", "143920.828000", "143920.843000", "143920.843000", "143920.843000", "143920.843000", "143920.843000", "143920.843000", "143920.843000", "143920.859000", "143920.859000", "143920.859000", "143920.859000", "143920.859000", "143920.859000", "143920.859000", "143920.875000", "143920.875000", "143920.875000", "143920.875000", "143920.875000", "143940.828000", "143940.828000", "143940.828000", "143940.828000", "143940.828000", "143940.828000", "143940.843000", "143940.843000", "143940.843000", "143940.843000", "143940.843000", "143940.843000", "143940.843000", "143940.859000", "143940.859000", "143940.859000", "143940.859000", "143940.859000", "143940.859000", "143940.859000", "143940.875000", "143940.875000", "143940.875000", "143940.875000", "143940.890000", "143940.890000", "144000.828000", "144000.828000", "144000.828000", "144000.828000", "144000.828000", "144000.828000", "144000.843000", "144000.843000", "144000.843000", "144000.843000", "144000.843000", "144000.843000", "144000.843000", "144000.859000", "144000.859000", "144000.859000", "144000.859000", "144000.859000", "144000.859000", "144000.859000", "144000.875000", "144000.875000", "144000.875000", "144000.875000", "144000.875000", "144020.828000", "144020.828000", "144020.828000", "144020.828000", "144020.828000", "144020.828000", "144020.843000", "144020.843000", "144020.843000", "144020.843000", "144020.843000", "144020.843000", "144020.843000", "144020.859000", "144020.859000", "144020.859000", "144020.859000", "144020.859000", "144020.859000", "144020.859000", "144020.875000", "144020.875000", "144020.875000", "144020.875000", "144020.875000", "144020.875000", "144040.828000", "144040.828000", "144040.828000", "144040.828000", "144040.828000", "144040.828000", "144040.843000", "144040.843000", "144040.843000", "144040.843000", "144040.843000", "144040.843000", "144040.843000", "144040.859000", "144040.859000", "144040.859000", "144040.859000", "144040.859000", "144040.859000", "144040.859000", "144040.875000", "144040.875000", "144040.875000", "144040.875000", "144040.875000", "144100.828000", "144100.828000", "144100.828000", "144100.828000", "144100.828000", "144100.828000", "144100.843000", "144100.843000", "144100.843000", "144100.843000", "144100.843000", "144100.843000", "144100.843000", "144100.859000", "144100.859000", "144100.859000", "144100.859000", "144100.859000", "144100.859000", "144100.859000", "144100.875000", "144100.875000", "144100.875000", "144100.875000", "144100.875000", "144100.875000", "144120.828000", "144120.828000", "144120.828000", "144120.828000", "144120.828000", "144120.828000", "144120.843000", "144120.843000", "144120.843000", "144120.843000", "144120.843000", "144120.843000", "144120.843000", "144120.859000", "144120.859000", "144120.859000", "144120.859000", "144120.859000", "144120.859000", "144120.859000", "144120.875000", "144120.875000", "144120.875000", "144120.875000", "144120.875000", "144140.828000", "144140.828000", "144140.828000", "144140.828000", "144140.828000", "144140.828000", "144140.843000", "144140.843000", "144140.843000", "144140.843000", "144140.843000", "144140.859000", "144140.859000", "144140.859000", "144140.859000", "144140.859000", "144140.859000", "144140.875000", "144140.875000", "144140.875000", "144140.875000", "144140.875000", "144140.875000", "144140.875000", "144140.890000", "144140.890000", "144200.828000", "144200.828000", "144200.828000", "144200.828000", "144200.828000", "144200.828000", "144200.843000", "144200.843000", "144200.843000", "144200.843000", "144200.843000", "144200.843000", "144200.843000", "144200.859000", "144200.859000", "144200.859000", "144200.859000", "144200.859000", "144200.859000", "144200.859000", "144200.875000", "144200.875000", "144200.875000", "144200.875000", "144200.875000", "144220.828000", "144220.828000", "144220.828000", "144220.828000", "144220.828000", "144220.843000", "144220.843000", "144220.843000", "144220.843000", "144220.843000", "144220.843000", "144220.843000", "144220.859000", "144220.859000", "144220.859000", "144220.859000", "144220.875000", "144220.875000", "144220.875000", "144220.875000", "144220.875000", "144220.875000", "144220.890000", "144220.890000", "144220.890000", "144240.828000", "144240.828000", "144240.828000", "144240.828000", "144240.828000", "144240.828000", "144240.843000", "144240.843000", "144240.843000", "144240.843000", "144240.843000", "144240.843000", "144240.843000", "144240.859000", "144240.859000", "144240.859000", "144240.859000", "144240.859000", "144240.859000", "144240.859000", "144240.875000", "144240.875000", "144240.875000", "144240.875000", "144240.875000", "144240.875000", "144300.828000", "144300.828000", "144300.828000", "144300.828000", "144300.828000", "144300.843000", "144300.843000", "144300.843000", "144300.843000", "144300.843000", "144300.843000", "144300.859000", "144300.859000", "144300.859000", "144300.859000", "144300.859000", "144300.859000", "144300.859000", "144300.875000", "144300.875000", "144300.875000", "144300.875000", "144300.875000", "144300.875000", "144300.890000", "144320.828000", "144320.828000", "144320.828000", "144320.828000", "144320.828000", "144320.828000", "144320.843000", "144320.843000", "144320.843000", "144320.843000", "144320.843000", "144320.843000", "144320.843000", "144320.859000", "144320.859000", "144320.859000", "144320.859000", "144320.859000", "144320.859000", "144320.859000", "144320.875000", "144320.875000", "144320.875000", "144320.875000", "144320.875000", "144320.875000", "144340.828000", "144340.828000", "144340.828000", "144340.828000", "144340.828000", "144340.828000", "144340.843000", "144340.843000", "144340.843000", "144340.843000", "144340.843000", "144340.843000", "144340.859000", "144340.859000", "144340.859000", "144340.859000", "144340.859000", "144340.875000", "144340.875000", "144340.875000", "144340.875000", "144340.875000", "144340.875000", "144340.890000", "144340.890000", "144400.828000", "144400.828000", "144400.828000", "144400.828000", "144400.828000", "144400.828000", "144400.843000", "144400.843000", "144400.843000", "144400.843000", "144400.843000", "144400.859000", "144400.859000", "144400.859000", "144400.859000", "144400.859000", "144400.859000", "144400.859000", "144400.875000", "144400.875000", "144400.875000", "144400.875000", "144400.875000", "144400.875000", "144400.875000", "144400.890000", "144420.828000", "144420.828000", "144420.828000", "144420.828000", "144420.828000", "144420.828000", "144420.843000", "144420.843000", "144420.843000", "144420.843000", "144420.843000", "144420.859000", "144420.859000", "144420.859000", "144420.859000", "144420.859000", "144420.875000", "144420.875000", "144420.875000", "144420.875000", "144420.875000", "144420.890000", "144420.890000", "144420.890000", "144420.890000", "144440.828000", "144440.828000", "144440.828000", "144440.828000", "144440.828000", "144440.828000", "144440.843000", "144440.843000", "144440.843000", "144440.843000", "144440.843000", "144440.843000", "144440.843000", "144440.859000", "144440.859000", "144440.859000", "144440.859000", "144440.859000", "144440.859000", "144440.875000", "144440.875000", "144440.875000", "144440.875000", "144440.875000", "144440.875000", "144440.875000", "144500.828000", "144500.828000", "144500.828000", "144500.828000", "144500.828000", "144500.828000", "144500.843000", "144500.843000", "144500.843000", "144500.843000", "144500.843000", "144500.843000", "144500.843000", "144500.859000", "144500.859000", "144500.859000", "144500.859000", "144500.859000", "144500.859000", "144500.859000", "144500.875000", "144500.875000", "144500.875000", "144500.875000", "144500.875000", "144520.828000", "144520.828000", "144520.828000", "144520.828000", "144520.828000", "144520.828000", "144520.843000", "144520.843000", "144520.843000", "144520.843000", "144520.843000", "144520.843000", "144520.843000", "144520.859000", "144520.859000", "144520.859000", "144520.859000", "144520.859000", "144520.859000", "144520.859000", "144520.875000", "144520.875000", "144520.875000", "144520.875000", "144520.875000", "144520.875000", "144524.593000", "144524.593000", "144524.593000", "144524.593000", "144524.593000"],
      "DataSetTrailingPadding": [
        "\u0000\u0000\u0000\u0000\u0000\u0000\u0000\u0000\u0000\u0000\u0000\u0000\u0000\u0000\u0000\u0000\u0000\u0000\u0000\u0000\u0000\u0000\u0000\u0000\u0000\u0000\u0000\u0000\u0000\u0000\u0000\u0000\u0000\u0000\u0000\u0000\u0000\u0000\u0000\u0000\u0000\u0000\u0000\u0000\u0000\u0000\u0000\u0000\u0000\u0000\u0000\u0000\u0000\u0000\u0000\u0000\u0000\u0000\u0000\u0000\u0000\u0000\u0000\u0000\u0000\u0000\u0000\u0000\u0000\u0000\u0000\u0000\u0000\u0000\u0000\u0000\u0000\u0000\u0000\u0000\u0000\u0000\u0000\u0000\u0000\u0000\u0000\u0000\u0000\u0000\u0000\u0000\u0000\u0000\u0000\u0000\u0000\u0000\u0000\u0000\u0000\u0000\u0000\u0000\u0000\u0000\u0000\u0000\u0000\u0000\u0000\u0000\u0000\u0000\u0000\u0000\u0000\u0000\u0000\u0000\u0000\u0000\u0000\u0000\u0000\u0000\u0000\u0000",
        "\u0000\u0000\u0000\u0000\u0000\u0000\u0000\u0000\u0000\u0000\u0000\u0000\u0000\u0000\u0000\u0000\u0000\u0000\u0000\u0000\u0000\u0000\u0000\u0000\u0000\u0000\u0000\u0000\u0000\u0000\u0000\u0000\u0000\u0000\u0000\u0000\u0000\u0000\u0000\u0000\u0000\u0000\u0000\u0000\u0000\u0000\u0000\u0000\u0000\u0000\u0000\u0000\u0000\u0000\u0000\u0000\u0000\u0000\u0000\u0000\u0000\u0000\u0000\u0000\u0000\u0000\u0000\u0000\u0000\u0000\u0000\u0000\u0000\u0000\u0000\u0000\u0000\u0000\u0000\u0000\u0000\u0000\u0000\u0000\u0000\u0000\u0000\u0000\u0000\u0000\u0000\u0000\u0000\u0000\u0000\u0000\u0000\u0000\u0000\u0000\u0000\u0000\u0000\u0000\u0000\u0000\u0000\u0000\u0000\u0000\u0000\u0000\u0000\u0000\u0000\u0000\u0000\u0000\u0000\u0000\u0000\u0000\u0000\u0000",
