{
  "AcquisitionMatrixPE": 104,
  "AcquisitionNumber": 1,
  "AcquisitionTime": "16:46:36.732500",
  "BandwidthPerPixelPhaseEncode": 13.935,
  "BaseResolution": 104,
  "CoilString": "C:HEA;HEP",
  "ConversionSoftware": "dcm2niix",
  "ConversionSoftwareVersion": "v1.0.20210317",
  "DerivedVendorReportedEchoSpacing": 0.000690017,
  "DeviceSerialNumber": "35450",
  "DwellTime": 2.5e-06,
  "EchoTime": 0.0348,
  "EffectiveEchoSpacing": 0.000690017,
  "FlipAngle": 55,
  "ImageComments": "Unaliased MB8/PE3",
  "ImageOrientationPatientDICOM": [0.999553, -0.00270044, -0.02976, -4.51451e-08, 0.995908, -0.090371],
  "ImageType": [
    "ORIGINAL",
    "PRIMARY",
    "M",
    "MB",
    "ND",
    "MOSAIC"
],
  "ImagingFrequency": 123.234,
  "InPlanePhaseEncodingDirectionDICOM": "COL",
  "InstitutionAddress": "Univeristy Ave. 197,Newark,North East,US,07102-1814",
  "InstitutionName": "RUBIC",
  "InstitutionalDepartmentName": "Department",
  "MRAcquisitionType": "2D",
  "MagneticFieldStrength": 3,
  "Manufacturer": "Siemens",
  "ManufacturersModelName": "TrioTim",
  "Modality": "MR",
  "MultibandAccelerationFactor": 8,
  "PartialFourier": 0.875,
  "PatientPosition": "HFS",
  "PercentPhaseFOV": 100,
  "PercentSampling": 100,
  "PhaseEncodingDirection": "j-",
  "PhaseEncodingSteps": 91,
  "PhaseResolution": 1,
  "PixelBandwidth": 1923,
  "ProcedureStepDescription": "Cole^Michael",
  "ProtocolName": "cmrr_mbep2d_bold_2mm_MB8_Task_8x",
  "PulseSequenceDetails": "%CustomerSeq%\\cmrr_mbep2d_bold",
  "ReceiveCoilName": "32Ch_Head",
  "ReconMatrixPE": 104,
  "RepetitionTime": 0.785,
  "SAR": 0.0970201,
  "ScanOptions": "PFP\\FS",
  "ScanningSequence": "EP",
  "SequenceName": "epfid2d1_104",
  "SequenceVariant": "SK\\SS",
  "SeriesDescription": "cmrr_mbep2d_bold_2mm_MB8_Task_8x",
  "SeriesNumber": 27,
  "ShimSetting": [2067, -402, -7326, 583, -14, -116, 186, -2],
  "SliceThickness": 2,
  "SliceTiming": [0, 0.4375, 0.0875, 0.525, 0.175, 0.6125, 0.2625, 0.7, 0.35, 0, 0.4375, 0.0875, 0.525, 0.175, 0.6125, 0.2625, 0.7, 0.35, 0, 0.4375, 0.0875, 0.525, 0.175, 0.6125, 0.2625, 0.7, 0.35, 0, 0.4375, 0.0875, 0.525, 0.175, 0.6125, 0.2625, 0.7, 0.35, 0, 0.4375, 0.0875, 0.525, 0.175, 0.6125, 0.2625, 0.7, 0.35, 0, 0.4375, 0.0875, 0.525, 0.175, 0.6125, 0.2625, 0.7, 0.35, 0, 0.4375, 0.0875, 0.525, 0.175, 0.6125, 0.2625, 0.7, 0.35, 0, 0.4375, 0.0875, 0.525, 0.175, 0.6125, 0.2625, 0.7, 0.35],
  "SoftwareVersions": "syngo MR B19",
  "SpacingBetweenSlices": 2,
  "StationName": "MRC35450",
  "TaskName": "cpro",
  "TotalReadoutTime": 0.0710717,
  "TxRefAmp": 314.481,
  "dcmmeta_affine": [
    [-1.9991068840026855, -9.029015046735367e-08, -0.05976450443267822, 105.97872161865234],
    [0.005400888156145811, 1.9918162822723389, -0.18066130578517914, -79.74598693847656],
    [-0.05951996520161629, 0.18074201047420502, 1.9909268617630005, -101.71373748779297],
    [0.0, 0.0, 0.0, 1.0]
],
  "dcmmeta_reorient_transform": [
    [0.0, -1.0, 0.0, 103.0],
    [1.0, 0.0, 0.0, 0.0],
    [0.0, 0.0, 1.0, 0.0],
    [0.0, 0.0, 0.0, 1.0]
],
  "dcmmeta_shape": [104, 104, 72, 581],
  "dcmmeta_slice_dim": 2,
  "dcmmeta_version": 0.6,
  "global": {
    "const": {
      "AcquisitionMatrix": [104, 0, 0, 104],
      "AngioFlag": "N",
      "BitsAllocated": 16,
      "BitsStored": 12,
      "Columns": 936,
      "EchoNumbers": 1,
      "EchoTime": 34.8,
      "EchoTrainLength": 1,
      "FlipAngle": 55.0,
      "HighBit": 11,
      "ImageOrientationPatient": [0.99955342582259, -0.0027004441543, -0.0297599819841, -4.5145075e-08, 0.99590816907338, -0.0903710062626],
      "ImagePositionPatient": [-937.60712629574, -951.75992129274, 16.851670245463],
      "ImageType": [
        "ORIGINAL",
        "PRIMARY",
        "M",
        "MB",
        "ND",
        "MOSAIC"
],
      "ImagedNucleus": "1H",
      "ImagingFrequency": 123.234462,
      "InPlanePhaseEncodingDirection": "COL",
      "MRAcquisitionType": "2D",
      "MagneticFieldStrength": 3.0,
      "Manufacturer": "SIEMENS",
      "ManufacturerModelName": "TrioTim",
      "Modality": "MR",
      "NumberOfAverages": 1.0,
      "NumberOfPhaseEncodingSteps": 91,
      "PercentPhaseFieldOfView": 100.0,
      "PercentSampling": 100.0,
      "PerformedProcedureStepStartTime": "144154.796000",
      "PhotometricInterpretation": "MONOCHROME2",
      "PixelBandwidth": 1923.0,
      "PixelRepresentation": 0,
      "PixelSpacing": [2.0, 2.0],
      "ProtocolName": "cmrr_mbep2d_bold_2mm_MB8_Task_8x",
      "RepetitionTime": 785.0,
      "Rows": 936,
      "SAR": 0.09702006861576,
      "SamplesPerPixel": 1,
      "ScanOptions": [
        "PFP",
        "FS"
],
      "ScanningSequence": "EP",
      "SequenceName": "epfid2d1_104",
      "SequenceVariant": [
        "SK",
        "SS"
],
      "SeriesDescription": "cmrr_mbep2d_bold_2mm_MB8_Task_8x",
      "SeriesNumber": 27,
      "SeriesTime": "184617.625000",
      "SliceLocation": -97.215682751145,
      "SliceThickness": 2.0,
      "SmallestImagePixelValue": 0,
      "SoftwareVersions": "syngo MR B19",
      "SpacingBetweenSlices": 2.0000000320349,
      "SpecificCharacterSet": "ISO_IR 100",
      "StudyID": "1",
      "StudyTime": "144154.765000",
      "TransmitCoilName": "Body",
      "VariableFlipAngleFlag": "N",
      "WindowCenterWidthExplanation": "Algo1",
      "dBdt": 0.0},
    "slices": {}
  },
  "time": {
    "samples": {
      "AcquisitionNumber": [1, 2, 3, 4, 5, 6, 7, 8, 9, 10, 11, 12, 13, 14, 15, 16, 17, 18, 19, 20, 21, 22, 23, 24, 25, 26, 27, 28, 29, 30, 31, 32, 33, 34, 35, 36, 37, 38, 39, 40, 41, 42, 43, 44, 45, 46, 47, 48, 49, 50, 51, 52, 53, 54, 55, 56, 57, 58, 59, 60, 61, 62, 63, 64, 65, 66, 67, 68, 69, 70, 71, 72, 73, 74, 75, 76, 77, 78, 79, 80, 81, 82, 83, 84, 85, 86, 87, 88, 89, 90, 91, 92, 93, 94, 95, 96, 97, 98, 99, 100, 101, 102, 103, 104, 105, 106, 107, 108, 109, 110, 111, 112, 113, 114, 115, 116, 117, 118, 119, 120, 121, 122, 123, 124, 125, 126, 127, 128, 129, 130, 131, 132, 133, 134, 135, 136, 137, 138, 139, 140, 141, 142, 143, 144, 145, 146, 147, 148, 149, 150, 151, 152, 153, 154, 155, 156, 157, 158, 159, 160, 161, 162, 163, 164, 165, 166, 167, 168, 169, 170, 171, 172, 173, 174, 175, 176, 177, 178, 179, 180, 181, 182, 183, 184, 185, 186, 187, 188, 189, 190, 191, 192, 193, 194, 195, 196, 197, 198, 199, 200, 201, 202, 203, 204, 205, 206, 207, 208, 209, 210, 211, 212, 213, 214, 215, 216, 217, 218, 219, 220, 221, 222, 223, 224, 225, 226, 227, 228, 229, 230, 231, 232, 233, 234, 235, 236, 237, 238, 239, 240, 241, 242, 243, 244, 245, 246, 247, 248, 249, 250, 251, 252, 253, 254, 255, 256, 257, 258, 259, 260, 261, 262, 263, 264, 265, 266, 267, 268, 269, 270, 271, 272, 273, 274, 275, 276, 277, 278, 279, 280, 281, 282, 283, 284, 285, 286, 287, 288, 289, 290, 291, 292, 293, 294, 295, 296, 297, 298, 299, 300, 301, 302, 303, 304, 305, 306, 307, 308, 309, 310, 311, 312, 313, 314, 315, 316, 317, 318, 319, 320, 321, 322, 323, 324, 325, 326, 327, 328, 329, 330, 331, 332, 333, 334, 335, 336, 337, 338, 339, 340, 341, 342, 343, 344, 345, 346, 347, 348, 349, 350, 351, 352, 353, 354, 355, 356, 357, 358, 359, 360, 361, 362, 363, 364, 365, 366, 367, 368, 369, 370, 371, 372, 373, 374, 375, 376, 377, 378, 379, 380, 381, 382, 383, 384, 385, 386, 387, 388, 389, 390, 391, 392, 393, 394, 395, 396, 397, 398, 399, 400, 401, 402, 403, 404, 405, 406, 407, 408, 409, 410, 411, 412, 413, 414, 415, 416, 417, 418, 419, 420, 421, 422, 423, 424, 425, 426, 427, 428, 429, 430, 431, 432, 433, 434, 435, 436, 437, 438, 439, 440, 441, 442, 443, 444, 445, 446, 447, 448, 449, 450, 451, 452, 453, 454, 455, 456, 457, 458, 459, 460, 461, 462, 463, 464, 465, 466, 467, 468, 469, 470, 471, 472, 473, 474, 475, 476, 477, 478, 479, 480, 481, 482, 483, 484, 485, 486, 487, 488, 489, 490, 491, 492, 493, 494, 495, 496, 497, 498, 499, 500, 501, 502, 503, 504, 505, 506, 507, 508, 509, 510, 511, 512, 513, 514, 515, 516, 517, 518, 519, 520, 521, 522, 523, 524, 525, 526, 527, 528, 529, 530, 531, 532, 533, 534, 535, 536, 537, 538, 539, 540, 541, 542, 543, 544, 545, 546, 547, 548, 549, 550, 551, 552, 553, 554, 555, 556, 557, 558, 559, 560, 561, 562, 563, 564, 565, 566, 567, 568, 569, 570, 571, 572, 573, 574, 575, 576, 577, 578, 579, 580, 581],
      "AcquisitionTime": ["164636.732500", "164637.522500", "164638.310000", "164639.097500", "164639.885000", "164640.675000", "164641.462500", "164642.250000", "164643.037500", "164643.827500", "164644.615000", "164645.402500", "164646.192500", "164646.980000", "164647.767500", "164648.555000", "164649.345000", "164650.132500", "164650.920000", "164651.707500", "164652.497500", "164653.285000", "164654.072500", "164654.860000", "164655.650000", "164656.437500", "164657.225000", "164658.012500", "164658.802500", "164659.590000", "164700.377500", "164701.165000", "164701.955000", "164702.742500", "164703.530000", "164704.320000", "164705.107500", "164705.895000", "164706.682500", "164707.472500", "164708.260000", "164709.047500", "164709.835000", "164710.625000", "164711.412500", "164712.200000", "164712.987500", "164713.777500", "164714.565000", "164715.352500", "164716.140000", "164716.930000", "164717.717500", "164718.505000", "164719.292500", "164720.082500", "164720.870000", "164721.657500", "164722.447500", "164723.235000", "164724.022500", "164724.810000", "164725.600000", "164726.387500", "164727.175000", "164727.962500", "164728.752500", "164729.540000", "164730.327500", "164731.115000", "164731.905000", "164732.692500", "164733.480000", "164734.267500", "164735.057500", "164735.845000", "164736.632500", "164737.420000", "164738.210000", "164738.997500", "164739.785000", "164740.575000", "164741.362500", "164742.150000", "164742.937500", "164743.727500", "164744.515000", "164745.302500", "164746.090000", "164746.880000", "164747.667500", "164748.455000", "164749.242500", "164750.032500", "164750.820000", "164751.607500", "164752.395000", "164753.185000", "164753.972500", "164754.760000", "164755.547500", "164756.337500", "164757.125000", "164757.912500", "164758.702500", "164759.490000", "164800.277500", "164801.065000", "164801.855000", "164802.642500", "164803.430000", "164804.217500", "164805.007500", "164805.795000", "164806.582500", "164807.370000", "164808.160000", "164808.947500", "164809.735000", "164810.522500", "164811.312500", "164812.100000", "164812.887500", "164813.675000", "164814.465000", "164815.252500", "164816.040000", "164816.830000", "164817.617500", "164818.405000", "164819.192500", "164819.982500", "164820.770000", "164821.557500", "164822.345000", "164823.135000", "164823.922500", "164824.710000", "164825.497500", "164826.287500", "164827.075000", "164827.862500", "164828.650000", "164829.440000", "164830.227500", "164831.015000", "164831.802500", "164832.592500", "164833.380000", "164834.167500", "164834.957500", "164835.745000", "164836.532500", "164837.320000", "164838.110000", "164838.897500", "164839.685000", "164840.472500", "164841.262500", "164842.050000", "164842.837500", "164843.625000", "164844.415000", "164845.202500", "164845.990000", "164846.777500", "164847.567500", "164848.355000", "164849.142500", "164849.930000", "164850.720000", "164851.507500", "164852.295000", "164853.085000", "164853.872500", "164854.660000", "164855.447500", "164856.237500", "164857.025000", "164857.812500", "164858.600000", "164859.390000", "164900.177500", "164900.965000", "164901.752500", "164902.542500", "164903.330000", "164904.117500", "164904.905000", "164905.695000", "164906.482500", "164907.270000", "164908.060000", "164908.847500", "164909.635000", "164910.422500", "164911.212500", "164912.000000", "164912.787500", "164913.575000", "164914.365000", "164915.152500", "164915.940000", "164916.727500", "164917.517500", "164918.305000", "164919.092500", "164919.880000", "164920.670000", "164921.457500", "164922.245000", "164923.032500", "164923.822500", "164924.610000", "164925.397500", "164926.187500", "164926.975000", "164927.762500", "164928.550000", "164929.340000", "164930.127500", "164930.915000", "164931.702500", "164932.492500", "164933.280000", "164934.067500", "164934.855000", "164935.645000", "164936.432500", "164937.220000", "164938.007500", "164938.797500", "164939.585000", "164940.372500", "164941.160000", "164941.950000", "164942.737500", "164943.525000", "164944.315000", "164945.102500", "164945.890000", "164946.677500", "164947.467500", "164948.255000", "164949.042500", "164949.830000", "164950.620000", "164951.407500", "164952.195000", "164952.982500", "164953.772500", "164954.560000", "164955.347500", "164956.135000", "164956.925000", "164957.712500", "164958.500000", "164959.287500", "165000.077500", "165000.865000", "165001.652500", "165002.442500", "165003.230000", "165004.017500", "165004.805000", "165005.595000", "165006.382500", "165007.170000", "165007.957500", "165008.747500", "165009.535000", "165010.322500", "165011.110000", "165011.900000", "165012.687500", "165013.475000", "165014.262500", "165015.052500", "165015.840000", "165016.627500", "165017.415000", "165018.205000", "165018.992500", "165019.780000", "165020.570000", "165021.357500", "165022.145000", "165022.932500", "165023.722500", "165024.510000", "165025.297500", "165026.085000", "165026.875000", "165027.662500", "165028.450000", "165029.237500", "165030.027500", "165030.815000", "165031.602500", "165032.390000", "165033.180000", "165033.967500", "165034.755000", "165035.542500", "165036.332500", "165037.120000", "165037.907500", "165038.697500", "165039.485000", "165040.272500", "165041.060000", "165041.850000", "165042.637500", "165043.425000", "165044.212500", "165045.002500", "165045.790000", "165046.577500", "165047.365000", "165048.155000", "165048.942500", "165049.730000", "165050.517500", "165051.307500", "165052.095000", "165052.882500", "165053.670000", "165054.460000", "165055.247500", "165056.035000", "165056.825000", "165057.612500", "165058.400000", "165059.187500", "165059.977500", "165100.765000", "165101.552500", "165102.340000", "165103.130000", "165103.917500", "165104.705000", "165105.492500", "165106.282500", "165107.070000", "165107.857500", "165108.645000", "165109.435000", "165110.222500", "165111.010000", "165111.797500", "165112.587500", "165113.375000", "165114.162500", "165114.952500", "165115.740000", "165116.527500", "165117.315000", "165118.105000", "165118.892500", "165119.680000", "165120.467500", "165121.257500", "165122.045000", "165122.832500", "165123.620000", "165124.410000", "165125.197500", "165125.985000", "165126.772500", "165127.562500", "165128.350000", "165129.137500", "165129.925000", "165130.715000", "165131.502500", "165132.290000", "165133.080000", "165133.867500", "165134.655000", "165135.442500", "165136.232500", "165137.020000", "165137.807500", "165138.595000", "165139.385000", "165140.172500", "165140.960000", "165141.747500", "165142.537500", "165143.325000", "165144.112500", "165144.900000", "165145.690000", "165146.477500", "165147.265000", "165148.052500", "165148.842500", "165149.630000", "165150.417500", "165151.207500", "165151.995000", "165152.782500", "165153.570000", "165154.360000", "165155.147500", "165155.935000", "165156.722500", "165157.512500", "165158.300000", "165159.087500", "165159.875000", "165200.665000", "165201.452500", "165202.240000", "165203.027500", "165203.817500", "165204.605000", "165205.392500", "165206.180000", "165206.970000", "165207.757500", "165208.545000", "165209.335000", "165210.122500", "165210.910000", "165211.697500", "165212.487500", "165213.275000", "165214.062500", "165214.850000", "165215.640000", "165216.427500", "165217.215000", "165218.002500", "165218.792500", "165219.580000", "165220.367500", "165221.155000", "165221.945000", "165222.732500", "165223.520000", "165224.310000", "165225.097500", "165225.885000", "165226.672500", "165227.462500", "165228.250000", "165229.037500", "165229.825000", "165230.615000", "165231.402500", "165232.190000", "165232.977500", "165233.767500", "165234.555000", "165235.342500", "165236.130000", "165236.920000", "165237.707500", "165238.495000", "165239.282500", "165240.072500", "165240.860000", "165241.647500", "165242.437500", "165243.225000", "165244.012500", "165244.800000", "165245.590000", "165246.377500", "165247.165000", "165247.952500", "165248.742500", "165249.530000", "165250.317500", "165251.105000", "165251.895000", "165252.682500", "165253.470000", "165254.257500", "165255.047500", "165255.835000", "165256.622500", "165257.410000", "165258.200000", "165258.987500", "165259.775000", "165300.565000", "165301.352500", "165302.140000", "165302.927500", "165303.717500", "165304.505000", "165305.292500", "165306.080000", "165306.870000", "165307.657500", "165308.445000", "165309.232500", "165310.022500", "165310.810000", "165311.597500", "165312.385000", "165313.175000", "165313.962500", "165314.750000", "165315.537500", "165316.327500", "165317.115000", "165317.902500", "165318.692500", "165319.480000", "165320.267500", "165321.055000", "165321.845000", "165322.632500", "165323.420000", "165324.207500", "165324.997500", "165325.785000", "165326.572500", "165327.360000", "165328.150000", "165328.937500", "165329.725000", "165330.512500", "165331.302500", "165332.090000", "165332.877500", "165333.665000", "165334.455000", "165335.242500", "165336.030000", "165336.820000", "165337.607500", "165338.395000", "165339.182500", "165339.972500", "165340.760000", "165341.547500", "165342.335000", "165343.125000", "165343.912500", "165344.700000", "165345.487500", "165346.277500", "165347.065000", "165347.852500", "165348.640000", "165349.430000", "165350.217500", "165351.005000", "165351.792500", "165352.582500", "165353.370000", "165354.157500", "165354.947500", "165355.735000", "165356.522500", "165357.310000", "165358.100000", "165358.887500", "165359.675000", "165400.462500", "165401.252500", "165402.040000", "165402.827500", "165403.615000", "165404.405000", "165405.192500", "165405.980000", "165406.767500", "165407.557500", "165408.345000", "165409.132500", "165409.920000", "165410.710000", "165411.497500", "165412.285000", "165413.075000", "165413.862500"],
      "ContentTime": ["184617.625000", "184617.625000", "184617.625000", "184617.625000", "184617.625000", "184717.593000", "184717.609000", "184717.609000", "184717.609000", "184717.609000", "184717.609000", "184717.609000", "184717.609000", "184717.625000", "184717.625000", "184717.625000", "184717.625000", "184717.625000", "184717.640000", "184717.640000", "184717.640000", "184717.640000", "184717.640000", "184717.640000", "184717.640000", "184717.656000", "184717.656000", "184717.656000", "184717.656000", "184717.656000", "184717.671000", "184717.671000", "184717.671000", "184817.593000", "184817.609000", "184817.609000", "184817.609000", "184817.609000", "184817.609000", "184817.609000", "184817.609000", "184817.625000", "184817.625000", "184817.625000", "184817.625000", "184817.625000", "184817.625000", "184817.625000", "184817.640000", "184817.640000", "184817.640000", "184817.640000", "184817.640000", "184817.640000", "184817.640000", "184817.656000", "184817.656000", "184817.656000", "184817.656000", "184817.656000", "184817.656000", "184817.671000", "184917.593000", "184917.609000", "184917.609000", "184917.609000", "184917.609000", "184917.609000", "184917.609000", "184917.609000", "184917.625000", "184917.625000", "184917.625000", "184917.625000", "184917.625000", "184917.625000", "184917.625000", "184917.640000", "184917.640000", "184917.640000", "184917.640000", "184917.640000", "184917.640000", "184917.640000", "184917.656000", "184917.656000", "184917.656000", "184917.656000", "184917.656000", "184917.656000", "185017.593000", "185017.609000", "185017.609000", "185017.609000", "185017.609000", "185017.609000", "185017.609000", "185017.609000", "185017.625000", "185017.625000", "185017.625000", "185017.625000", "185017.625000", "185017.625000", "185017.625000", "185017.640000", "185017.640000", "185017.640000", "185017.640000", "185017.640000", "185017.640000", "185017.656000", "185017.656000", "185017.656000", "185017.656000", "185017.656000", "185017.671000", "185017.671000", "185117.593000", "185117.609000", "185117.609000", "185117.609000", "185117.609000", "185117.609000", "185117.609000", "185117.609000", "185117.625000", "185117.625000", "185117.625000", "185117.625000", "185117.625000", "185117.625000", "185117.625000", "185117.640000", "185117.640000", "185117.640000", "185117.640000", "185117.640000", "185117.640000", "185117.656000", "185117.656000", "185117.656000", "185117.656000", "185117.656000", "185117.656000", "185117.656000", "185217.593000", "185217.609000", "185217.609000", "185217.609000", "185217.609000", "185217.609000", "185217.609000", "185217.609000", "185217.625000", "185217.625000", "185217.625000", "185217.625000", "185217.625000", "185217.625000", "185217.625000", "185217.640000", "185217.640000", "185217.640000", "185217.640000", "185217.640000", "185217.640000", "185217.640000", "185217.656000", "185217.656000", "185217.656000", "185217.656000", "185217.656000", "185217.656000", "185217.656000", "185317.593000", "185317.609000", "185317.609000", "185317.609000", "185317.609000", "185317.609000", "185317.625000", "185317.625000", "185317.625000", "185317.625000", "185317.640000", "185317.640000", "185317.640000", "185317.640000", "185317.640000", "185317.640000", "185317.640000", "185317.656000", "185317.656000", "185317.656000", "185317.656000", "185317.656000", "185317.671000", "185317.671000", "185317.671000", "185317.671000", "185317.671000", "185317.671000", "185417.593000", "185417.609000", "185417.609000", "185417.609000", "185417.609000", "185417.609000", "185417.609000", "185417.609000", "185417.625000", "185417.625000", "185417.625000", "185417.625000", "185417.625000", "185417.625000", "185417.625000", "185417.640000", "185417.640000", "185417.640000", "185417.640000", "185417.640000", "185417.640000", "185417.640000", "185417.656000", "185417.656000", "185417.656000", "185417.656000", "185417.656000", "185417.656000", "185517.593000", "185517.609000", "185517.609000", "185517.609000", "185517.609000", "185517.609000", "185517.609000", "185517.625000", "185517.625000", "185517.625000", "185517.625000", "185517.625000", "185517.625000", "185517.640000", "185517.640000", "185517.640000", "185517.640000", "185517.656000", "185517.656000", "185517.656000", "185517.656000", "185517.656000", "185517.656000", "185517.671000", "185517.671000", "185517.671000", "185517.671000", "185517.671000", "185617.593000", "185617.609000", "185617.609000", "185617.609000", "185617.609000", "185617.609000", "185617.609000", "185617.609000", "185617.625000", "185617.625000", "185617.625000", "185617.625000", "185617.625000", "185617.625000", "185617.625000", "185617.640000", "185617.640000", "185617.640000", "185617.640000", "185617.640000", "185617.640000", "185617.640000", "185617.656000", "185617.656000", "185617.656000", "185617.656000", "185617.656000", "185617.656000", "185617.656000", "185717.593000", "185717.609000", "185717.609000", "185717.609000", "185717.609000", "185717.609000", "185717.609000", "185717.609000", "185717.625000", "185717.625000", "185717.625000", "185717.625000", "185717.625000", "185717.625000", "185717.625000", "185717.640000", "185717.640000", "185717.640000", "185717.640000", "185717.640000", "185717.656000", "185717.656000", "185717.656000", "185717.656000", "185717.656000", "185717.656000", "185717.656000", "185717.671000", "185817.593000", "185817.609000", "185817.609000", "185817.609000", "185817.609000", "185817.609000", "185817.609000", "185817.609000", "185817.625000", "185817.625000", "185817.625000", "185817.625000", "185817.625000", "185817.625000", "185817.640000", "185817.640000", "185817.640000", "185817.640000", "185817.640000", "185817.640000", "185817.640000", "185817.656000", "185817.656000", "185817.656000", "185817.656000", "185817.656000", "185817.656000", "185817.671000", "185917.593000", "185917.609000", "185917.609000", "185917.609000", "185917.609000", "185917.609000", "185917.609000", "185917.609000", "185917.625000", "185917.625000", "185917.625000", "185917.625000", "185917.625000", "185917.625000", "185917.625000", "185917.640000", "185917.640000", "185917.640000", "185917.640000", "185917.640000", "185917.640000", "185917.640000", "185917.656000", "185917.656000", "185917.656000", "185917.656000", "185917.656000", "185917.656000", "190017.593000", "190017.609000", "190017.609000", "190017.609000", "190017.609000", "190017.609000", "190017.609000", "190017.609000", "190017.625000", "190017.625000", "190017.625000", "190017.625000", "190017.625000", "190017.625000", "190017.625000", "190017.640000", "190017.640000", "190017.640000", "190017.640000", "190017.640000", "190017.640000", "190017.640000", "190017.656000", "190017.656000", "190017.656000", "190017.656000", "190017.656000", "190017.656000", "190017.656000", "190117.593000", "190117.609000", "190117.609000", "190117.609000", "190117.609000", "190117.609000", "190117.609000", "190117.609000", "190117.625000", "190117.625000", "190117.625000", "190117.625000", "190117.625000", "190117.625000", "190117.625000", "190117.640000", "190117.640000", "190117.640000", "190117.640000", "190117.640000", "190117.640000", "190117.640000", "190117.656000", "190117.656000", "190117.656000", "190117.656000", "190117.656000", "190117.656000", "190217.593000", "190217.609000", "190217.609000", "190217.609000", "190217.609000", "190217.609000", "190217.609000", "190217.625000", "190217.625000", "190217.625000", "190217.625000", "190217.625000", "190217.625000", "190217.625000", "190217.640000", "190217.640000", "190217.640000", "190217.640000", "190217.640000", "190217.640000", "190217.656000", "190217.656000", "190217.656000", "190217.656000", "190217.656000", "190217.656000", "190217.671000", "190217.671000", "190317.593000", "190317.609000", "190317.609000", "190317.609000", "190317.609000", "190317.609000", "190317.625000", "190317.625000", "190317.625000", "190317.625000", "190317.625000", "190317.640000", "190317.640000", "190317.640000", "190317.640000", "190317.640000", "190317.640000", "190317.640000", "190317.656000", "190317.656000", "190317.656000", "190317.656000", "190317.656000", "190317.656000", "190317.656000", "190317.671000", "190317.671000", "190317.671000", "190417.593000", "190417.609000", "190417.609000", "190417.609000", "190417.609000", "190417.609000", "190417.609000", "190417.609000", "190417.625000", "190417.625000", "190417.625000", "190417.625000", "190417.625000", "190417.640000", "190417.640000", "190417.640000", "190417.640000", "190417.640000", "190417.640000", "190417.640000", "190417.656000", "190417.656000", "190417.656000", "190417.656000", "190417.656000", "190417.656000", "190417.671000", "190417.671000", "190517.593000", "190517.609000", "190517.609000", "190517.609000", "190517.609000", "190517.609000", "190517.609000", "190517.609000", "190517.625000", "190517.625000", "190517.625000", "190517.625000", "190517.625000", "190517.625000", "190517.625000", "190517.640000", "190517.640000", "190517.640000", "190517.640000", "190517.640000", "190517.640000", "190517.640000", "190517.656000", "190517.656000", "190517.656000", "190517.656000", "190517.656000", "190517.656000", "190517.656000", "190617.593000", "190617.609000", "190617.609000", "190617.609000", "190617.609000", "190617.609000", "190617.609000", "190617.609000", "190617.625000", "190617.625000", "190617.625000", "190617.625000", "190617.625000", "190617.625000", "190617.625000", "190617.640000", "190617.640000", "190617.640000", "190617.640000", "190617.640000", "190617.640000", "190617.640000", "190617.656000", "190617.656000", "190617.656000", "190617.656000", "190617.656000", "190617.656000", "190639.984000", "190639.984000", "190640.000000", "190640.000000", "190640.000000", "190640.000000", "190640.000000", "190640.000000", "190640.015000", "190640.015000", "190640.015000"],
