{
  "AcquisitionMatrixPE": 104,
  "AcquisitionNumber": 1,
  "AcquisitionTime": "16:21:36.707500",
  "BandwidthPerPixelPhaseEncode": 13.935,
  "BaseResolution": 104,
  "CoilString": "C:HEA;HEP",
  "ConversionSoftware": "dcm2niix",
  "ConversionSoftwareVersion": "v1.0.20210317",
  "DerivedVendorReportedEchoSpacing": 0.000690017,
  "DeviceSerialNumber": "35450",
  "DwellTime": 2.5e-06,
  "EchoTime": 0.0348,
  "EffectiveEchoSpacing": 0.000690017,
  "FlipAngle": 55,
  "ImageComments": "Unaliased MB8/PE3",
  "ImageOrientationPatientDICOM": [0.999553, -0.00270044, -0.02976, -4.51451e-08, 0.995908, -0.090371],
  "ImageType": [
    "ORIGINAL",
    "PRIMARY",
    "M",
    "MB",
    "ND",
    "MOSAIC"
],
  "ImagingFrequency": 123.234,
  "InPlanePhaseEncodingDirectionDICOM": "COL",
  "InstitutionAddress": "Univeristy Ave. 197,Newark,North East,US,07102-1814",
  "InstitutionName": "RUBIC",
  "InstitutionalDepartmentName": "Department",
  "MRAcquisitionType": "2D",
  "MagneticFieldStrength": 3,
  "Manufacturer": "Siemens",
  "ManufacturersModelName": "TrioTim",
  "Modality": "MR",
  "MultibandAccelerationFactor": 8,
  "PartialFourier": 0.875,
  "PatientPosition": "HFS",
  "PercentPhaseFOV": 100,
  "PercentSampling": 100,
  "PhaseEncodingDirection": "j-",
  "PhaseEncodingSteps": 91,
  "PhaseResolution": 1,
  "PixelBandwidth": 1923,
  "ProcedureStepDescription": "Cole^Michael",
  "ProtocolName": "cmrr_mbep2d_bold_2mm_MB8_Task_8x",
  "PulseSequenceDetails": "%CustomerSeq%\\cmrr_mbep2d_bold",
  "ReceiveCoilName": "32Ch_Head",
  "ReconMatrixPE": 104,
  "RepetitionTime": 0.785,
  "SAR": 0.0970201,
  "ScanOptions": "PFP\\FS",
  "ScanningSequence": "EP",
  "SequenceName": "epfid2d1_104",
  "SequenceVariant": "SK\\SS",
  "SeriesDescription": "cmrr_mbep2d_bold_2mm_MB8_Task_8x",
  "SeriesNumber": 21,
  "ShimSetting": [2067, -402, -7326, 583, -14, -116, 186, -2],
  "SliceThickness": 2,
  "SliceTiming": [0, 0.4375, 0.0875, 0.525, 0.175, 0.6125, 0.2625, 0.7, 0.35, 0, 0.4375, 0.0875, 0.525, 0.175, 0.6125, 0.2625, 0.7, 0.35, 0, 0.4375, 0.0875, 0.525, 0.175, 0.6125, 0.2625, 0.7, 0.35, 0, 0.4375, 0.0875, 0.525, 0.175, 0.6125, 0.2625, 0.7, 0.35, 0, 0.4375, 0.0875, 0.525, 0.175, 0.6125, 0.2625, 0.7, 0.35, 0, 0.4375, 0.0875, 0.525, 0.175, 0.6125, 0.2625, 0.7, 0.35, 0, 0.4375, 0.0875, 0.525, 0.175, 0.6125, 0.2625, 0.7, 0.35, 0, 0.4375, 0.0875, 0.525, 0.175, 0.6125, 0.2625, 0.7, 0.35],
  "SoftwareVersions": "syngo MR B19",
  "SpacingBetweenSlices": 2,
  "StationName": "MRC35450",
  "TaskName": "cpro",
  "TotalReadoutTime": 0.0710717,
  "TxRefAmp": 314.481,
  "dcmmeta_affine": [
    [-1.9991068840026855, -9.029015046735367e-08, -0.05976450443267822, 105.97872161865234],
    [0.005400888156145811, 1.9918162822723389, -0.18066130578517914, -79.74598693847656],
    [-0.05951996520161629, 0.18074201047420502, 1.9909268617630005, -101.71373748779297],
    [0.0, 0.0, 0.0, 1.0]
],
  "dcmmeta_reorient_transform": [
    [0.0, -1.0, 0.0, 103.0],
    [1.0, 0.0, 0.0, 0.0],
    [0.0, 0.0, 1.0, 0.0],
    [0.0, 0.0, 0.0, 1.0]
],
  "dcmmeta_shape": [104, 104, 72, 581],
  "dcmmeta_slice_dim": 2,
  "dcmmeta_version": 0.6,
  "global": {
    "const": {
      "AcquisitionMatrix": [104, 0, 0, 104],
      "AngioFlag": "N",
      "BitsAllocated": 16,
      "BitsStored": 12,
      "Columns": 936,
      "EchoNumbers": 1,
      "EchoTime": 34.8,
      "EchoTrainLength": 1,
      "FlipAngle": 55.0,
      "HighBit": 11,
      "ImageOrientationPatient": [0.99955342582259, -0.0027004441543, -0.0297599819841, -4.5145075e-08, 0.99590816907338, -0.0903710062626],
      "ImagePositionPatient": [-937.60712629574, -951.75992129274, 16.851670245463],
      "ImageType": [
        "ORIGINAL",
        "PRIMARY",
        "M",
        "MB",
        "ND",
        "MOSAIC"
],
      "ImagedNucleus": "1H",
      "ImagingFrequency": 123.234462,
      "InPlanePhaseEncodingDirection": "COL",
      "MRAcquisitionType": "2D",
      "MagneticFieldStrength": 3.0,
      "Manufacturer": "SIEMENS",
      "ManufacturerModelName": "TrioTim",
      "Modality": "MR",
      "NumberOfAverages": 1.0,
      "NumberOfPhaseEncodingSteps": 91,
      "PercentPhaseFieldOfView": 100.0,
      "PercentSampling": 100.0,
      "PerformedProcedureStepStartTime": "144154.796000",
      "PhotometricInterpretation": "MONOCHROME2",
      "PixelBandwidth": 1923.0,
      "PixelRepresentation": 0,
      "PixelSpacing": [2.0, 2.0],
      "ProtocolName": "cmrr_mbep2d_bold_2mm_MB8_Task_8x",
      "RepetitionTime": 785.0,
      "Rows": 936,
      "SAR": 0.09702006861576,
      "SamplesPerPixel": 1,
      "ScanOptions": [
        "PFP",
        "FS"
],
      "ScanningSequence": "EP",
      "SequenceName": "epfid2d1_104",
      "SequenceVariant": [
        "SK",
        "SS"
],
      "SeriesDescription": "cmrr_mbep2d_bold_2mm_MB8_Task_8x",
      "SeriesNumber": 21,
      "SeriesTime": "174344.515000",
      "SliceLocation": -97.215682751145,
      "SliceThickness": 2.0,
      "SmallestImagePixelValue": 0,
      "SoftwareVersions": "syngo MR B19",
      "SpacingBetweenSlices": 2.0000000320349,
      "SpecificCharacterSet": "ISO_IR 100",
      "StudyID": "1",
      "StudyTime": "144154.765000",
      "TransmitCoilName": "Body",
      "VariableFlipAngleFlag": "N",
      "WindowCenterWidthExplanation": "Algo1",
      "dBdt": 0.0},
    "slices": {}
  },
  "time": {
    "samples": {
      "AcquisitionNumber": [1, 2, 3, 4, 5, 6, 7, 8, 9, 10, 11, 12, 13, 14, 15, 16, 17, 18, 19, 20, 21, 22, 23, 24, 25, 26, 27, 28, 29, 30, 31, 32, 33, 34, 35, 36, 37, 38, 39, 40, 41, 42, 43, 44, 45, 46, 47, 48, 49, 50, 51, 52, 53, 54, 55, 56, 57, 58, 59, 60, 61, 62, 63, 64, 65, 66, 67, 68, 69, 70, 71, 72, 73, 74, 75, 76, 77, 78, 79, 80, 81, 82, 83, 84, 85, 86, 87, 88, 89, 90, 91, 92, 93, 94, 95, 96, 97, 98, 99, 100, 101, 102, 103, 104, 105, 106, 107, 108, 109, 110, 111, 112, 113, 114, 115, 116, 117, 118, 119, 120, 121, 122, 123, 124, 125, 126, 127, 128, 129, 130, 131, 132, 133, 134, 135, 136, 137, 138, 139, 140, 141, 142, 143, 144, 145, 146, 147, 148, 149, 150, 151, 152, 153, 154, 155, 156, 157, 158, 159, 160, 161, 162, 163, 164, 165, 166, 167, 168, 169, 170, 171, 172, 173, 174, 175, 176, 177, 178, 179, 180, 181, 182, 183, 184, 185, 186, 187, 188, 189, 190, 191, 192, 193, 194, 195, 196, 197, 198, 199, 200, 201, 202, 203, 204, 205, 206, 207, 208, 209, 210, 211, 212, 213, 214, 215, 216, 217, 218, 219, 220, 221, 222, 223, 224, 225, 226, 227, 228, 229, 230, 231, 232, 233, 234, 235, 236, 237, 238, 239, 240, 241, 242, 243, 244, 245, 246, 247, 248, 249, 250, 251, 252, 253, 254, 255, 256, 257, 258, 259, 260, 261, 262, 263, 264, 265, 266, 267, 268, 269, 270, 271, 272, 273, 274, 275, 276, 277, 278, 279, 280, 281, 282, 283, 284, 285, 286, 287, 288, 289, 290, 291, 292, 293, 294, 295, 296, 297, 298, 299, 300, 301, 302, 303, 304, 305, 306, 307, 308, 309, 310, 311, 312, 313, 314, 315, 316, 317, 318, 319, 320, 321, 322, 323, 324, 325, 326, 327, 328, 329, 330, 331, 332, 333, 334, 335, 336, 337, 338, 339, 340, 341, 342, 343, 344, 345, 346, 347, 348, 349, 350, 351, 352, 353, 354, 355, 356, 357, 358, 359, 360, 361, 362, 363, 364, 365, 366, 367, 368, 369, 370, 371, 372, 373, 374, 375, 376, 377, 378, 379, 380, 381, 382, 383, 384, 385, 386, 387, 388, 389, 390, 391, 392, 393, 394, 395, 396, 397, 398, 399, 400, 401, 402, 403, 404, 405, 406, 407, 408, 409, 410, 411, 412, 413, 414, 415, 416, 417, 418, 419, 420, 421, 422, 423, 424, 425, 426, 427, 428, 429, 430, 431, 432, 433, 434, 435, 436, 437, 438, 439, 440, 441, 442, 443, 444, 445, 446, 447, 448, 449, 450, 451, 452, 453, 454, 455, 456, 457, 458, 459, 460, 461, 462, 463, 464, 465, 466, 467, 468, 469, 470, 471, 472, 473, 474, 475, 476, 477, 478, 479, 480, 481, 482, 483, 484, 485, 486, 487, 488, 489, 490, 491, 492, 493, 494, 495, 496, 497, 498, 499, 500, 501, 502, 503, 504, 505, 506, 507, 508, 509, 510, 511, 512, 513, 514, 515, 516, 517, 518, 519, 520, 521, 522, 523, 524, 525, 526, 527, 528, 529, 530, 531, 532, 533, 534, 535, 536, 537, 538, 539, 540, 541, 542, 543, 544, 545, 546, 547, 548, 549, 550, 551, 552, 553, 554, 555, 556, 557, 558, 559, 560, 561, 562, 563, 564, 565, 566, 567, 568, 569, 570, 571, 572, 573, 574, 575, 576, 577, 578, 579, 580, 581],
      "AcquisitionTime": ["162136.707500", "162137.495000", "162138.282500", "162139.072500", "162139.860000", "162140.647500", "162141.435000", "162142.225000", "162143.012500", "162143.800000", "162144.587500", "162145.377500", "162146.165000", "162146.952500", "162147.740000", "162148.530000", "162149.317500", "162150.105000", "162150.895000", "162151.682500", "162152.470000", "162153.257500", "162154.047500", "162154.835000", "162155.622500", "162156.410000", "162157.200000", "162157.987500", "162158.775000", "162159.562500", "162200.352500", "162201.140000", "162201.927500", "162202.715000", "162203.505000", "162204.292500", "162205.080000", "162205.867500", "162206.657500", "162207.445000", "162208.232500", "162209.022500", "162209.810000", "162210.597500", "162211.385000", "162212.175000", "162212.962500", "162213.750000", "162214.537500", "162215.327500", "162216.115000", "162216.902500", "162217.690000", "162218.480000", "162219.267500", "162220.055000", "162220.842500", "162221.632500", "162222.420000", "162223.207500", "162223.995000", "162224.785000", "162225.572500", "162226.360000", "162227.150000", "162227.937500", "162228.725000", "162229.512500", "162230.302500", "162231.090000", "162231.877500", "162232.665000", "162233.455000", "162234.242500", "162235.030000", "162235.817500", "162236.607500", "162237.395000", "162238.182500", "162238.970000", "162239.760000", "162240.547500", "162241.335000", "162242.122500", "162242.912500", "162243.700000", "162244.487500", "162245.277500", "162246.065000", "162246.852500", "162247.640000", "162248.430000", "162249.217500", "162250.005000", "162250.792500", "162251.582500", "162252.370000", "162253.157500", "162253.945000", "162254.735000", "162255.522500", "162256.310000", "162257.097500", "162257.887500", "162258.675000", "162259.462500", "162300.250000", "162301.040000", "162301.827500", "162302.615000", "162303.405000", "162304.192500", "162304.980000", "162305.767500", "162306.557500", "162307.345000", "162308.132500", "162308.920000", "162309.710000", "162310.497500", "162311.285000", "162312.072500", "162312.862500", "162313.650000", "162314.437500", "162315.225000", "162316.015000", "162316.802500", "162317.590000", "162318.377500", "162319.167500", "162319.955000", "162320.742500", "162321.532500", "162322.320000", "162323.107500", "162323.895000", "162324.685000", "162325.472500", "162326.260000", "162327.047500", "162327.837500", "162328.625000", "162329.412500", "162330.200000", "162330.990000", "162331.777500", "162332.565000", "162333.352500", "162334.142500", "162334.930000", "162335.717500", "162336.505000", "162337.295000", "162338.082500", "162338.870000", "162339.660000", "162340.447500", "162341.235000", "162342.022500", "162342.812500", "162343.600000", "162344.387500", "162345.175000", "162345.965000", "162346.752500", "162347.540000", "162348.327500", "162349.117500", "162349.905000", "162350.692500", "162351.480000", "162352.270000", "162353.057500", "162353.845000", "162354.632500", "162355.422500", "162356.210000", "162356.997500", "162357.787500", "162358.575000", "162359.362500", "162400.150000", "162400.940000", "162401.727500", "162402.515000", "162403.302500", "162404.092500", "162404.880000", "162405.667500", "162406.455000", "162407.245000", "162408.032500", "162408.820000", "162409.607500", "162410.397500", "162411.185000", "162411.972500", "162412.760000", "162413.550000", "162414.337500", "162415.125000", "162415.915000", "162416.702500", "162417.490000", "162418.277500", "162419.067500", "162419.855000", "162420.642500", "162421.430000", "162422.220000", "162423.007500", "162423.795000", "162424.582500", "162425.372500", "162426.160000", "162426.947500", "162427.735000", "162428.525000", "162429.312500", "162430.100000", "162430.887500", "162431.677500", "162432.465000", "162433.252500", "162434.042500", "162434.830000", "162435.617500", "162436.405000", "162437.195000", "162437.982500", "162438.770000", "162439.557500", "162440.347500", "162441.135000", "162441.922500", "162442.710000", "162443.500000", "162444.287500", "162445.075000", "162445.862500", "162446.652500", "162447.440000", "162448.227500", "162449.017500", "162449.805000", "162450.592500", "162451.380000", "162452.170000", "162452.957500", "162453.745000", "162454.532500", "162455.322500", "162456.110000", "162456.897500", "162457.685000", "162458.475000", "162459.262500", "162500.050000", "162500.837500", "162501.627500", "162502.415000", "162503.202500", "162503.990000", "162504.780000", "162505.567500", "162506.355000", "162507.145000", "162507.932500", "162508.720000", "162509.507500", "162510.297500", "162511.085000", "162511.872500", "162512.660000", "162513.450000", "162514.237500", "162515.025000", "162515.812500", "162516.602500", "162517.390000", "162518.177500", "162518.965000", "162519.755000", "162520.542500", "162521.330000", "162522.117500", "162522.907500", "162523.695000", "162524.482500", "162525.272500", "162526.060000", "162526.847500", "162527.635000", "162528.425000", "162529.212500", "162530.000000", "162530.787500", "162531.577500", "162532.365000", "162533.152500", "162533.940000", "162534.730000", "162535.517500", "162536.305000", "162537.092500", "162537.882500", "162538.670000", "162539.457500", "162540.245000", "162541.035000", "162541.822500", "162542.610000", "162543.400000", "162544.187500", "162544.975000", "162545.762500", "162546.552500", "162547.340000", "162548.127500", "162548.915000", "162549.705000", "162550.492500", "162551.280000", "162552.067500", "162552.857500", "162553.645000", "162554.432500", "162555.220000", "162556.010000", "162556.797500", "162557.585000", "162558.372500", "162559.162500", "162559.950000", "162600.737500", "162601.527500", "162602.315000", "162603.102500", "162603.890000", "162604.680000", "162605.467500", "162606.255000", "162607.042500", "162607.832500", "162608.620000", "162609.407500", "162610.195000", "162610.985000", "162611.772500", "162612.560000", "162613.347500", "162614.137500", "162614.925000", "162615.712500", "162616.500000", "162617.290000", "162618.077500", "162618.865000", "162619.655000", "162620.442500", "162621.230000", "162622.017500", "162622.807500", "162623.595000", "162624.382500", "162625.170000", "162625.960000", "162626.747500", "162627.535000", "162628.322500", "162629.112500", "162629.900000", "162630.687500", "162631.475000", "162632.265000", "162633.052500", "162633.840000", "162634.627500", "162635.417500", "162636.205000", "162636.992500", "162637.782500", "162638.570000", "162639.357500", "162640.145000", "162640.935000", "162641.722500", "162642.510000", "162643.297500", "162644.087500", "162644.875000", "162645.662500", "162646.450000", "162647.240000", "162648.027500", "162648.815000", "162649.602500", "162650.392500", "162651.180000", "162651.967500", "162652.755000", "162653.545000", "162654.332500", "162655.120000", "162655.910000", "162656.697500", "162657.485000", "162658.272500", "162659.062500", "162659.850000", "162700.637500", "162701.425000", "162702.215000", "162703.002500", "162703.790000", "162704.577500", "162705.367500", "162706.155000", "162706.942500", "162707.730000", "162708.520000", "162709.307500", "162710.095000", "162710.882500", "162711.672500", "162712.460000", "162713.247500", "162714.037500", "162714.825000", "162715.612500", "162716.400000", "162717.190000", "162717.977500", "162718.765000", "162719.552500", "162720.342500", "162721.130000", "162721.917500", "162722.705000", "162723.495000", "162724.282500", "162725.070000", "162725.857500", "162726.647500", "162727.435000", "162728.222500", "162729.010000", "162729.800000", "162730.587500", "162731.375000", "162732.165000", "162732.952500", "162733.740000", "162734.527500", "162735.317500", "162736.105000", "162736.892500", "162737.680000", "162738.470000", "162739.257500", "162740.045000", "162740.832500", "162741.622500", "162742.410000", "162743.197500", "162743.985000", "162744.775000", "162745.562500", "162746.350000", "162747.137500", "162747.927500", "162748.715000", "162749.502500", "162750.292500", "162751.080000", "162751.867500", "162752.655000", "162753.445000", "162754.232500", "162755.020000", "162755.807500", "162756.597500", "162757.385000", "162758.172500", "162758.960000", "162759.750000", "162800.537500", "162801.325000", "162802.112500", "162802.902500", "162803.690000", "162804.477500", "162805.267500", "162806.055000", "162806.842500", "162807.630000", "162808.420000", "162809.207500", "162809.995000", "162810.782500", "162811.572500", "162812.360000", "162813.147500", "162813.935000", "162814.725000", "162815.512500", "162816.300000", "162817.087500", "162817.877500", "162818.665000", "162819.452500", "162820.240000", "162821.030000", "162821.817500", "162822.605000", "162823.395000", "162824.182500", "162824.970000", "162825.757500", "162826.547500", "162827.335000", "162828.122500", "162828.910000", "162829.700000", "162830.487500", "162831.275000", "162832.062500", "162832.852500", "162833.640000", "162834.427500", "162835.215000", "162836.005000", "162836.792500", "162837.580000", "162838.367500", "162839.157500", "162839.945000", "162840.732500", "162841.522500", "162842.310000", "162843.097500", "162843.885000", "162844.675000", "162845.462500", "162846.250000", "162847.037500", "162847.827500", "162848.615000", "162849.402500", "162850.190000", "162850.980000", "162851.767500", "162852.555000", "162853.342500", "162854.132500", "162854.920000", "162855.707500", "162856.495000", "162857.285000", "162858.072500", "162858.860000", "162859.650000", "162900.437500", "162901.225000", "162902.012500", "162902.802500", "162903.590000", "162904.377500", "162905.165000", "162905.955000", "162906.742500", "162907.530000", "162908.317500", "162909.107500", "162909.895000", "162910.682500", "162911.470000", "162912.260000", "162913.047500", "162913.835000"],
      "ContentTime": ["174344.515000", "174344.515000", "174344.515000", "174344.531000", "174444.484000", "174444.500000", "174444.500000", "174444.500000", "174444.500000", "174444.500000", "174444.500000", "174444.500000", "174444.515000", "174444.515000", "174444.515000", "174444.515000", "174444.515000", "174444.515000", "174444.515000", "174444.531000", "174444.531000", "174444.531000", "174444.531000", "174444.531000", "174444.531000", "174444.546000", "174444.546000", "174444.546000", "174444.546000", "174444.546000", "174444.546000", "174444.546000", "174444.562000", "174544.484000", "174544.500000", "174544.500000", "174544.500000", "174544.500000", "174544.500000", "174544.500000", "174544.500000", "174544.515000", "174544.515000", "174544.515000", "174544.515000", "174544.515000", "174544.515000", "174544.515000", "174544.531000", "174544.531000", "174544.531000", "174544.531000", "174544.531000", "174544.531000", "174544.531000", "174544.546000", "174544.546000", "174544.546000", "174544.546000", "174544.546000", "174544.546000", "174644.484000", "174644.500000", "174644.500000", "174644.500000", "174644.500000", "174644.500000", "174644.500000", "174644.500000", "174644.515000", "174644.515000", "174644.515000", "174644.515000", "174644.515000", "174644.515000", "174644.515000", "174644.531000", "174644.531000", "174644.531000", "174644.531000", "174644.531000", "174644.531000", "174644.531000", "174644.546000", "174644.546000", "174644.546000", "174644.546000", "174644.546000", "174644.546000", "174744.484000", "174744.500000", "174744.500000", "174744.500000", "174744.500000", "174744.500000", "174744.500000", "174744.500000", "174744.515000", "174744.515000", "174744.515000", "174744.515000", "174744.515000", "174744.515000", "174744.515000", "174744.531000", "174744.531000", "174744.531000", "174744.531000", "174744.531000", "174744.531000", "174744.531000", "174744.546000", "174744.546000", "174744.546000", "174744.546000", "174744.546000", "174744.546000", "174844.484000", "174844.500000", "174844.500000", "174844.500000", "174844.500000", "174844.500000", "174844.500000", "174844.500000", "174844.515000", "174844.515000", "174844.515000", "174844.515000", "174844.515000", "174844.515000", "174844.515000", "174844.531000", "174844.531000", "174844.531000", "174844.531000", "174844.531000", "174844.531000", "174844.531000", "174844.546000", "174844.546000", "174844.546000", "174844.546000", "174844.546000", "174844.546000", "174844.546000", "174944.484000", "174944.500000", "174944.500000", "174944.500000", "174944.500000", "174944.500000", "174944.500000", "174944.500000", "174944.515000", "174944.515000", "174944.515000", "174944.515000", "174944.515000", "174944.515000", "174944.515000", "174944.531000", "174944.531000", "174944.531000", "174944.531000", "174944.531000", "174944.531000", "174944.546000", "174944.546000", "174944.546000", "174944.546000", "174944.546000", "174944.546000", "174944.546000", "175044.484000", "175044.500000", "175044.500000", "175044.500000", "175044.500000", "175044.500000", "175044.500000", "175044.500000", "175044.515000", "175044.515000", "175044.515000", "175044.515000", "175044.515000", "175044.515000", "175044.515000", "175044.531000", "175044.531000", "175044.531000", "175044.531000", "175044.531000", "175044.531000", "175044.546000", "175044.546000", "175044.546000", "175044.546000", "175044.546000", "175044.562000", "175044.562000", "175144.484000", "175144.500000", "175144.500000", "175144.500000", "175144.500000", "175144.500000", "175144.500000", "175144.500000", "175144.515000", "175144.515000", "175144.515000", "175144.515000", "175144.515000", "175144.515000", "175144.515000", "175144.531000", "175144.531000", "175144.531000", "175144.531000", "175144.531000", "175144.531000", "175144.531000", "175144.546000", "175144.546000", "175144.546000", "175144.546000", "175144.546000", "175144.546000", "175204.484000", "175204.500000", "175204.500000", "175204.500000", "175204.500000", "175204.500000", "175204.500000", "175204.500000", "175204.515000", "175204.515000", "175304.484000", "175304.500000", "175304.500000", "175304.500000", "175304.500000", "175304.500000", "175304.500000", "175304.500000", "175304.515000", "175304.515000", "175304.515000", "175304.515000", "175304.515000", "175304.515000", "175304.515000", "175304.531000", "175304.531000", "175304.531000", "175304.531000", "175304.531000", "175304.531000", "175304.531000", "175304.546000", "175304.546000", "175304.546000", "175304.546000", "175304.546000", "175304.546000", "175404.484000", "175404.500000", "175404.500000", "175404.500000", "175404.500000", "175404.500000", "175404.500000", "175404.500000", "175404.515000", "175404.515000", "175404.515000", "175404.515000", "175404.515000", "175404.515000", "175404.515000", "175404.531000", "175404.531000", "175404.531000", "175404.531000", "175404.531000", "175404.531000", "175404.531000", "175404.546000", "175404.546000", "175404.546000", "175404.546000", "175404.546000", "175404.546000", "175504.484000", "175504.500000", "175504.500000", "175504.500000", "175504.500000", "175504.500000", "175504.500000", "175504.500000", "175504.515000", "175504.515000", "175504.515000", "175504.515000", "175504.515000", "175504.515000", "175504.515000", "175504.531000", "175504.531000", "175504.531000", "175504.531000", "175504.531000", "175504.531000", "175504.546000", "175504.546000", "175504.546000", "175504.546000", "175504.546000", "175504.562000", "175504.562000", "175604.484000", "175604.500000", "175604.500000", "175604.500000", "175604.500000", "175604.500000", "175604.500000", "175604.500000", "175604.515000", "175604.515000", "175604.515000", "175604.515000", "175604.515000", "175604.531000", "175604.531000", "175604.531000", "175604.531000", "175604.531000", "175604.531000", "175604.546000", "175604.546000", "175604.546000", "175604.546000", "175604.562000", "175604.562000", "175604.562000", "175604.562000", "175604.562000", "175604.562000", "175704.484000", "175704.500000", "175704.500000", "175704.500000", "175704.500000", "175704.500000", "175704.500000", "175704.500000", "175704.515000", "175704.515000", "175704.515000", "175704.515000", "175704.515000", "175704.515000", "175704.531000", "175704.531000", "175704.531000", "175704.531000", "175704.531000", "175704.531000", "175704.531000", "175704.546000", "175704.546000", "175704.546000", "175704.546000", "175704.546000", "175704.546000", "175704.546000", "175804.484000", "175804.500000", "175804.500000", "175804.500000", "175804.500000", "175804.500000", "175804.500000", "175804.500000", "175804.515000", "175804.515000", "175804.515000", "175804.515000", "175804.515000", "175804.515000", "175804.515000", "175804.531000", "175804.531000", "175804.531000", "175804.531000", "175804.531000", "175804.531000", "175804.531000", "175804.546000", "175804.546000", "175804.546000", "175804.546000", "175804.546000", "175804.546000", "175904.484000", "175904.500000", "175904.500000", "175904.500000", "175904.500000", "175904.500000", "175904.500000", "175904.500000", "175904.515000", "175904.515000", "175904.515000", "175904.515000", "175904.515000", "175904.515000", "175904.515000", "175904.531000", "175904.531000", "175904.531000", "175904.531000", "175904.531000", "175904.531000", "175904.546000", "175904.546000", "175904.546000", "175904.546000", "175904.546000", "175904.546000", "175904.546000", "180004.484000", "180004.500000", "180004.500000", "180004.500000", "180004.500000", "180004.500000", "180004.500000", "180004.500000", "180004.515000", "180004.515000", "180004.515000", "180004.515000", "180004.515000", "180004.515000", "180004.515000", "180004.531000", "180004.531000", "180004.531000", "180004.531000", "180004.531000", "180004.531000", "180004.531000", "180004.546000", "180004.546000", "180004.546000", "180004.546000", "180004.546000", "180004.546000", "180004.562000", "180104.484000", "180104.500000", "180104.500000", "180104.500000", "180104.500000", "180104.500000", "180104.500000", "180104.500000", "180104.515000", "180104.515000", "180104.515000", "180104.515000", "180104.515000", "180104.515000", "180104.515000", "180104.531000", "180104.531000", "180104.531000", "180104.531000", "180104.531000", "180104.531000", "180104.531000", "180104.546000", "180104.546000", "180104.546000", "180104.546000", "180104.546000", "180104.546000", "180204.484000", "180204.500000", "180204.500000", "180204.500000", "180204.500000", "180204.500000", "180204.500000", "180204.500000", "180204.515000", "180204.515000", "180204.515000", "180204.515000", "180204.515000", "180204.515000", "180204.515000", "180204.531000", "180204.531000", "180204.531000", "180204.531000", "180204.531000", "180204.531000", "180204.531000", "180204.546000", "180204.546000", "180204.546000", "180204.546000", "180204.546000", "180204.546000", "180304.484000", "180304.500000", "180304.500000", "180304.500000", "180304.500000", "180304.500000", "180304.500000", "180304.500000", "180304.515000", "180304.515000", "180304.515000", "180304.515000", "180304.515000", "180304.531000", "180304.531000", "180304.531000", "180304.531000", "180304.531000", "180304.531000", "180304.546000", "180304.546000", "180304.546000", "180304.546000", "180304.546000", "180304.546000", "180304.546000", "180304.562000", "180304.562000", "180404.484000", "180404.500000", "180404.500000", "180404.500000", "180404.500000", "180404.500000", "180404.500000", "180404.500000", "180404.515000", "180404.515000", "180404.515000", "180404.515000", "180404.515000", "180404.515000", "180404.515000", "180404.531000", "180404.531000", "180404.531000", "180404.531000", "180404.531000", "180404.531000", "180404.546000", "180404.546000", "180404.546000", "180404.546000", "180404.546000", "180404.546000", "180404.562000", "180404.562000", "180408.171000", "180408.171000"],
