{
  "AcquisitionMatrixPE": 104,
  "AcquisitionNumber": 1,
  "AcquisitionTime": "15:57:5.725000",
  "BandwidthPerPixelPhaseEncode": 13.935,
  "BaseResolution": 104,
  "CoilString": "C:HEA;HEP",
  "ConversionSoftware": "dcm2niix",
  "ConversionSoftwareVersion": "v1.0.20210317",
  "DerivedVendorReportedEchoSpacing": 0.000690017,
  "DeviceSerialNumber": "35450",
  "DwellTime": 2.5e-06,
  "EchoTime": 0.0348,
  "EffectiveEchoSpacing": 0.000690017,
  "FlipAngle": 55,
  "ImageComments": "Unaliased MB8/PE3",
  "ImageOrientationPatientDICOM": [0.999553, -0.00270044, -0.02976, -4.51451e-08, 0.995908, -0.090371],
  "ImageType": [
    "ORIGINAL",
    "PRIMARY",
    "M",
    "MB",
    "ND",
    "MOSAIC"
],
  "ImagingFrequency": 123.234,
  "InPlanePhaseEncodingDirectionDICOM": "COL",
  "InstitutionAddress": "Univeristy Ave. 197,Newark,North East,US,07102-1814",
  "InstitutionName": "RUBIC",
  "InstitutionalDepartmentName": "Department",
  "MRAcquisitionType": "2D",
  "MagneticFieldStrength": 3,
  "Manufacturer": "Siemens",
  "ManufacturersModelName": "TrioTim",
  "Modality": "MR",
  "MultibandAccelerationFactor": 8,
  "PartialFourier": 0.875,
  "PatientPosition": "HFS",
  "PercentPhaseFOV": 100,
  "PercentSampling": 100,
  "PhaseEncodingDirection": "j-",
  "PhaseEncodingSteps": 91,
  "PhaseResolution": 1,
  "PixelBandwidth": 1923,
  "ProcedureStepDescription": "Cole^Michael",
  "ProtocolName": "cmrr_mbep2d_bold_2mm_MB8_Task_8x",
  "PulseSequenceDetails": "%CustomerSeq%\\cmrr_mbep2d_bold",
  "ReceiveCoilName": "32Ch_Head",
  "ReconMatrixPE": 104,
  "RepetitionTime": 0.785,
  "SAR": 0.0970201,
  "ScanOptions": "PFP\\FS",
  "ScanningSequence": "EP",
  "SequenceName": "epfid2d1_104",
  "SequenceVariant": "SK\\SS",
  "SeriesDescription": "cmrr_mbep2d_bold_2mm_MB8_Task_8x",
  "SeriesNumber": 15,
  "ShimSetting": [2067, -402, -7326, 583, -14, -116, 186, -2],
  "SliceThickness": 2,
  "SliceTiming": [0, 0.4375, 0.0875, 0.525, 0.175, 0.6125, 0.2625, 0.7, 0.35, 0, 0.4375, 0.0875, 0.525, 0.175, 0.6125, 0.2625, 0.7, 0.35, 0, 0.4375, 0.0875, 0.525, 0.175, 0.6125, 0.2625, 0.7, 0.35, 0, 0.4375, 0.0875, 0.525, 0.175, 0.6125, 0.2625, 0.7, 0.35, 0, 0.4375, 0.0875, 0.525, 0.175, 0.6125, 0.2625, 0.7, 0.35, 0, 0.4375, 0.0875, 0.525, 0.175, 0.6125, 0.2625, 0.7, 0.35, 0, 0.4375, 0.0875, 0.525, 0.175, 0.6125, 0.2625, 0.7, 0.35, 0, 0.4375, 0.0875, 0.525, 0.175, 0.6125, 0.2625, 0.7, 0.35],
  "SoftwareVersions": "syngo MR B19",
  "SpacingBetweenSlices": 2,
  "StationName": "MRC35450",
  "TaskName": "cpro",
  "TotalReadoutTime": 0.0710717,
  "TxRefAmp": 314.481,
  "dcmmeta_affine": [
    [-1.9991068840026855, -9.029015046735367e-08, -0.05976450443267822, 105.97872161865234],
    [0.005400888156145811, 1.9918162822723389, -0.18066130578517914, -79.74598693847656],
    [-0.05951996520161629, 0.18074201047420502, 1.9909268617630005, -101.71373748779297],
    [0.0, 0.0, 0.0, 1.0]
],
  "dcmmeta_reorient_transform": [
    [0.0, -1.0, 0.0, 103.0],
    [1.0, 0.0, 0.0, 0.0],
    [0.0, 0.0, 1.0, 0.0],
    [0.0, 0.0, 0.0, 1.0]
],
  "dcmmeta_shape": [104, 104, 72, 581],
  "dcmmeta_slice_dim": 2,
  "dcmmeta_version": 0.6,
  "global": {
    "const": {
      "AcquisitionMatrix": [104, 0, 0, 104],
      "AngioFlag": "N",
      "BitsAllocated": 16,
      "BitsStored": 12,
      "Columns": 936,
      "EchoNumbers": 1,
      "EchoTime": 34.8,
      "EchoTrainLength": 1,
      "FlipAngle": 55.0,
      "HighBit": 11,
      "ImageOrientationPatient": [0.99955342582259, -0.0027004441543, -0.0297599819841, -4.5145075e-08, 0.99590816907338, -0.0903710062626],
      "ImagePositionPatient": [-937.60712629574, -951.75992129274, 16.851670245463],
      "ImageType": [
        "ORIGINAL",
        "PRIMARY",
        "M",
        "MB",
        "ND",
        "MOSAIC"
],
      "ImagedNucleus": "1H",
      "ImagingFrequency": 123.234462,
      "InPlanePhaseEncodingDirection": "COL",
      "MRAcquisitionType": "2D",
      "MagneticFieldStrength": 3.0,
      "Manufacturer": "SIEMENS",
      "ManufacturerModelName": "TrioTim",
      "Modality": "MR",
      "NumberOfAverages": 1.0,
      "NumberOfPhaseEncodingSteps": 91,
      "PercentPhaseFieldOfView": 100.0,
      "PercentSampling": 100.0,
      "PerformedProcedureStepStartTime": "144154.796000",
      "PhotometricInterpretation": "MONOCHROME2",
      "PixelBandwidth": 1923.0,
      "PixelRepresentation": 0,
      "PixelSpacing": [2.0, 2.0],
      "ProtocolName": "cmrr_mbep2d_bold_2mm_MB8_Task_8x",
      "RepetitionTime": 785.0,
      "Rows": 936,
      "SAR": 0.09702006861576,
      "SamplesPerPixel": 1,
      "ScanOptions": [
        "PFP",
        "FS"
],
      "ScanningSequence": "EP",
      "SequenceName": "epfid2d1_104",
      "SequenceVariant": [
        "SK",
        "SS"
],
      "SeriesDescription": "cmrr_mbep2d_bold_2mm_MB8_Task_8x",
      "SeriesNumber": 15,
      "SeriesTime": "164036.609000",
      "SliceLocation": -97.215682751145,
      "SliceThickness": 2.0,
      "SmallestImagePixelValue": 0,
      "SoftwareVersions": "syngo MR B19",
      "SpacingBetweenSlices": 2.0000000320349,
      "SpecificCharacterSet": "ISO_IR 100",
      "StudyID": "1",
      "StudyTime": "144154.765000",
      "TransmitCoilName": "Body",
      "VariableFlipAngleFlag": "N",
      "WindowCenterWidthExplanation": "Algo1",
      "dBdt": 0.0},
    "slices": {}
  },
  "time": {
    "samples": {
      "AcquisitionNumber": [1, 2, 3, 4, 5, 6, 7, 8, 9, 10, 11, 12, 13, 14, 15, 16, 17, 18, 19, 20, 21, 22, 23, 24, 25, 26, 27, 28, 29, 30, 31, 32, 33, 34, 35, 36, 37, 38, 39, 40, 41, 42, 43, 44, 45, 46, 47, 48, 49, 50, 51, 52, 53, 54, 55, 56, 57, 58, 59, 60, 61, 62, 63, 64, 65, 66, 67, 68, 69, 70, 71, 72, 73, 74, 75, 76, 77, 78, 79, 80, 81, 82, 83, 84, 85, 86, 87, 88, 89, 90, 91, 92, 93, 94, 95, 96, 97, 98, 99, 100, 101, 102, 103, 104, 105, 106, 107, 108, 109, 110, 111, 112, 113, 114, 115, 116, 117, 118, 119, 120, 121, 122, 123, 124, 125, 126, 127, 128, 129, 130, 131, 132, 133, 134, 135, 136, 137, 138, 139, 140, 141, 142, 143, 144, 145, 146, 147, 148, 149, 150, 151, 152, 153, 154, 155, 156, 157, 158, 159, 160, 161, 162, 163, 164, 165, 166, 167, 168, 169, 170, 171, 172, 173, 174, 175, 176, 177, 178, 179, 180, 181, 182, 183, 184, 185, 186, 187, 188, 189, 190, 191, 192, 193, 194, 195, 196, 197, 198, 199, 200, 201, 202, 203, 204, 205, 206, 207, 208, 209, 210, 211, 212, 213, 214, 215, 216, 217, 218, 219, 220, 221, 222, 223, 224, 225, 226, 227, 228, 229, 230, 231, 232, 233, 234, 235, 236, 237, 238, 239, 240, 241, 242, 243, 244, 245, 246, 247, 248, 249, 250, 251, 252, 253, 254, 255, 256, 257, 258, 259, 260, 261, 262, 263, 264, 265, 266, 267, 268, 269, 270, 271, 272, 273, 274, 275, 276, 277, 278, 279, 280, 281, 282, 283, 284, 285, 286, 287, 288, 289, 290, 291, 292, 293, 294, 295, 296, 297, 298, 299, 300, 301, 302, 303, 304, 305, 306, 307, 308, 309, 310, 311, 312, 313, 314, 315, 316, 317, 318, 319, 320, 321, 322, 323, 324, 325, 326, 327, 328, 329, 330, 331, 332, 333, 334, 335, 336, 337, 338, 339, 340, 341, 342, 343, 344, 345, 346, 347, 348, 349, 350, 351, 352, 353, 354, 355, 356, 357, 358, 359, 360, 361, 362, 363, 364, 365, 366, 367, 368, 369, 370, 371, 372, 373, 374, 375, 376, 377, 378, 379, 380, 381, 382, 383, 384, 385, 386, 387, 388, 389, 390, 391, 392, 393, 394, 395, 396, 397, 398, 399, 400, 401, 402, 403, 404, 405, 406, 407, 408, 409, 410, 411, 412, 413, 414, 415, 416, 417, 418, 419, 420, 421, 422, 423, 424, 425, 426, 427, 428, 429, 430, 431, 432, 433, 434, 435, 436, 437, 438, 439, 440, 441, 442, 443, 444, 445, 446, 447, 448, 449, 450, 451, 452, 453, 454, 455, 456, 457, 458, 459, 460, 461, 462, 463, 464, 465, 466, 467, 468, 469, 470, 471, 472, 473, 474, 475, 476, 477, 478, 479, 480, 481, 482, 483, 484, 485, 486, 487, 488, 489, 490, 491, 492, 493, 494, 495, 496, 497, 498, 499, 500, 501, 502, 503, 504, 505, 506, 507, 508, 509, 510, 511, 512, 513, 514, 515, 516, 517, 518, 519, 520, 521, 522, 523, 524, 525, 526, 527, 528, 529, 530, 531, 532, 533, 534, 535, 536, 537, 538, 539, 540, 541, 542, 543, 544, 545, 546, 547, 548, 549, 550, 551, 552, 553, 554, 555, 556, 557, 558, 559, 560, 561, 562, 563, 564, 565, 566, 567, 568, 569, 570, 571, 572, 573, 574, 575, 576, 577, 578, 579, 580, 581],
      "AcquisitionTime": ["155705.725000", "155706.512500", "155707.300000", "155708.090000", "155708.877500", "155709.665000", "155710.452500", "155711.242500", "155712.030000", "155712.817500", "155713.605000", "155714.395000", "155715.182500", "155715.970000", "155716.760000", "155717.547500", "155718.335000", "155719.122500", "155719.912500", "155720.700000", "155721.487500", "155722.275000", "155723.065000", "155723.852500", "155724.640000", "155725.427500", "155726.217500", "155727.005000", "155727.792500", "155728.580000", "155729.370000", "155730.157500", "155730.945000", "155731.732500", "155732.522500", "155733.310000", "155734.097500", "155734.887500", "155735.675000", "155736.462500", "155737.250000", "155738.040000", "155738.827500", "155739.615000", "155740.402500", "155741.192500", "155741.980000", "155742.767500", "155743.555000", "155744.345000", "155745.132500", "155745.920000", "155746.707500", "155747.497500", "155748.285000", "155749.072500", "155749.860000", "155750.650000", "155751.437500", "155752.225000", "155753.015000", "155753.802500", "155754.590000", "155755.377500", "155756.167500", "155756.955000", "155757.742500", "155758.530000", "155759.320000", "155800.107500", "155800.895000", "155801.682500", "155802.472500", "155803.260000", "155804.047500", "155804.835000", "155805.625000", "155806.412500", "155807.200000", "155807.987500", "155808.777500", "155809.565000", "155810.352500", "155811.142500", "155811.930000", "155812.717500", "155813.505000", "155814.295000", "155815.082500", "155815.870000", "155816.657500", "155817.447500", "155818.235000", "155819.022500", "155819.810000", "155820.600000", "155821.387500", "155822.175000", "155822.962500", "155823.752500", "155824.540000", "155825.327500", "155826.115000", "155826.905000", "155827.692500", "155828.480000", "155829.270000", "155830.057500", "155830.845000", "155831.632500", "155832.422500", "155833.210000", "155833.997500", "155834.785000", "155835.575000", "155836.362500", "155837.150000", "155837.937500", "155838.727500", "155839.515000", "155840.302500", "155841.090000", "155841.880000", "155842.667500", "155843.455000", "155844.242500", "155845.032500", "155845.820000", "155846.607500", "155847.397500", "155848.185000", "155848.972500", "155849.760000", "155850.550000", "155851.337500", "155852.125000", "155852.912500", "155853.702500", "155854.490000", "155855.277500", "155856.065000", "155856.855000", "155857.642500", "155858.430000", "155859.217500", "155900.007500", "155900.795000", "155901.582500", "155902.370000", "155903.160000", "155903.947500", "155904.735000", "155905.525000", "155906.312500", "155907.100000", "155907.887500", "155908.677500", "155909.465000", "155910.252500", "155911.040000", "155911.830000", "155912.617500", "155913.405000", "155914.192500", "155914.982500", "155915.770000", "155916.557500", "155917.345000", "155918.135000", "155918.922500", "155919.710000", "155920.497500", "155921.287500", "155922.075000", "155922.862500", "155923.652500", "155924.440000", "155925.227500", "155926.015000", "155926.805000", "155927.592500", "155928.380000", "155929.167500", "155929.957500", "155930.745000", "155931.532500", "155932.320000", "155933.110000", "155933.897500", "155934.685000", "155935.472500", "155936.262500", "155937.050000", "155937.837500", "155938.625000", "155939.415000", "155940.202500", "155940.990000", "155941.780000", "155942.567500", "155943.355000", "155944.142500", "155944.932500", "155945.720000", "155946.507500", "155947.295000", "155948.085000", "155948.872500", "155949.660000", "155950.447500", "155951.237500", "155952.025000", "155952.812500", "155953.600000", "155954.390000", "155955.177500", "155955.965000", "155956.752500", "155957.542500", "155958.330000", "155959.117500", "155959.907500", "160000.695000", "160001.482500", "160002.270000", "160003.060000", "160003.847500", "160004.635000", "160005.422500", "160006.212500", "160007.000000", "160007.787500", "160008.575000", "160009.365000", "160010.152500", "160010.940000", "160011.727500", "160012.517500", "160013.305000", "160014.092500", "160014.882500", "160015.670000", "160016.457500", "160017.245000", "160018.035000", "160018.822500", "160019.610000", "160020.397500", "160021.187500", "160021.975000", "160022.762500", "160023.550000", "160024.340000", "160025.127500", "160025.915000", "160026.702500", "160027.492500", "160028.280000", "160029.067500", "160029.855000", "160030.645000", "160031.432500", "160032.220000", "160033.010000", "160033.797500", "160034.585000", "160035.372500", "160036.162500", "160036.950000", "160037.737500", "160038.525000", "160039.315000", "160040.102500", "160040.890000", "160041.677500", "160042.467500", "160043.255000", "160044.042500", "160044.830000", "160045.620000", "160046.407500", "160047.195000", "160047.982500", "160048.772500", "160049.560000", "160050.347500", "160051.137500", "160051.925000", "160052.712500", "160053.500000", "160054.290000", "160055.077500", "160055.865000", "160056.652500", "160057.442500", "160058.230000", "160059.017500", "160059.805000", "160100.595000", "160101.382500", "160102.170000", "160102.957500", "160103.747500", "160104.535000", "160105.322500", "160106.110000", "160106.900000", "160107.687500", "160108.475000", "160109.265000", "160110.052500", "160110.840000", "160111.627500", "160112.417500", "160113.205000", "160113.992500", "160114.780000", "160115.570000", "160116.357500", "160117.145000", "160117.932500", "160118.722500", "160119.510000", "160120.297500", "160121.085000", "160121.875000", "160122.662500", "160123.450000", "160124.237500", "160125.027500", "160125.815000", "160126.602500", "160127.392500", "160128.180000", "160128.967500", "160129.755000", "160130.545000", "160131.332500", "160132.120000", "160132.907500", "160133.697500", "160134.485000", "160135.272500", "160136.060000", "160136.850000", "160137.637500", "160138.425000", "160139.212500", "160140.002500", "160140.790000", "160141.577500", "160142.365000", "160143.155000", "160143.942500", "160144.730000", "160145.520000", "160146.307500", "160147.095000", "160147.882500", "160148.672500", "160149.460000", "160150.247500", "160151.035000", "160151.825000", "160152.612500", "160153.400000", "160154.187500", "160154.977500", "160155.765000", "160156.552500", "160157.340000", "160158.130000", "160158.917500", "160159.705000", "160200.492500", "160201.282500", "160202.070000", "160202.857500", "160203.647500", "160204.435000", "160205.222500", "160206.010000", "160206.800000", "160207.587500", "160208.375000", "160209.162500", "160209.952500", "160210.740000", "160211.527500", "160212.315000", "160213.105000", "160213.892500", "160214.680000", "160215.467500", "160216.257500", "160217.045000", "160217.832500", "160218.620000", "160219.410000", "160220.197500", "160220.985000", "160221.775000", "160222.562500", "160223.350000", "160224.137500", "160224.927500", "160225.715000", "160226.502500", "160227.290000", "160228.080000", "160228.867500", "160229.655000", "160230.442500", "160231.232500", "160232.020000", "160232.807500", "160233.595000", "160234.385000", "160235.172500", "160235.960000", "160236.747500", "160237.537500", "160238.325000", "160239.112500", "160239.902500", "160240.690000", "160241.477500", "160242.265000", "160243.055000", "160243.842500", "160244.630000", "160245.417500", "160246.207500", "160246.995000", "160247.782500", "160248.570000", "160249.360000", "160250.147500", "160250.935000", "160251.722500", "160252.512500", "160253.300000", "160254.087500", "160254.875000", "160255.665000", "160256.452500", "160257.240000", "160258.030000", "160258.817500", "160259.605000", "160300.392500", "160301.182500", "160301.970000", "160302.757500", "160303.545000", "160304.335000", "160305.122500", "160305.910000", "160306.697500", "160307.487500", "160308.275000", "160309.062500", "160309.850000", "160310.640000", "160311.427500", "160312.215000", "160313.002500", "160313.792500", "160314.580000", "160315.367500", "160316.157500", "160316.945000", "160317.732500", "160318.520000", "160319.310000", "160320.097500", "160320.885000", "160321.672500", "160322.462500", "160323.250000", "160324.037500", "160324.825000", "160325.615000", "160326.402500", "160327.190000", "160327.977500", "160328.767500", "160329.555000", "160330.342500", "160331.132500", "160331.920000", "160332.707500", "160333.495000", "160334.285000", "160335.072500", "160335.860000", "160336.647500", "160337.437500", "160338.225000", "160339.012500", "160339.800000", "160340.590000", "160341.377500", "160342.165000", "160342.952500", "160343.742500", "160344.530000", "160345.317500", "160346.105000", "160346.895000", "160347.682500", "160348.470000", "160349.260000", "160350.047500", "160350.835000", "160351.622500", "160352.412500", "160353.200000", "160353.987500", "160354.775000", "160355.565000", "160356.352500", "160357.140000", "160357.927500", "160358.717500", "160359.505000", "160400.292500", "160401.080000", "160401.870000", "160402.657500", "160403.445000", "160404.232500", "160405.022500", "160405.810000", "160406.597500", "160407.387500", "160408.175000", "160408.962500", "160409.750000", "160410.540000", "160411.327500", "160412.115000", "160412.902500", "160413.692500", "160414.480000", "160415.267500", "160416.055000", "160416.845000", "160417.632500", "160418.420000", "160419.207500", "160419.997500", "160420.785000", "160421.572500", "160422.360000", "160423.150000", "160423.937500", "160424.725000", "160425.515000", "160426.302500", "160427.090000", "160427.877500", "160428.667500", "160429.455000", "160430.242500", "160431.030000", "160431.820000", "160432.607500", "160433.395000", "160434.182500", "160434.972500", "160435.760000", "160436.547500", "160437.335000", "160438.125000", "160438.912500", "160439.700000", "160440.487500", "160441.277500", "160442.065000", "160442.852500"],
      "ContentTime": ["164036.609000", "164036.609000", "164036.625000", "164036.625000", "164136.593000", "164136.593000", "164136.593000", "164136.593000", "164136.593000", "164136.609000", "164136.609000", "164136.609000", "164136.609000", "164136.609000", "164136.609000", "164136.609000", "164136.625000", "164136.625000", "164136.625000", "164136.625000", "164136.625000", "164136.625000", "164136.625000", "164136.640000", "164136.640000", "164136.640000", "164136.640000", "164136.640000", "164136.640000", "164136.640000", "164136.656000", "164136.656000", "164236.593000", "164236.593000", "164236.593000", "164236.593000", "164236.593000", "164236.609000", "164236.609000", "164236.609000", "164236.609000", "164236.609000", "164236.609000", "164236.609000", "164236.625000", "164236.625000", "164236.625000", "164236.625000", "164236.625000", "164236.625000", "164236.625000", "164236.625000", "164236.640000", "164236.640000", "164236.640000", "164236.640000", "164236.640000", "164236.640000", "164236.656000", "164336.593000", "164336.593000", "164336.593000", "164336.593000", "164336.593000", "164336.609000", "164336.609000", "164336.609000", "164336.609000", "164336.609000", "164336.609000", "164336.609000", "164336.625000", "164336.625000", "164336.625000", "164336.625000", "164336.625000", "164336.625000", "164336.625000", "164336.640000", "164336.640000", "164336.640000", "164336.640000", "164336.640000", "164336.640000", "164336.656000", "164336.656000", "164336.656000", "164436.593000", "164436.593000", "164436.593000", "164436.593000", "164436.609000", "164436.609000", "164436.609000", "164436.609000", "164436.609000", "164436.609000", "164436.625000", "164436.625000", "164436.625000", "164436.625000", "164436.625000", "164436.640000", "164436.640000", "164436.640000", "164436.640000", "164436.640000", "164436.640000", "164436.656000", "164436.656000", "164436.656000", "164436.656000", "164436.656000", "164436.656000", "164536.593000", "164536.593000", "164536.593000", "164536.593000", "164536.593000", "164536.609000", "164536.609000", "164536.609000", "164536.609000", "164536.609000", "164536.609000", "164536.609000", "164536.625000", "164536.625000", "164536.625000", "164536.625000", "164536.625000", "164536.625000", "164536.625000", "164536.640000", "164536.640000", "164536.640000", "164536.640000", "164536.640000", "164536.640000", "164536.656000", "164536.656000", "164536.656000", "164636.593000", "164636.593000", "164636.593000", "164636.593000", "164636.593000", "164636.609000", "164636.609000", "164636.609000", "164636.609000", "164636.609000", "164636.609000", "164636.609000", "164636.625000", "164636.625000", "164636.625000", "164636.625000", "164636.625000", "164636.625000", "164636.625000", "164636.640000", "164636.640000", "164636.640000", "164636.640000", "164636.640000", "164636.640000", "164636.640000", "164636.656000", "164716.593000", "164716.593000", "164716.593000", "164716.593000", "164716.593000", "164716.609000", "164716.609000", "164716.609000", "164716.609000", "164716.609000", "164716.609000", "164716.609000", "164716.625000", "164716.625000", "164716.625000", "164716.625000", "164716.625000", "164716.625000", "164716.625000", "164816.593000", "164816.593000", "164816.593000", "164816.593000", "164816.593000", "164816.609000", "164816.609000", "164816.609000", "164816.609000", "164816.609000", "164816.609000", "164816.609000", "164816.625000", "164816.625000", "164816.625000", "164816.625000", "164816.625000", "164816.640000", "164816.640000", "164816.640000", "164816.640000", "164816.640000", "164816.640000", "164816.640000", "164816.656000", "164816.656000", "164816.656000", "164916.593000", "164916.593000", "164916.593000", "164916.593000", "164916.593000", "164916.609000", "164916.609000", "164916.609000", "164916.609000", "164916.609000", "164916.609000", "164916.609000", "164916.625000", "164916.625000", "164916.625000", "164916.625000", "164916.625000", "164916.625000", "164916.640000", "164916.640000", "164916.640000", "164916.640000", "164916.640000", "164916.640000", "164916.640000", "164916.656000", "164916.656000", "165016.593000", "165016.593000", "165016.593000", "165016.593000", "165016.593000", "165016.609000", "165016.609000", "165016.609000", "165016.609000", "165016.609000", "165016.609000", "165016.609000", "165016.625000", "165016.625000", "165016.625000", "165016.625000", "165016.625000", "165016.625000", "165016.640000", "165016.640000", "165016.640000", "165016.640000", "165016.640000", "165016.640000", "165016.656000", "165016.656000", "165016.656000", "165016.656000", "165116.593000", "165116.593000", "165116.593000", "165116.593000", "165116.593000", "165116.609000", "165116.609000", "165116.609000", "165116.609000", "165116.609000", "165116.609000", "165116.609000", "165116.625000", "165116.625000", "165116.625000", "165116.625000", "165116.625000", "165116.625000", "165116.625000", "165116.640000", "165116.640000", "165116.640000", "165116.640000", "165116.640000", "165116.640000", "165116.640000", "165116.656000", "165216.593000", "165216.593000", "165216.593000", "165216.593000", "165216.593000", "165216.609000", "165216.609000", "165216.609000", "165216.609000", "165216.609000", "165216.609000", "165216.625000", "165216.625000", "165216.625000", "165216.625000", "165216.625000", "165216.625000", "165216.625000", "165216.640000", "165216.640000", "165216.640000", "165216.640000", "165216.656000", "165216.656000", "165216.656000", "165216.656000", "165216.656000", "165316.593000", "165316.593000", "165316.593000", "165316.593000", "165316.593000", "165316.609000", "165316.609000", "165316.609000", "165316.609000", "165316.609000", "165316.609000", "165316.609000", "165316.625000", "165316.625000", "165316.625000", "165316.625000", "165316.625000", "165316.640000", "165316.640000", "165316.640000", "165316.640000", "165316.640000", "165316.640000", "165316.640000", "165316.656000", "165316.656000", "165316.656000", "165316.656000", "165416.593000", "165416.593000", "165416.593000", "165416.593000", "165416.593000", "165416.609000", "165416.609000", "165416.609000", "165416.609000", "165416.609000", "165416.625000", "165416.625000", "165416.625000", "165416.625000", "165416.625000", "165416.625000", "165416.625000", "165416.640000", "165416.640000", "165416.640000", "165416.640000", "165416.640000", "165416.656000", "165416.656000", "165416.656000", "165416.656000", "165416.671000", "165516.593000", "165516.593000", "165516.593000", "165516.609000", "165516.609000", "165516.609000", "165516.609000", "165516.609000", "165516.609000", "165516.609000", "165516.625000", "165516.625000", "165516.625000", "165516.625000", "165516.640000", "165516.640000", "165516.640000", "165516.640000", "165516.640000", "165516.656000", "165516.656000", "165516.656000", "165516.656000", "165516.656000", "165516.656000", "165516.656000", "165516.671000", "165516.671000", "165616.593000", "165616.593000", "165616.593000", "165616.609000", "165616.609000", "165616.609000", "165616.609000", "165616.609000", "165616.609000", "165616.625000", "165616.625000", "165616.625000", "165616.625000", "165616.625000", "165616.625000", "165616.640000", "165616.640000", "165616.640000", "165616.640000", "165616.640000", "165616.640000", "165616.640000", "165616.640000", "165616.656000", "165616.656000", "165616.656000", "165616.656000", "165616.656000", "165716.593000", "165716.593000", "165716.593000", "165716.609000", "165716.609000", "165716.609000", "165716.609000", "165716.609000", "165716.609000", "165716.609000", "165716.625000", "165716.625000", "165716.625000", "165716.625000", "165716.625000", "165716.625000", "165716.625000", "165716.640000", "165716.640000", "165716.640000", "165716.640000", "165716.640000", "165716.640000", "165716.656000", "165716.656000", "165716.656000", "165716.656000", "165716.656000", "165816.593000", "165816.593000", "165816.593000", "165816.609000", "165816.609000", "165816.609000", "165816.609000", "165816.609000", "165816.609000", "165816.609000", "165816.625000", "165816.625000", "165816.625000", "165816.625000", "165816.625000", "165816.625000", "165816.625000", "165816.640000", "165816.640000", "165816.640000", "165816.640000", "165816.640000", "165816.656000", "165816.656000", "165816.656000", "165816.656000", "165816.656000", "165916.593000", "165916.593000", "165916.593000", "165916.609000", "165916.609000", "165916.609000", "165916.609000", "165916.609000", "165916.609000", "165916.609000", "165916.625000", "165916.625000", "165916.625000", "165916.625000", "165916.625000", "165916.625000", "165916.625000", "165916.640000", "165916.640000", "165916.640000", "165916.640000", "165916.640000", "165916.640000", "165916.656000", "165916.656000", "165916.656000", "165916.656000", "165916.656000", "170016.593000", "170016.609000", "170016.609000", "170016.609000", "170016.609000", "170016.609000", "170016.609000", "170016.609000", "170016.625000", "170016.625000", "170016.625000", "170016.625000", "170016.625000", "170016.640000", "170016.640000", "170016.640000", "170016.640000", "170016.640000", "170016.656000", "170016.656000", "170016.656000", "170016.656000", "170016.656000", "170016.671000", "170016.671000", "170016.671000", "170016.671000", "170016.671000", "170116.593000", "170116.609000", "170116.609000", "170116.609000", "170116.609000", "170116.609000", "170116.609000", "170116.609000", "170116.625000", "170116.625000", "170116.625000", "170116.625000", "170116.625000", "170116.625000", "170116.640000", "170116.640000", "170116.640000", "170116.640000", "170116.640000", "170116.640000", "170116.640000", "170116.656000", "170116.656000", "170116.656000", "170116.656000", "170116.656000", "170116.656000", "170116.671000", "170131.000000", "170131.000000", "170131.000000", "170131.000000", "170131.000000", "170131.015000", "170131.015000"],
