{
  "AcquisitionMatrixPE": 104,
  "AcquisitionNumber": 1,
  "AcquisitionTime": "16:13:25.742500",
  "BandwidthPerPixelPhaseEncode": 13.935,
  "BaseResolution": 104,
  "CoilString": "C:HEA;HEP",
  "ConversionSoftware": "dcm2niix",
  "ConversionSoftwareVersion": "v1.0.20210317",
  "DerivedVendorReportedEchoSpacing": 0.000690017,
  "DeviceSerialNumber": "35450",
  "DwellTime": 2.5e-06,
  "EchoTime": 0.0348,
  "EffectiveEchoSpacing": 0.000690017,
  "FlipAngle": 55,
  "ImageComments": "Unaliased MB8/PE3",
  "ImageOrientationPatientDICOM": [0.999553, -0.00270044, -0.02976, -4.51451e-08, 0.995908, -0.090371],
  "ImageType": [
    "ORIGINAL",
    "PRIMARY",
    "M",
    "MB",
    "ND",
    "MOSAIC"
],
  "ImagingFrequency": 123.234,
  "InPlanePhaseEncodingDirectionDICOM": "COL",
  "InstitutionAddress": "Univeristy Ave. 197,Newark,North East,US,07102-1814",
  "InstitutionName": "RUBIC",
  "InstitutionalDepartmentName": "Department",
  "MRAcquisitionType": "2D",
  "MagneticFieldStrength": 3,
  "Manufacturer": "Siemens",
  "ManufacturersModelName": "TrioTim",
  "Modality": "MR",
  "MultibandAccelerationFactor": 8,
  "PartialFourier": 0.875,
  "PatientPosition": "HFS",
  "PercentPhaseFOV": 100,
  "PercentSampling": 100,
  "PhaseEncodingDirection": "j-",
  "PhaseEncodingSteps": 91,
  "PhaseResolution": 1,
  "PixelBandwidth": 1923,
  "ProcedureStepDescription": "Cole^Michael",
  "ProtocolName": "cmrr_mbep2d_bold_2mm_MB8_Task_8x",
  "PulseSequenceDetails": "%CustomerSeq%\\cmrr_mbep2d_bold",
  "ReceiveCoilName": "32Ch_Head",
  "ReconMatrixPE": 104,
  "RepetitionTime": 0.785,
  "SAR": 0.0970201,
  "ScanOptions": "PFP\\FS",
  "ScanningSequence": "EP",
  "SequenceName": "epfid2d1_104",
  "SequenceVariant": "SK\\SS",
  "SeriesDescription": "cmrr_mbep2d_bold_2mm_MB8_Task_8x",
  "SeriesNumber": 19,
  "ShimSetting": [2067, -402, -7326, 583, -14, -116, 186, -2],
  "SliceThickness": 2,
  "SliceTiming": [0, 0.4375, 0.0875, 0.525, 0.175, 0.6125, 0.2625, 0.7, 0.35, 0, 0.4375, 0.0875, 0.525, 0.175, 0.6125, 0.2625, 0.7, 0.35, 0, 0.4375, 0.0875, 0.525, 0.175, 0.6125, 0.2625, 0.7, 0.35, 0, 0.4375, 0.0875, 0.525, 0.175, 0.6125, 0.2625, 0.7, 0.35, 0, 0.4375, 0.0875, 0.525, 0.175, 0.6125, 0.2625, 0.7, 0.35, 0, 0.4375, 0.0875, 0.525, 0.175, 0.6125, 0.2625, 0.7, 0.35, 0, 0.4375, 0.0875, 0.525, 0.175, 0.6125, 0.2625, 0.7, 0.35, 0, 0.4375, 0.0875, 0.525, 0.175, 0.6125, 0.2625, 0.7, 0.35],
  "SoftwareVersions": "syngo MR B19",
  "SpacingBetweenSlices": 2,
  "StationName": "MRC35450",
  "TaskName": "cpro",
  "TotalReadoutTime": 0.0710717,
  "TxRefAmp": 314.481,
  "dcmmeta_affine": [
    [-1.9991068840026855, -9.029015046735367e-08, -0.05976450443267822, 105.97872161865234],
    [0.005400888156145811, 1.9918162822723389, -0.18066130578517914, -79.74598693847656],
    [-0.05951996520161629, 0.18074201047420502, 1.9909268617630005, -101.71373748779297],
    [0.0, 0.0, 0.0, 1.0]
],
  "dcmmeta_reorient_transform": [
    [0.0, -1.0, 0.0, 103.0],
    [1.0, 0.0, 0.0, 0.0],
    [0.0, 0.0, 1.0, 0.0],
    [0.0, 0.0, 0.0, 1.0]
],
  "dcmmeta_shape": [104, 104, 72, 581],
  "dcmmeta_slice_dim": 2,
  "dcmmeta_version": 0.6,
  "global": {
    "const": {
      "AcquisitionMatrix": [104, 0, 0, 104],
      "AngioFlag": "N",
      "BitsAllocated": 16,
      "BitsStored": 12,
      "Columns": 936,
      "EchoNumbers": 1,
      "EchoTime": 34.8,
      "EchoTrainLength": 1,
      "FlipAngle": 55.0,
      "HighBit": 11,
      "ImageOrientationPatient": [0.99955342582259, -0.0027004441543, -0.0297599819841, -4.5145075e-08, 0.99590816907338, -0.0903710062626],
      "ImagePositionPatient": [-937.60712629574, -951.75992129274, 16.851670245463],
      "ImageType": [
        "ORIGINAL",
        "PRIMARY",
        "M",
        "MB",
        "ND",
        "MOSAIC"
],
      "ImagedNucleus": "1H",
      "ImagingFrequency": 123.234462,
      "InPlanePhaseEncodingDirection": "COL",
      "MRAcquisitionType": "2D",
      "MagneticFieldStrength": 3.0,
      "Manufacturer": "SIEMENS",
      "ManufacturerModelName": "TrioTim",
      "Modality": "MR",
      "NumberOfAverages": 1.0,
      "NumberOfPhaseEncodingSteps": 91,
      "PercentPhaseFieldOfView": 100.0,
      "PercentSampling": 100.0,
      "PerformedProcedureStepStartTime": "144154.796000",
      "PhotometricInterpretation": "MONOCHROME2",
      "PixelBandwidth": 1923.0,
      "PixelRepresentation": 0,
      "PixelSpacing": [2.0, 2.0],
      "ProtocolName": "cmrr_mbep2d_bold_2mm_MB8_Task_8x",
      "RepetitionTime": 785.0,
      "Rows": 936,
      "SAR": 0.09702006861576,
      "SamplesPerPixel": 1,
      "ScanOptions": [
        "PFP",
        "FS"
],
      "ScanningSequence": "EP",
      "SequenceName": "epfid2d1_104",
      "SequenceVariant": [
        "SK",
        "SS"
],
      "SeriesDescription": "cmrr_mbep2d_bold_2mm_MB8_Task_8x",
      "SeriesNumber": 19,
      "SeriesTime": "172256.937000",
      "SliceLocation": -97.215682751145,
      "SliceThickness": 2.0,
      "SmallestImagePixelValue": 0,
      "SoftwareVersions": "syngo MR B19",
      "SpacingBetweenSlices": 2.0000000320349,
      "SpecificCharacterSet": "ISO_IR 100",
      "StudyID": "1",
      "StudyTime": "144154.765000",
      "TransmitCoilName": "Body",
      "VariableFlipAngleFlag": "N",
      "WindowCenterWidthExplanation": "Algo1",
      "dBdt": 0.0},
    "slices": {}
  },
  "time": {
    "samples": {
      "AcquisitionNumber": [1, 2, 3, 4, 5, 6, 7, 8, 9, 10, 11, 12, 13, 14, 15, 16, 17, 18, 19, 20, 21, 22, 23, 24, 25, 26, 27, 28, 29, 30, 31, 32, 33, 34, 35, 36, 37, 38, 39, 40, 41, 42, 43, 44, 45, 46, 47, 48, 49, 50, 51, 52, 53, 54, 55, 56, 57, 58, 59, 60, 61, 62, 63, 64, 65, 66, 67, 68, 69, 70, 71, 72, 73, 74, 75, 76, 77, 78, 79, 80, 81, 82, 83, 84, 85, 86, 87, 88, 89, 90, 91, 92, 93, 94, 95, 96, 97, 98, 99, 100, 101, 102, 103, 104, 105, 106, 107, 108, 109, 110, 111, 112, 113, 114, 115, 116, 117, 118, 119, 120, 121, 122, 123, 124, 125, 126, 127, 128, 129, 130, 131, 132, 133, 134, 135, 136, 137, 138, 139, 140, 141, 142, 143, 144, 145, 146, 147, 148, 149, 150, 151, 152, 153, 154, 155, 156, 157, 158, 159, 160, 161, 162, 163, 164, 165, 166, 167, 168, 169, 170, 171, 172, 173, 174, 175, 176, 177, 178, 179, 180, 181, 182, 183, 184, 185, 186, 187, 188, 189, 190, 191, 192, 193, 194, 195, 196, 197, 198, 199, 200, 201, 202, 203, 204, 205, 206, 207, 208, 209, 210, 211, 212, 213, 214, 215, 216, 217, 218, 219, 220, 221, 222, 223, 224, 225, 226, 227, 228, 229, 230, 231, 232, 233, 234, 235, 236, 237, 238, 239, 240, 241, 242, 243, 244, 245, 246, 247, 248, 249, 250, 251, 252, 253, 254, 255, 256, 257, 258, 259, 260, 261, 262, 263, 264, 265, 266, 267, 268, 269, 270, 271, 272, 273, 274, 275, 276, 277, 278, 279, 280, 281, 282, 283, 284, 285, 286, 287, 288, 289, 290, 291, 292, 293, 294, 295, 296, 297, 298, 299, 300, 301, 302, 303, 304, 305, 306, 307, 308, 309, 310, 311, 312, 313, 314, 315, 316, 317, 318, 319, 320, 321, 322, 323, 324, 325, 326, 327, 328, 329, 330, 331, 332, 333, 334, 335, 336, 337, 338, 339, 340, 341, 342, 343, 344, 345, 346, 347, 348, 349, 350, 351, 352, 353, 354, 355, 356, 357, 358, 359, 360, 361, 362, 363, 364, 365, 366, 367, 368, 369, 370, 371, 372, 373, 374, 375, 376, 377, 378, 379, 380, 381, 382, 383, 384, 385, 386, 387, 388, 389, 390, 391, 392, 393, 394, 395, 396, 397, 398, 399, 400, 401, 402, 403, 404, 405, 406, 407, 408, 409, 410, 411, 412, 413, 414, 415, 416, 417, 418, 419, 420, 421, 422, 423, 424, 425, 426, 427, 428, 429, 430, 431, 432, 433, 434, 435, 436, 437, 438, 439, 440, 441, 442, 443, 444, 445, 446, 447, 448, 449, 450, 451, 452, 453, 454, 455, 456, 457, 458, 459, 460, 461, 462, 463, 464, 465, 466, 467, 468, 469, 470, 471, 472, 473, 474, 475, 476, 477, 478, 479, 480, 481, 482, 483, 484, 485, 486, 487, 488, 489, 490, 491, 492, 493, 494, 495, 496, 497, 498, 499, 500, 501, 502, 503, 504, 505, 506, 507, 508, 509, 510, 511, 512, 513, 514, 515, 516, 517, 518, 519, 520, 521, 522, 523, 524, 525, 526, 527, 528, 529, 530, 531, 532, 533, 534, 535, 536, 537, 538, 539, 540, 541, 542, 543, 544, 545, 546, 547, 548, 549, 550, 551, 552, 553, 554, 555, 556, 557, 558, 559, 560, 561, 562, 563, 564, 565, 566, 567, 568, 569, 570, 571, 572, 573, 574, 575, 576, 577, 578, 579, 580, 581],
      "AcquisitionTime": ["161325.742500", "161326.530000", "161327.320000", "161328.107500", "161328.895000", "161329.682500", "161330.472500", "161331.260000", "161332.047500", "161332.835000", "161333.625000", "161334.412500", "161335.200000", "161335.987500", "161336.777500", "161337.565000", "161338.352500", "161339.140000", "161339.930000", "161340.717500", "161341.505000", "161342.292500", "161343.082500", "161343.870000", "161344.657500", "161345.447500", "161346.235000", "161347.022500", "161347.810000", "161348.600000", "161349.387500", "161350.175000", "161350.962500", "161351.752500", "161352.540000", "161353.327500", "161354.115000", "161354.905000", "161355.692500", "161356.480000", "161357.267500", "161358.057500", "161358.845000", "161359.632500", "161400.420000", "161401.210000", "161401.997500", "161402.785000", "161403.575000", "161404.362500", "161405.150000", "161405.937500", "161406.727500", "161407.515000", "161408.302500", "161409.090000", "161409.880000", "161410.667500", "161411.455000", "161412.242500", "161413.032500", "161413.820000", "161414.607500", "161415.395000", "161416.185000", "161416.972500", "161417.760000", "161418.547500", "161419.337500", "161420.125000", "161420.912500", "161421.702500", "161422.490000", "161423.277500", "161424.065000", "161424.855000", "161425.642500", "161426.430000", "161427.217500", "161428.007500", "161428.795000", "161429.582500", "161430.370000", "161431.160000", "161431.947500", "161432.735000", "161433.522500", "161434.312500", "161435.100000", "161435.887500", "161436.675000", "161437.465000", "161438.252500", "161439.040000", "161439.830000", "161440.617500", "161441.405000", "161442.192500", "161442.982500", "161443.770000", "161444.557500", "161445.345000", "161446.135000", "161446.922500", "161447.710000", "161448.497500", "161449.287500", "161450.075000", "161450.862500", "161451.650000", "161452.440000", "161453.227500", "161454.015000", "161454.802500", "161455.592500", "161456.380000", "161457.167500", "161457.957500", "161458.745000", "161459.532500", "161500.320000", "161501.110000", "161501.897500", "161502.685000", "161503.472500", "161504.262500", "161505.050000", "161505.837500", "161506.625000", "161507.415000", "161508.202500", "161508.990000", "161509.777500", "161510.567500", "161511.355000", "161512.142500", "161512.930000", "161513.720000", "161514.507500", "161515.295000", "161516.085000", "161516.872500", "161517.660000", "161518.447500", "161519.237500", "161520.025000", "161520.812500", "161521.600000", "161522.390000", "161523.177500", "161523.965000", "161524.752500", "161525.542500", "161526.330000", "161527.117500", "161527.905000", "161528.695000", "161529.482500", "161530.270000", "161531.057500", "161531.847500", "161532.635000", "161533.422500", "161534.212500", "161535.000000", "161535.787500", "161536.575000", "161537.365000", "161538.152500", "161538.940000", "161539.727500", "161540.517500", "161541.305000", "161542.092500", "161542.880000", "161543.670000", "161544.457500", "161545.245000", "161546.032500", "161546.822500", "161547.610000", "161548.397500", "161549.187500", "161549.975000", "161550.762500", "161551.550000", "161552.340000", "161553.127500", "161553.915000", "161554.702500", "161555.492500", "161556.280000", "161557.067500", "161557.855000", "161558.645000", "161559.432500", "161600.220000", "161601.007500", "161601.797500", "161602.585000", "161603.372500", "161604.160000", "161604.950000", "161605.737500", "161606.525000", "161607.315000", "161608.102500", "161608.890000", "161609.677500", "161610.467500", "161611.255000", "161612.042500", "161612.830000", "161613.620000", "161614.407500", "161615.195000", "161615.982500", "161616.772500", "161617.560000", "161618.347500", "161619.135000", "161619.925000", "161620.712500", "161621.500000", "161622.287500", "161623.077500", "161623.865000", "161624.652500", "161625.442500", "161626.230000", "161627.017500", "161627.805000", "161628.595000", "161629.382500", "161630.170000", "161630.957500", "161631.747500", "161632.535000", "161633.322500", "161634.110000", "161634.900000", "161635.687500", "161636.475000", "161637.262500", "161638.052500", "161638.840000", "161639.627500", "161640.415000", "161641.205000", "161641.992500", "161642.780000", "161643.570000", "161644.357500", "161645.145000", "161645.932500", "161646.722500", "161647.510000", "161648.297500", "161649.085000", "161649.875000", "161650.662500", "161651.450000", "161652.237500", "161653.027500", "161653.815000", "161654.602500", "161655.390000", "161656.180000", "161656.967500", "161657.755000", "161658.542500", "161659.332500", "161700.120000", "161700.907500", "161701.697500", "161702.485000", "161703.272500", "161704.060000", "161704.850000", "161705.637500", "161706.425000", "161707.212500", "161708.002500", "161708.790000", "161709.577500", "161710.365000", "161711.155000", "161711.942500", "161712.730000", "161713.517500", "161714.307500", "161715.095000", "161715.882500", "161716.670000", "161717.460000", "161718.247500", "161719.035000", "161719.825000", "161720.612500", "161721.400000", "161722.187500", "161722.977500", "161723.765000", "161724.552500", "161725.340000", "161726.130000", "161726.917500", "161727.705000", "161728.492500", "161729.282500", "161730.070000", "161730.857500", "161731.645000", "161732.435000", "161733.222500", "161734.010000", "161734.797500", "161735.587500", "161736.375000", "161737.162500", "161737.952500", "161738.740000", "161739.527500", "161740.315000", "161741.105000", "161741.892500", "161742.680000", "161743.467500", "161744.257500", "161745.045000", "161745.832500", "161746.620000", "161747.410000", "161748.197500", "161748.985000", "161749.772500", "161750.562500", "161751.350000", "161752.137500", "161752.925000", "161753.715000", "161754.502500", "161755.290000", "161756.080000", "161756.867500", "161757.655000", "161758.442500", "161759.232500", "161800.020000", "161800.807500", "161801.595000", "161802.385000", "161803.172500", "161803.960000", "161804.747500", "161805.537500", "161806.325000", "161807.112500", "161807.900000", "161808.690000", "161809.477500", "161810.265000", "161811.052500", "161811.842500", "161812.630000", "161813.417500", "161814.207500", "161814.995000", "161815.782500", "161816.570000", "161817.360000", "161818.147500", "161818.935000", "161819.722500", "161820.512500", "161821.300000", "161822.087500", "161822.875000", "161823.665000", "161824.452500", "161825.240000", "161826.027500", "161826.817500", "161827.605000", "161828.392500", "161829.180000", "161829.970000", "161830.757500", "161831.545000", "161832.335000", "161833.122500", "161833.910000", "161834.697500", "161835.487500", "161836.275000", "161837.062500", "161837.850000", "161838.640000", "161839.427500", "161840.215000", "161841.002500", "161841.792500", "161842.580000", "161843.367500", "161844.155000", "161844.945000", "161845.732500", "161846.520000", "161847.307500", "161848.097500", "161848.885000", "161849.672500", "161850.462500", "161851.250000", "161852.037500", "161852.825000", "161853.615000", "161854.402500", "161855.190000", "161855.977500", "161856.767500", "161857.555000", "161858.342500", "161859.130000", "161859.920000", "161900.707500", "161901.495000", "161902.282500", "161903.072500", "161903.860000", "161904.647500", "161905.437500", "161906.225000", "161907.012500", "161907.800000", "161908.590000", "161909.377500", "161910.165000", "161910.952500", "161911.742500", "161912.530000", "161913.317500", "161914.105000", "161914.895000", "161915.682500", "161916.470000", "161917.257500", "161918.047500", "161918.835000", "161919.622500", "161920.410000", "161921.200000", "161921.987500", "161922.775000", "161923.565000", "161924.352500", "161925.140000", "161925.927500", "161926.717500", "161927.505000", "161928.292500", "161929.080000", "161929.870000", "161930.657500", "161931.445000", "161932.232500", "161933.022500", "161933.810000", "161934.597500", "161935.385000", "161936.175000", "161936.962500", "161937.750000", "161938.537500", "161939.327500", "161940.115000", "161940.902500", "161941.692500", "161942.480000", "161943.267500", "161944.055000", "161944.845000", "161945.632500", "161946.420000", "161947.207500", "161947.997500", "161948.785000", "161949.572500", "161950.360000", "161951.150000", "161951.937500", "161952.725000", "161953.512500", "161954.302500", "161955.090000", "161955.877500", "161956.665000", "161957.455000", "161958.242500", "161959.030000", "161959.820000", "162000.607500", "162001.395000", "162002.182500", "162002.972500", "162003.760000", "162004.547500", "162005.335000", "162006.125000", "162006.912500", "162007.700000", "162008.487500", "162009.277500", "162010.065000", "162010.852500", "162011.640000", "162012.430000", "162013.217500", "162014.005000", "162014.792500", "162015.582500", "162016.370000", "162017.157500", "162017.947500", "162018.735000", "162019.522500", "162020.310000", "162021.100000", "162021.887500", "162022.675000", "162023.462500", "162024.252500", "162025.040000", "162025.827500", "162026.615000", "162027.405000", "162028.192500", "162028.980000", "162029.767500", "162030.557500", "162031.345000", "162032.132500", "162032.920000", "162033.710000", "162034.497500", "162035.285000", "162036.075000", "162036.862500", "162037.650000", "162038.437500", "162039.227500", "162040.015000", "162040.802500", "162041.590000", "162042.380000", "162043.167500", "162043.955000", "162044.742500", "162045.532500", "162046.320000", "162047.107500", "162047.895000", "162048.685000", "162049.472500", "162050.260000", "162051.047500", "162051.837500", "162052.625000", "162053.412500", "162054.202500", "162054.990000", "162055.777500", "162056.565000", "162057.355000", "162058.142500", "162058.930000", "162059.717500", "162100.507500", "162101.295000", "162102.082500", "162102.870000"],
      "ContentTime": ["172256.937000", "172256.937000", "172256.937000", "172256.937000", "172256.937000", "172256.953000", "172256.953000", "172336.906000", "172336.921000", "172336.921000", "172336.921000", "172336.921000", "172336.921000", "172336.921000", "172336.937000", "172336.937000", "172336.937000", "172336.937000", "172336.937000", "172336.937000", "172336.937000", "172336.953000", "172336.953000", "172336.953000", "172336.953000", "172436.906000", "172436.921000", "172436.921000", "172436.921000", "172436.921000", "172436.921000", "172436.921000", "172436.921000", "172436.937000", "172436.937000", "172436.937000", "172436.937000", "172436.937000", "172436.937000", "172436.937000", "172436.953000", "172436.953000", "172436.953000", "172436.953000", "172436.953000", "172436.953000", "172436.953000", "172436.968000", "172436.968000", "172436.968000", "172436.968000", "172436.968000", "172436.968000", "172436.968000", "172536.906000", "172536.921000", "172536.921000", "172536.921000", "172536.921000", "172536.921000", "172536.921000", "172536.921000", "172536.937000", "172536.937000", "172536.937000", "172536.937000", "172536.937000", "172536.937000", "172536.937000", "172536.953000", "172536.953000", "172536.953000", "172536.953000", "172536.953000", "172536.953000", "172536.968000", "172536.968000", "172536.968000", "172536.968000", "172536.968000", "172536.968000", "172536.984000", "172636.906000", "172636.921000", "172636.921000", "172636.921000", "172636.921000", "172636.921000", "172636.921000", "172636.921000", "172636.937000", "172636.937000", "172636.937000", "172636.937000", "172636.937000", "172636.937000", "172636.937000", "172636.953000", "172636.953000", "172636.953000", "172636.953000", "172636.953000", "172636.953000", "172636.968000", "172636.968000", "172636.968000", "172636.968000", "172636.968000", "172636.968000", "172636.968000", "172736.906000", "172736.921000", "172736.921000", "172736.921000", "172736.921000", "172736.921000", "172736.921000", "172736.921000", "172736.937000", "172736.937000", "172736.937000", "172736.937000", "172736.937000", "172736.937000", "172736.937000", "172736.953000", "172736.953000", "172736.953000", "172736.953000", "172736.953000", "172736.968000", "172736.968000", "172736.968000", "172736.968000", "172736.968000", "172736.968000", "172736.968000", "172736.984000", "172836.906000", "172836.921000", "172836.921000", "172836.921000", "172836.921000", "172836.921000", "172836.921000", "172836.921000", "172836.937000", "172836.937000", "172836.937000", "172836.937000", "172836.937000", "172836.953000", "172836.953000", "172836.953000", "172836.953000", "172836.953000", "172836.953000", "172836.953000", "172836.968000", "172836.968000", "172836.968000", "172836.968000", "172836.968000", "172836.984000", "172836.984000", "172836.984000", "172936.906000", "172936.921000", "172936.921000", "172936.921000", "172936.921000", "172936.921000", "172936.921000", "172936.921000", "172936.937000", "172936.937000", "172936.937000", "172936.937000", "172936.937000", "172936.937000", "172936.937000", "172936.953000", "172936.953000", "172936.953000", "172936.953000", "172936.953000", "172936.953000", "172936.953000", "172936.968000", "172936.968000", "172936.968000", "172936.968000", "172936.968000", "172936.968000", "173036.906000", "173036.921000", "173036.921000", "173036.921000", "173036.921000", "173036.921000", "173036.921000", "173036.921000", "173036.937000", "173036.937000", "173036.937000", "173036.937000", "173036.937000", "173036.937000", "173036.937000", "173036.953000", "173036.953000", "173036.953000", "173036.953000", "173036.953000", "173036.953000", "173036.953000", "173036.968000", "173036.968000", "173036.968000", "173036.968000", "173036.968000", "173036.968000", "173036.968000", "173136.906000", "173136.921000", "173136.921000", "173136.921000", "173136.921000", "173136.921000", "173136.921000", "173136.921000", "173136.937000", "173136.937000", "173136.937000", "173136.937000", "173136.937000", "173136.937000", "173136.937000", "173136.953000", "173136.953000", "173136.953000", "173136.953000", "173136.953000", "173136.953000", "173136.953000", "173136.968000", "173136.968000", "173136.968000", "173136.968000", "173136.968000", "173136.968000", "173236.906000", "173236.921000", "173236.921000", "173236.921000", "173236.921000", "173236.921000", "173236.921000", "173236.921000", "173236.937000", "173236.937000", "173236.937000", "173236.937000", "173236.937000", "173236.937000", "173236.937000", "173236.953000", "173236.953000", "173236.953000", "173236.953000", "173236.953000", "173236.953000", "173236.968000", "173236.968000", "173236.968000", "173236.968000", "173236.968000", "173236.968000", "173236.968000", "173316.906000", "173316.921000", "173316.921000", "173316.921000", "173316.921000", "173316.921000", "173316.921000", "173316.921000", "173316.937000", "173316.937000", "173316.937000", "173316.937000", "173316.937000", "173316.937000", "173316.937000", "173316.953000", "173316.953000", "173316.953000", "173316.953000", "173416.906000", "173416.921000", "173416.921000", "173416.921000", "173416.921000", "173416.921000", "173416.921000", "173416.937000", "173416.937000", "173416.937000", "173416.937000", "173416.937000", "173416.937000", "173416.953000", "173416.953000", "173416.953000", "173416.953000", "173416.953000", "173416.953000", "173416.953000", "173416.968000", "173416.968000", "173416.968000", "173416.968000", "173416.968000", "173416.968000", "173416.968000", "173416.984000", "173516.906000", "173516.921000", "173516.921000", "173516.921000", "173516.921000", "173516.921000", "173516.921000", "173516.937000", "173516.937000", "173516.937000", "173516.937000", "173516.937000", "173516.953000", "173516.953000", "173516.953000", "173516.953000", "173516.953000", "173516.953000", "173516.953000", "173516.968000", "173516.968000", "173516.968000", "173516.968000", "173516.968000", "173516.968000", "173516.984000", "173516.984000", "173516.984000", "173616.906000", "173616.921000", "173616.921000", "173616.921000", "173616.921000", "173616.921000", "173616.921000", "173616.921000", "173616.937000", "173616.937000", "173616.937000", "173616.937000", "173616.937000", "173616.937000", "173616.937000", "173616.953000", "173616.953000", "173616.953000", "173616.953000", "173616.953000", "173616.953000", "173616.953000", "173616.968000", "173616.968000", "173616.968000", "173616.984000", "173616.984000", "173616.984000", "173716.906000", "173716.921000", "173716.921000", "173716.921000", "173716.921000", "173716.921000", "173716.921000", "173716.921000", "173716.937000", "173716.937000", "173716.937000", "173716.937000", "173716.937000", "173716.937000", "173716.937000", "173716.953000", "173716.953000", "173716.953000", "173716.953000", "173716.968000", "173716.968000", "173716.968000", "173716.968000", "173716.968000", "173716.968000", "173716.968000", "173716.984000", "173716.984000", "173816.906000", "173816.921000", "173816.921000", "173816.921000", "173816.921000", "173816.921000", "173816.921000", "173816.921000", "173816.937000", "173816.937000", "173816.937000", "173816.937000", "173816.937000", "173816.953000", "173816.953000", "173816.953000", "173816.953000", "173816.953000", "173816.953000", "173816.968000", "173816.968000", "173816.968000", "173816.968000", "173816.968000", "173816.968000", "173816.968000", "173816.984000", "173816.984000", "173916.906000", "173916.921000", "173916.921000", "173916.921000", "173916.921000", "173916.921000", "173916.937000", "173916.937000", "173916.937000", "173916.937000", "173916.953000", "173916.953000", "173916.953000", "173916.953000", "173916.953000", "173916.953000", "173916.953000", "173916.968000", "173916.968000", "173916.968000", "173916.968000", "173916.968000", "173916.968000", "173916.968000", "173916.984000", "173916.984000", "173916.984000", "173916.984000", "173916.984000", "174016.906000", "174016.921000", "174016.921000", "174016.921000", "174016.921000", "174016.921000", "174016.921000", "174016.921000", "174016.937000", "174016.937000", "174016.937000", "174016.937000", "174016.937000", "174016.937000", "174016.937000", "174016.953000", "174016.953000", "174016.953000", "174016.953000", "174016.953000", "174016.953000", "174016.953000", "174016.968000", "174016.968000", "174016.968000", "174016.968000", "174016.968000", "174016.968000", "174116.906000", "174116.921000", "174116.921000", "174116.921000", "174116.921000", "174116.921000", "174116.921000", "174116.921000", "174116.937000", "174116.937000", "174116.937000", "174116.937000", "174116.937000", "174116.937000", "174116.953000", "174116.953000", "174116.953000", "174116.953000", "174116.953000", "174116.953000", "174116.953000", "174116.968000", "174116.968000", "174116.968000", "174116.968000", "174116.968000", "174116.968000", "174116.968000", "174216.906000", "174216.921000", "174216.921000", "174216.921000", "174216.921000", "174216.921000", "174216.921000", "174216.921000", "174216.937000", "174216.937000", "174216.937000", "174216.937000", "174216.937000", "174216.937000", "174216.953000", "174216.953000", "174216.953000", "174216.953000", "174216.953000", "174216.953000", "174216.953000", "174216.968000", "174216.968000", "174216.968000", "174216.968000", "174216.968000", "174216.968000", "174216.968000", "174316.906000", "174316.921000", "174316.921000", "174316.921000", "174316.921000", "174316.921000", "174316.921000", "174316.921000", "174316.937000", "174316.937000", "174316.937000", "174316.937000", "174316.937000", "174316.937000", "174316.937000", "174316.953000", "174316.953000", "174316.953000", "174316.953000", "174316.953000", "174316.953000", "174316.968000", "174316.968000", "174316.968000", "174316.968000", "174316.968000", "174316.968000", "174316.968000", "174316.984000", "174318.656000"],
