{
  "AcquisitionMatrixPE": 104,
  "AcquisitionNumber": 1,
  "AcquisitionTime": "16:38:33.752500",
  "BandwidthPerPixelPhaseEncode": 13.935,
  "BaseResolution": 104,
  "CoilString": "C:HEA;HEP",
  "ConversionSoftware": "dcm2niix",
  "ConversionSoftwareVersion": "v1.0.20210317",
  "DerivedVendorReportedEchoSpacing": 0.000690017,
  "DeviceSerialNumber": "35450",
  "DwellTime": 2.5e-06,
  "EchoTime": 0.0348,
  "EffectiveEchoSpacing": 0.000690017,
  "FlipAngle": 55,
  "ImageComments": "Unaliased MB8/PE3",
  "ImageOrientationPatientDICOM": [0.999553, -0.00270044, -0.02976, -4.51451e-08, 0.995908, -0.090371],
  "ImageType": [
    "ORIGINAL",
    "PRIMARY",
    "M",
    "MB",
    "ND",
    "MOSAIC"
],
  "ImagingFrequency": 123.234,
  "InPlanePhaseEncodingDirectionDICOM": "COL",
  "InstitutionAddress": "Univeristy Ave. 197,Newark,North East,US,07102-1814",
  "InstitutionName": "RUBIC",
  "InstitutionalDepartmentName": "Department",
  "MRAcquisitionType": "2D",
  "MagneticFieldStrength": 3,
  "Manufacturer": "Siemens",
  "ManufacturersModelName": "TrioTim",
  "Modality": "MR",
  "MultibandAccelerationFactor": 8,
  "PartialFourier": 0.875,
  "PatientPosition": "HFS",
  "PercentPhaseFOV": 100,
  "PercentSampling": 100,
  "PhaseEncodingDirection": "j-",
  "PhaseEncodingSteps": 91,
  "PhaseResolution": 1,
  "PixelBandwidth": 1923,
  "ProcedureStepDescription": "Cole^Michael",
  "ProtocolName": "cmrr_mbep2d_bold_2mm_MB8_Task_8x",
  "PulseSequenceDetails": "%CustomerSeq%\\cmrr_mbep2d_bold",
  "ReceiveCoilName": "32Ch_Head",
  "ReconMatrixPE": 104,
  "RepetitionTime": 0.785,
  "SAR": 0.0970201,
  "ScanOptions": "PFP\\FS",
  "ScanningSequence": "EP",
  "SequenceName": "epfid2d1_104",
  "SequenceVariant": "SK\\SS",
  "SeriesDescription": "cmrr_mbep2d_bold_2mm_MB8_Task_8x",
  "SeriesNumber": 25,
  "ShimSetting": [2067, -402, -7326, 583, -14, -116, 186, -2],
  "SliceThickness": 2,
  "SliceTiming": [0, 0.4375, 0.0875, 0.525, 0.175, 0.6125, 0.2625, 0.7, 0.35, 0, 0.4375, 0.0875, 0.525, 0.175, 0.6125, 0.2625, 0.7, 0.35, 0, 0.4375, 0.0875, 0.525, 0.175, 0.6125, 0.2625, 0.7, 0.35, 0, 0.4375, 0.0875, 0.525, 0.175, 0.6125, 0.2625, 0.7, 0.35, 0, 0.4375, 0.0875, 0.525, 0.175, 0.6125, 0.2625, 0.7, 0.35, 0, 0.4375, 0.0875, 0.525, 0.175, 0.6125, 0.2625, 0.7, 0.35, 0, 0.4375, 0.0875, 0.525, 0.175, 0.6125, 0.2625, 0.7, 0.35, 0, 0.4375, 0.0875, 0.525, 0.175, 0.6125, 0.2625, 0.7, 0.35],
  "SoftwareVersions": "syngo MR B19",
  "SpacingBetweenSlices": 2,
  "StationName": "MRC35450",
  "TaskName": "cpro",
  "TotalReadoutTime": 0.0710717,
  "TxRefAmp": 314.481,
  "dcmmeta_affine": [
    [-1.9991068840026855, -9.029015046735367e-08, -0.05976450443267822, 105.97872161865234],
    [0.005400888156145811, 1.9918162822723389, -0.18066130578517914, -79.74598693847656],
    [-0.05951996520161629, 0.18074201047420502, 1.9909268617630005, -101.71373748779297],
    [0.0, 0.0, 0.0, 1.0]
],
  "dcmmeta_reorient_transform": [
    [0.0, -1.0, 0.0, 103.0],
    [1.0, 0.0, 0.0, 0.0],
    [0.0, 0.0, 1.0, 0.0],
    [0.0, 0.0, 0.0, 1.0]
],
  "dcmmeta_shape": [104, 104, 72, 581],
  "dcmmeta_slice_dim": 2,
  "dcmmeta_version": 0.6,
  "global": {
    "const": {
      "AcquisitionMatrix": [104, 0, 0, 104],
      "AngioFlag": "N",
      "BitsAllocated": 16,
      "BitsStored": 12,
      "Columns": 936,
      "EchoNumbers": 1,
      "EchoTime": 34.8,
      "EchoTrainLength": 1,
      "FlipAngle": 55.0,
      "HighBit": 11,
      "ImageOrientationPatient": [0.99955342582259, -0.0027004441543, -0.0297599819841, -4.5145075e-08, 0.99590816907338, -0.0903710062626],
      "ImagePositionPatient": [-937.60712629574, -951.75992129274, 16.851670245463],
      "ImageType": [
        "ORIGINAL",
        "PRIMARY",
        "M",
        "MB",
        "ND",
        "MOSAIC"
],
      "ImagedNucleus": "1H",
      "ImagingFrequency": 123.234462,
      "InPlanePhaseEncodingDirection": "COL",
      "MRAcquisitionType": "2D",
      "MagneticFieldStrength": 3.0,
      "Manufacturer": "SIEMENS",
      "ManufacturerModelName": "TrioTim",
      "Modality": "MR",
      "NumberOfAverages": 1.0,
      "NumberOfPhaseEncodingSteps": 91,
      "PercentPhaseFieldOfView": 100.0,
      "PercentSampling": 100.0,
      "PerformedProcedureStepStartTime": "144154.796000",
      "PhotometricInterpretation": "MONOCHROME2",
      "PixelBandwidth": 1923.0,
      "PixelRepresentation": 0,
      "PixelSpacing": [2.0, 2.0],
      "ProtocolName": "cmrr_mbep2d_bold_2mm_MB8_Task_8x",
      "RepetitionTime": 785.0,
      "Rows": 936,
      "SAR": 0.09702006861576,
      "SamplesPerPixel": 1,
      "ScanOptions": [
        "PFP",
        "FS"
],
      "ScanningSequence": "EP",
      "SequenceName": "epfid2d1_104",
      "SequenceVariant": [
        "SK",
        "SS"
],
      "SeriesDescription": "cmrr_mbep2d_bold_2mm_MB8_Task_8x",
      "SeriesNumber": 25,
      "SeriesTime": "182525.343000",
      "SliceLocation": -97.215682751145,
      "SliceThickness": 2.0,
      "SmallestImagePixelValue": 0,
      "SoftwareVersions": "syngo MR B19",
      "SpacingBetweenSlices": 2.0000000320349,
      "SpecificCharacterSet": "ISO_IR 100",
      "StudyID": "1",
      "StudyTime": "144154.765000",
      "TransmitCoilName": "Body",
      "VariableFlipAngleFlag": "N",
      "WindowCenterWidthExplanation": "Algo1",
      "dBdt": 0.0},
    "slices": {}
  },
  "time": {
    "samples": {
      "AcquisitionNumber": [1, 2, 3, 4, 5, 6, 7, 8, 9, 10, 11, 12, 13, 14, 15, 16, 17, 18, 19, 20, 21, 22, 23, 24, 25, 26, 27, 28, 29, 30, 31, 32, 33, 34, 35, 36, 37, 38, 39, 40, 41, 42, 43, 44, 45, 46, 47, 48, 49, 50, 51, 52, 53, 54, 55, 56, 57, 58, 59, 60, 61, 62, 63, 64, 65, 66, 67, 68, 69, 70, 71, 72, 73, 74, 75, 76, 77, 78, 79, 80, 81, 82, 83, 84, 85, 86, 87, 88, 89, 90, 91, 92, 93, 94, 95, 96, 97, 98, 99, 100, 101, 102, 103, 104, 105, 106, 107, 108, 109, 110, 111, 112, 113, 114, 115, 116, 117, 118, 119, 120, 121, 122, 123, 124, 125, 126, 127, 128, 129, 130, 131, 132, 133, 134, 135, 136, 137, 138, 139, 140, 141, 142, 143, 144, 145, 146, 147, 148, 149, 150, 151, 152, 153, 154, 155, 156, 157, 158, 159, 160, 161, 162, 163, 164, 165, 166, 167, 168, 169, 170, 171, 172, 173, 174, 175, 176, 177, 178, 179, 180, 181, 182, 183, 184, 185, 186, 187, 188, 189, 190, 191, 192, 193, 194, 195, 196, 197, 198, 199, 200, 201, 202, 203, 204, 205, 206, 207, 208, 209, 210, 211, 212, 213, 214, 215, 216, 217, 218, 219, 220, 221, 222, 223, 224, 225, 226, 227, 228, 229, 230, 231, 232, 233, 234, 235, 236, 237, 238, 239, 240, 241, 242, 243, 244, 245, 246, 247, 248, 249, 250, 251, 252, 253, 254, 255, 256, 257, 258, 259, 260, 261, 262, 263, 264, 265, 266, 267, 268, 269, 270, 271, 272, 273, 274, 275, 276, 277, 278, 279, 280, 281, 282, 283, 284, 285, 286, 287, 288, 289, 290, 291, 292, 293, 294, 295, 296, 297, 298, 299, 300, 301, 302, 303, 304, 305, 306, 307, 308, 309, 310, 311, 312, 313, 314, 315, 316, 317, 318, 319, 320, 321, 322, 323, 324, 325, 326, 327, 328, 329, 330, 331, 332, 333, 334, 335, 336, 337, 338, 339, 340, 341, 342, 343, 344, 345, 346, 347, 348, 349, 350, 351, 352, 353, 354, 355, 356, 357, 358, 359, 360, 361, 362, 363, 364, 365, 366, 367, 368, 369, 370, 371, 372, 373, 374, 375, 376, 377, 378, 379, 380, 381, 382, 383, 384, 385, 386, 387, 388, 389, 390, 391, 392, 393, 394, 395, 396, 397, 398, 399, 400, 401, 402, 403, 404, 405, 406, 407, 408, 409, 410, 411, 412, 413, 414, 415, 416, 417, 418, 419, 420, 421, 422, 423, 424, 425, 426, 427, 428, 429, 430, 431, 432, 433, 434, 435, 436, 437, 438, 439, 440, 441, 442, 443, 444, 445, 446, 447, 448, 449, 450, 451, 452, 453, 454, 455, 456, 457, 458, 459, 460, 461, 462, 463, 464, 465, 466, 467, 468, 469, 470, 471, 472, 473, 474, 475, 476, 477, 478, 479, 480, 481, 482, 483, 484, 485, 486, 487, 488, 489, 490, 491, 492, 493, 494, 495, 496, 497, 498, 499, 500, 501, 502, 503, 504, 505, 506, 507, 508, 509, 510, 511, 512, 513, 514, 515, 516, 517, 518, 519, 520, 521, 522, 523, 524, 525, 526, 527, 528, 529, 530, 531, 532, 533, 534, 535, 536, 537, 538, 539, 540, 541, 542, 543, 544, 545, 546, 547, 548, 549, 550, 551, 552, 553, 554, 555, 556, 557, 558, 559, 560, 561, 562, 563, 564, 565, 566, 567, 568, 569, 570, 571, 572, 573, 574, 575, 576, 577, 578, 579, 580, 581],
      "AcquisitionTime": ["163833.752500", "163834.540000", "163835.327500", "163836.117500", "163836.905000", "163837.692500", "163838.480000", "163839.270000", "163840.057500", "163840.845000", "163841.635000", "163842.422500", "163843.210000", "163843.997500", "163844.787500", "163845.575000", "163846.362500", "163847.150000", "163847.940000", "163848.727500", "163849.515000", "163850.302500", "163851.092500", "163851.880000", "163852.667500", "163853.455000", "163854.245000", "163855.032500", "163855.820000", "163856.610000", "163857.397500", "163858.185000", "163858.972500", "163859.762500", "163900.550000", "163901.337500", "163902.125000", "163902.915000", "163903.702500", "163904.490000", "163905.277500", "163906.067500", "163906.855000", "163907.642500", "163908.430000", "163909.220000", "163910.007500", "163910.795000", "163911.582500", "163912.372500", "163913.160000", "163913.947500", "163914.737500", "163915.525000", "163916.312500", "163917.100000", "163917.890000", "163918.677500", "163919.465000", "163920.252500", "163921.042500", "163921.830000", "163922.617500", "163923.405000", "163924.195000", "163924.982500", "163925.770000", "163926.557500", "163927.347500", "163928.135000", "163928.922500", "163929.710000", "163930.500000", "163931.287500", "163932.075000", "163932.865000", "163933.652500", "163934.440000", "163935.227500", "163936.017500", "163936.805000", "163937.592500", "163938.380000", "163939.170000", "163939.957500", "163940.745000", "163941.532500", "163942.322500", "163943.110000", "163943.897500", "163944.685000", "163945.475000", "163946.262500", "163947.050000", "163947.837500", "163948.627500", "163949.415000", "163950.202500", "163950.992500", "163951.780000", "163952.567500", "163953.355000", "163954.145000", "163954.932500", "163955.720000", "163956.507500", "163957.297500", "163958.085000", "163958.872500", "163959.660000", "164000.450000", "164001.237500", "164002.025000", "164002.812500", "164003.602500", "164004.390000", "164005.177500", "164005.965000", "164006.755000", "164007.542500", "164008.330000", "164009.120000", "164009.907500", "164010.695000", "164011.482500", "164012.272500", "164013.060000", "164013.847500", "164014.635000", "164015.425000", "164016.212500", "164017.000000", "164017.787500", "164018.577500", "164019.365000", "164020.152500", "164020.940000", "164021.730000", "164022.517500", "164023.305000", "164024.092500", "164024.882500", "164025.670000", "164026.457500", "164027.247500", "164028.035000", "164028.822500", "164029.610000", "164030.400000", "164031.187500", "164031.975000", "164032.762500", "164033.552500", "164034.340000", "164035.127500", "164035.915000", "164036.705000", "164037.492500", "164038.280000", "164039.067500", "164039.857500", "164040.645000", "164041.432500", "164042.220000", "164043.010000", "164043.797500", "164044.585000", "164045.375000", "164046.162500", "164046.950000", "164047.737500", "164048.527500", "164049.315000", "164050.102500", "164050.890000", "164051.680000", "164052.467500", "164053.255000", "164054.042500", "164054.832500", "164055.620000", "164056.407500", "164057.195000", "164057.985000", "164058.772500", "164059.560000", "164100.347500", "164101.137500", "164101.925000", "164102.712500", "164103.502500", "164104.290000", "164105.077500", "164105.865000", "164106.655000", "164107.442500", "164108.230000", "164109.017500", "164109.807500", "164110.595000", "164111.382500", "164112.170000", "164112.960000", "164113.747500", "164114.535000", "164115.322500", "164116.112500", "164116.900000", "164117.687500", "164118.475000", "164119.265000", "164120.052500", "164120.840000", "164121.630000", "164122.417500", "164123.205000", "164123.992500", "164124.782500", "164125.570000", "164126.357500", "164127.145000", "164127.935000", "164128.722500", "164129.510000", "164130.297500", "164131.087500", "164131.875000", "164132.662500", "164133.450000", "164134.240000", "164135.027500", "164135.815000", "164136.602500", "164137.392500", "164138.180000", "164138.967500", "164139.757500", "164140.545000", "164141.332500", "164142.120000", "164142.910000", "164143.697500", "164144.485000", "164145.272500", "164146.062500", "164146.850000", "164147.637500", "164148.425000", "164149.215000", "164150.002500", "164150.790000", "164151.577500", "164152.367500", "164153.155000", "164153.942500", "164154.730000", "164155.520000", "164156.307500", "164157.095000", "164157.885000", "164158.672500", "164159.460000", "164200.247500", "164201.037500", "164201.825000", "164202.612500", "164203.400000", "164204.190000", "164204.977500", "164205.765000", "164206.552500", "164207.342500", "164208.130000", "164208.917500", "164209.705000", "164210.495000", "164211.282500", "164212.070000", "164212.860000", "164213.647500", "164214.435000", "164215.222500", "164216.012500", "164216.800000", "164217.587500", "164218.375000", "164219.165000", "164219.952500", "164220.740000", "164221.527500", "164222.317500", "164223.105000", "164223.892500", "164224.680000", "164225.470000", "164226.257500", "164227.045000", "164227.832500", "164228.622500", "164229.410000", "164230.197500", "164230.987500", "164231.775000", "164232.562500", "164233.350000", "164234.140000", "164234.927500", "164235.715000", "164236.502500", "164237.292500", "164238.080000", "164238.867500", "164239.655000", "164240.445000", "164241.232500", "164242.020000", "164242.807500", "164243.597500", "164244.385000", "164245.172500", "164245.960000", "164246.750000", "164247.537500", "164248.325000", "164249.115000", "164249.902500", "164250.690000", "164251.477500", "164252.267500", "164253.055000", "164253.842500", "164254.630000", "164255.420000", "164256.207500", "164256.995000", "164257.782500", "164258.572500", "164259.360000", "164300.147500", "164300.935000", "164301.725000", "164302.512500", "164303.300000", "164304.087500", "164304.877500", "164305.665000", "164306.452500", "164307.242500", "164308.030000", "164308.817500", "164309.605000", "164310.395000", "164311.182500", "164311.970000", "164312.757500", "164313.547500", "164314.335000", "164315.122500", "164315.910000", "164316.700000", "164317.487500", "164318.275000", "164319.062500", "164319.852500", "164320.640000", "164321.427500", "164322.215000", "164323.005000", "164323.792500", "164324.580000", "164325.370000", "164326.157500", "164326.945000", "164327.732500", "164328.522500", "164329.310000", "164330.097500", "164330.885000", "164331.675000", "164332.462500", "164333.250000", "164334.037500", "164334.827500", "164335.615000", "164336.402500", "164337.190000", "164337.980000", "164338.767500", "164339.555000", "164340.342500", "164341.132500", "164341.920000", "164342.707500", "164343.497500", "164344.285000", "164345.072500", "164345.860000", "164346.650000", "164347.437500", "164348.225000", "164349.012500", "164349.802500", "164350.590000", "164351.377500", "164352.165000", "164352.955000", "164353.742500", "164354.530000", "164355.317500", "164356.107500", "164356.895000", "164357.682500", "164358.470000", "164359.260000", "164400.047500", "164400.835000", "164401.625000", "164402.412500", "164403.200000", "164403.987500", "164404.777500", "164405.565000", "164406.352500", "164407.140000", "164407.930000", "164408.717500", "164409.505000", "164410.292500", "164411.082500", "164411.870000", "164412.657500", "164413.445000", "164414.235000", "164415.022500", "164415.810000", "164416.597500", "164417.387500", "164418.175000", "164418.962500", "164419.752500", "164420.540000", "164421.327500", "164422.115000", "164422.905000", "164423.692500", "164424.480000", "164425.267500", "164426.057500", "164426.845000", "164427.632500", "164428.420000", "164429.210000", "164429.997500", "164430.785000", "164431.572500", "164432.362500", "164433.150000", "164433.937500", "164434.725000", "164435.515000", "164436.302500", "164437.090000", "164437.880000", "164438.667500", "164439.455000", "164440.242500", "164441.032500", "164441.820000", "164442.607500", "164443.395000", "164444.185000", "164444.972500", "164445.760000", "164446.547500", "164447.337500", "164448.125000", "164448.912500", "164449.700000", "164450.490000", "164451.277500", "164452.065000", "164452.852500", "164453.642500", "164454.430000", "164455.217500", "164456.007500", "164456.795000", "164457.582500", "164458.370000", "164459.160000", "164459.947500", "164500.735000", "164501.522500", "164502.312500", "164503.100000", "164503.887500", "164504.675000", "164505.465000", "164506.252500", "164507.040000", "164507.827500", "164508.617500", "164509.405000", "164510.192500", "164510.980000", "164511.770000", "164512.557500", "164513.345000", "164514.135000", "164514.922500", "164515.710000", "164516.497500", "164517.287500", "164518.075000", "164518.862500", "164519.650000", "164520.440000", "164521.227500", "164522.015000", "164522.802500", "164523.592500", "164524.380000", "164525.167500", "164525.955000", "164526.745000", "164527.532500", "164528.320000", "164529.110000", "164529.897500", "164530.685000", "164531.472500", "164532.262500", "164533.050000", "164533.837500", "164534.625000", "164535.415000", "164536.202500", "164536.990000", "164537.777500", "164538.567500", "164539.355000", "164540.142500", "164540.930000", "164541.720000", "164542.507500", "164543.295000", "164544.082500", "164544.872500", "164545.660000", "164546.447500", "164547.237500", "164548.025000", "164548.812500", "164549.600000", "164550.390000", "164551.177500", "164551.965000", "164552.752500", "164553.542500", "164554.330000", "164555.117500", "164555.905000", "164556.695000", "164557.482500", "164558.270000", "164559.057500", "164559.847500", "164600.635000", "164601.422500", "164602.210000", "164603.000000", "164603.787500", "164604.575000", "164605.365000", "164606.152500", "164606.940000", "164607.727500", "164608.517500", "164609.305000", "164610.092500", "164610.880000"],
      "ContentTime": ["182525.343000", "182525.343000", "182525.343000", "182625.312000", "182625.328000", "182625.328000", "182625.328000", "182625.328000", "182625.328000", "182625.328000", "182625.328000", "182625.343000", "182625.343000", "182625.343000", "182625.343000", "182625.359000", "182625.359000", "182625.359000", "182625.359000", "182625.359000", "182625.359000", "182625.359000", "182625.359000", "182625.375000", "182625.375000", "182625.375000", "182625.375000", "182625.375000", "182625.375000", "182625.390000", "182625.390000", "182725.312000", "182725.328000", "182725.328000", "182725.328000", "182725.328000", "182725.328000", "182725.328000", "182725.328000", "182725.343000", "182725.343000", "182725.343000", "182725.343000", "182725.343000", "182725.343000", "182725.359000", "182725.359000", "182725.359000", "182725.359000", "182725.359000", "182725.359000", "182725.359000", "182725.375000", "182725.375000", "182725.375000", "182725.375000", "182725.375000", "182725.375000", "182725.375000", "182725.390000", "182825.312000", "182825.328000", "182825.328000", "182825.328000", "182825.328000", "182825.328000", "182825.328000", "182825.328000", "182825.343000", "182825.343000", "182825.343000", "182825.343000", "182825.343000", "182825.343000", "182825.343000", "182825.359000", "182825.359000", "182825.359000", "182825.359000", "182825.359000", "182825.359000", "182825.359000", "182825.375000", "182825.375000", "182825.375000", "182825.375000", "182825.375000", "182825.375000", "182845.312000", "182845.328000", "182845.328000", "182845.328000", "182845.328000", "182845.328000", "182845.328000", "182845.328000", "182845.343000", "182945.312000", "182945.328000", "182945.328000", "182945.328000", "182945.328000", "182945.328000", "182945.328000", "182945.328000", "182945.343000", "182945.343000", "182945.343000", "182945.343000", "182945.343000", "182945.343000", "182945.343000", "182945.359000", "182945.359000", "182945.359000", "182945.359000", "182945.359000", "182945.359000", "182945.359000", "182945.375000", "182945.375000", "182945.375000", "182945.375000", "182945.375000", "182945.375000", "182945.375000", "183045.312000", "183045.328000", "183045.328000", "183045.328000", "183045.328000", "183045.328000", "183045.328000", "183045.328000", "183045.343000", "183045.343000", "183045.343000", "183045.343000", "183045.343000", "183045.343000", "183045.343000", "183045.359000", "183045.359000", "183045.359000", "183045.359000", "183045.359000", "183045.359000", "183045.359000", "183045.375000", "183045.375000", "183045.375000", "183045.375000", "183045.375000", "183045.375000", "183145.312000", "183145.328000", "183145.328000", "183145.328000", "183145.328000", "183145.328000", "183145.328000", "183145.328000", "183145.343000", "183145.343000", "183145.343000", "183145.343000", "183145.343000", "183145.343000", "183145.343000", "183145.359000", "183145.359000", "183145.359000", "183145.359000", "183145.359000", "183145.359000", "183145.375000", "183145.375000", "183145.375000", "183145.375000", "183145.375000", "183145.375000", "183145.390000", "183245.312000", "183245.328000", "183245.328000", "183245.328000", "183245.328000", "183245.328000", "183245.328000", "183245.343000", "183245.343000", "183245.343000", "183245.343000", "183245.343000", "183245.343000", "183245.359000", "183245.359000", "183245.359000", "183245.359000", "183245.359000", "183245.375000", "183245.375000", "183245.375000", "183245.375000", "183245.375000", "183245.375000", "183245.375000", "183245.390000", "183245.390000", "183245.390000", "183345.312000", "183345.328000", "183345.328000", "183345.328000", "183345.328000", "183345.328000", "183345.328000", "183345.328000", "183345.343000", "183345.343000", "183345.343000", "183345.343000", "183345.343000", "183345.343000", "183345.343000", "183345.359000", "183345.359000", "183345.359000", "183345.359000", "183345.359000", "183345.359000", "183345.375000", "183345.375000", "183345.375000", "183345.375000", "183345.375000", "183345.375000", "183345.375000", "183345.390000", "183445.312000", "183445.328000", "183445.328000", "183445.328000", "183445.328000", "183445.328000", "183445.328000", "183445.328000", "183445.343000", "183445.343000", "183445.343000", "183445.343000", "183445.343000", "183445.343000", "183445.359000", "183445.359000", "183445.359000", "183445.359000", "183445.359000", "183445.359000", "183445.359000", "183445.375000", "183445.375000", "183445.375000", "183445.375000", "183445.375000", "183445.375000", "183445.375000", "183545.312000", "183545.328000", "183545.328000", "183545.328000", "183545.328000", "183545.328000", "183545.328000", "183545.328000", "183545.343000", "183545.343000", "183545.343000", "183545.343000", "183545.343000", "183545.343000", "183545.343000", "183545.359000", "183545.359000", "183545.359000", "183545.359000", "183545.359000", "183545.375000", "183545.375000", "183545.375000", "183545.375000", "183545.375000", "183545.375000", "183545.375000", "183545.390000", "183645.312000", "183645.328000", "183645.328000", "183645.328000", "183645.328000", "183645.328000", "183645.328000", "183645.328000", "183645.343000", "183645.343000", "183645.343000", "183645.343000", "183645.343000", "183645.343000", "183645.343000", "183645.359000", "183645.359000", "183645.359000", "183645.359000", "183645.359000", "183645.359000", "183645.359000", "183645.375000", "183645.375000", "183645.375000", "183645.375000", "183645.375000", "183645.375000", "183645.375000", "183745.312000", "183745.328000", "183745.328000", "183745.328000", "183745.328000", "183745.328000", "183745.328000", "183745.328000", "183745.343000", "183745.343000", "183745.343000", "183745.343000", "183745.343000", "183745.343000", "183745.343000", "183745.359000", "183745.359000", "183745.359000", "183745.359000", "183745.359000", "183745.375000", "183745.375000", "183745.375000", "183745.375000", "183745.375000", "183745.390000", "183745.390000", "183745.390000", "183845.312000", "183845.328000", "183845.328000", "183845.328000", "183845.328000", "183845.328000", "183845.328000", "183845.328000", "183845.343000", "183845.343000", "183845.343000", "183845.343000", "183845.343000", "183845.343000", "183845.359000", "183845.359000", "183845.359000", "183845.359000", "183845.359000", "183845.359000", "183845.375000", "183845.375000", "183845.375000", "183845.375000", "183845.375000", "183845.375000", "183845.375000", "183845.390000", "183945.312000", "183945.328000", "183945.328000", "183945.328000", "183945.328000", "183945.328000", "183945.328000", "183945.328000", "183945.343000", "183945.343000", "183945.343000", "183945.343000", "183945.343000", "183945.343000", "183945.343000", "183945.359000", "183945.359000", "183945.359000", "183945.359000", "183945.359000", "183945.359000", "183945.359000", "183945.375000", "183945.375000", "183945.375000", "183945.375000", "183945.375000", "183945.375000", "183945.375000", "184045.312000", "184045.328000", "184045.328000", "184045.328000", "184045.328000", "184045.328000", "184045.328000", "184045.343000", "184045.343000", "184045.343000", "184045.343000", "184045.343000", "184045.343000", "184045.343000", "184045.359000", "184045.359000", "184045.359000", "184045.359000", "184045.359000", "184045.359000", "184045.375000", "184045.375000", "184045.375000", "184045.375000", "184045.375000", "184045.375000", "184045.375000", "184045.390000", "184145.312000", "184145.328000", "184145.328000", "184145.328000", "184145.328000", "184145.328000", "184145.328000", "184145.328000", "184145.343000", "184145.343000", "184145.343000", "184145.343000", "184145.343000", "184145.343000", "184145.343000", "184145.359000", "184145.359000", "184145.359000", "184145.359000", "184145.359000", "184145.359000", "184145.359000", "184145.375000", "184145.375000", "184145.375000", "184145.375000", "184145.375000", "184145.390000", "184245.312000", "184245.328000", "184245.328000", "184245.328000", "184245.328000", "184245.328000", "184245.328000", "184245.328000", "184245.343000", "184245.343000", "184245.343000", "184245.343000", "184245.343000", "184245.343000", "184245.359000", "184245.359000", "184245.359000", "184245.359000", "184245.359000", "184245.375000", "184245.375000", "184245.375000", "184245.375000", "184245.375000", "184245.390000", "184245.390000", "184245.390000", "184245.390000", "184345.312000", "184345.328000", "184345.328000", "184345.328000", "184345.328000", "184345.328000", "184345.328000", "184345.328000", "184345.343000", "184345.343000", "184345.343000", "184345.343000", "184345.343000", "184345.343000", "184345.359000", "184345.359000", "184345.359000", "184345.359000", "184345.359000", "184345.359000", "184345.359000", "184345.375000", "184345.375000", "184345.375000", "184345.375000", "184345.375000", "184345.375000", "184345.375000", "184345.390000", "184445.312000", "184445.328000", "184445.328000", "184445.328000", "184445.328000", "184445.328000", "184445.328000", "184445.343000", "184445.343000", "184445.343000", "184445.343000", "184445.343000", "184445.343000", "184445.343000", "184445.359000", "184445.359000", "184445.359000", "184445.359000", "184445.359000", "184445.359000", "184445.359000", "184445.375000", "184445.375000", "184445.375000", "184445.375000", "184445.375000", "184445.375000", "184445.375000", "184545.312000", "184545.328000", "184545.328000", "184545.328000", "184545.328000", "184545.328000", "184545.328000", "184545.328000", "184545.343000", "184545.343000", "184545.343000", "184545.343000", "184545.343000", "184545.343000", "184545.343000", "184545.359000", "184545.359000", "184545.359000", "184545.359000", "184545.359000", "184545.359000", "184545.359000", "184545.375000", "184545.375000", "184545.375000", "184545.375000", "184545.375000", "184545.375000", "184549.546000", "184549.546000", "184549.546000"],
