{
  "AcquisitionMatrixPE": 104,
  "AcquisitionNumber": 1,
  "AcquisitionTime": "14:39:41.742500",
  "BandwidthPerPixelPhaseEncode": 13.935,
  "BaseResolution": 104,
  "CoilString": "C:HEA;HEP",
  "ConversionSoftware": "dcm2niix",
  "ConversionSoftwareVersion": "v1.0.20210317",
  "DerivedVendorReportedEchoSpacing": 0.000690017,
  "DeviceSerialNumber": "35450",
  "DwellTime": 2.5e-06,
  "EchoTime": 0.0348,
  "EffectiveEchoSpacing": 0.000690017,
  "FlipAngle": 55,
  "ImageComments": "Unaliased MB8/PE3 (remote)",
  "ImageOrientationPatientDICOM": [1, 0, 0, 0, 0.929133, -0.369747],
  "ImageType": [
    "ORIGINAL",
    "PRIMARY",
    "M",
    "MB",
    "ND",
    "MOSAIC"
],
  "ImagingFrequency": 123.234,
  "InPlanePhaseEncodingDirectionDICOM": "COL",
  "InstitutionAddress": "Univeristy Ave. 197,Newark,North East,US,07102-1814",
  "InstitutionName": "RUBIC",
  "InstitutionalDepartmentName": "Department",
  "MRAcquisitionType": "2D",
  "MagneticFieldStrength": 3,
  "Manufacturer": "Siemens",
  "ManufacturersModelName": "TrioTim",
  "Modality": "MR",
  "MultibandAccelerationFactor": 8,
  "PartialFourier": 0.875,
  "PatientPosition": "HFS",
  "PercentPhaseFOV": 100,
  "PercentSampling": 100,
  "PhaseEncodingDirection": "j-",
  "PhaseEncodingSteps": 91,
  "PhaseResolution": 1,
  "PixelBandwidth": 1923,
  "ProcedureStepDescription": "Cole^Michael",
  "ProtocolName": "cmrr_mbep2d_bold_2mm_MB8_Task_8x",
  "PulseSequenceDetails": "%CustomerSeq%\\cmrr_mbep2d_bold",
  "ReceiveCoilName": "32Ch_Head",
  "ReconMatrixPE": 104,
  "RepetitionTime": 0.785,
  "SAR": 0.126663,
  "ScanOptions": "PFP\\FS",
  "ScanningSequence": "EP",
  "SequenceName": "epfid2d1_104",
  "SequenceVariant": "SK\\SS",
  "SeriesDescription": "cmrr_mbep2d_bold_2mm_MB8_Task_8x",
  "SeriesNumber": 17,
  "ShimSetting": [2137, -289, -7374, 655, -182, -622, -99, -100],
  "SliceThickness": 2,
  "SliceTiming": [0, 0.4375, 0.0875, 0.525, 0.175, 0.6125, 0.2625, 0.7, 0.35, 0, 0.4375, 0.0875, 0.525, 0.175, 0.6125, 0.2625, 0.7, 0.35, 0, 0.4375, 0.0875, 0.525, 0.175, 0.6125, 0.2625, 0.7, 0.35, 0, 0.4375, 0.0875, 0.525, 0.175, 0.6125, 0.2625, 0.7, 0.35, 0, 0.4375, 0.0875, 0.525, 0.175, 0.6125, 0.2625, 0.7, 0.35, 0, 0.4375, 0.0875, 0.525, 0.175, 0.6125, 0.2625, 0.7, 0.35, 0, 0.4375, 0.0875, 0.525, 0.175, 0.6125, 0.2625, 0.7, 0.35, 0, 0.4375, 0.0875, 0.525, 0.175, 0.6125, 0.2625, 0.7, 0.35],
  "SoftwareVersions": "syngo MR B19",
  "SpacingBetweenSlices": 2,
  "StationName": "MRC35450",
  "TaskName": "cpro",
  "TotalReadoutTime": 0.0710717,
  "TxRefAmp": 444.714,
  "dcmmeta_affine": [
    [-2.0, 0.0, 0.0, 102.6440658569336],
    [0.0, 1.8582651615142822, -0.7394934892654419, -73.35933685302734],
    [0.0, 0.7394934892654419, 1.8582651615142822, -141.18328857421875],
    [0.0, 0.0, 0.0, 1.0]
],
  "dcmmeta_reorient_transform": [
    [0.0, -1.0, 0.0, 103.0],
    [1.0, 0.0, 0.0, 0.0],
    [0.0, 0.0, 1.0, 0.0],
    [0.0, 0.0, 0.0, 1.0]
],
  "dcmmeta_shape": [104, 104, 72, 581],
  "dcmmeta_slice_dim": 2,
  "dcmmeta_version": 0.6,
  "global": {
    "const": {
      "AcquisitionMatrix": [104, 0, 0, 104],
      "AngioFlag": "N",
      "BitsAllocated": 16,
      "BitsStored": 12,
      "Columns": 936,
      "EchoNumbers": 1,
      "EchoTime": 34.8,
      "EchoTrainLength": 1,
      "FlipAngle": 55.0,
      "HighBit": 11,
      "ImageOrientationPatient": [1.0, 0.0, 0.0, 0.0, 0.92913258020978, -0.3697467354727],
      "ImagePositionPatient": [-934.64406776428, -891.08027883795, 242.61382819152],
      "ImageType": [
        "ORIGINAL",
        "PRIMARY",
        "M",
        "MB",
        "ND",
        "MOSAIC"
],
      "ImagedNucleus": "1H",
      "ImagingFrequency": 123.234497,
      "InPlanePhaseEncodingDirection": "COL",
      "MRAcquisitionType": "2D",
      "MagneticFieldStrength": 3.0,
      "Manufacturer": "SIEMENS",
      "ManufacturerModelName": "TrioTim",
      "Modality": "MR",
      "NumberOfAverages": 1.0,
      "NumberOfPhaseEncodingSteps": 91,
      "PercentPhaseFieldOfView": 100.0,
      "PercentSampling": 100.0,
      "PerformedProcedureStepStartTime": "132012.640000",
      "PhotometricInterpretation": "MONOCHROME2",
      "PixelBandwidth": 1923.0,
      "PixelRepresentation": 0,
      "PixelSpacing": [2.0, 2.0],
      "ProtocolName": "cmrr_mbep2d_bold_2mm_MB8_Task_8x",
      "RepetitionTime": 785.0,
      "Rows": 936,
      "SAR": 0.12666260542807,
      "SamplesPerPixel": 1,
      "ScanOptions": [
        "PFP",
        "FS"
],
      "ScanningSequence": "EP",
      "SequenceName": "epfid2d1_104",
      "SequenceVariant": [
        "SK",
        "SS"
],
      "SeriesDescription": "cmrr_mbep2d_bold_2mm_MB8_Task_8x",
      "SeriesNumber": 17,
      "SeriesTime": "144018.515000",
      "SliceLocation": -104.05361196229,
      "SliceThickness": 2.0,
      "SmallestImagePixelValue": 0,
      "SoftwareVersions": "syngo MR B19",
      "SpacingBetweenSlices": 1.9999999715441,
      "SpecificCharacterSet": "ISO_IR 100",
      "StudyID": "1",
      "StudyTime": "132012.578000",
      "TransmitCoilName": "Body",
      "VariableFlipAngleFlag": "N",
      "WindowCenterWidthExplanation": "Algo1",
      "dBdt": 0.0},
    "slices": {}
  },
  "time": {
    "samples": {
      "AcquisitionNumber": [1, 2, 3, 4, 5, 6, 7, 8, 9, 10, 11, 12, 13, 14, 15, 16, 17, 18, 19, 20, 21, 22, 23, 24, 25, 26, 27, 28, 29, 30, 31, 32, 33, 34, 35, 36, 37, 38, 39, 40, 41, 42, 43, 44, 45, 46, 47, 48, 49, 50, 51, 52, 53, 54, 55, 56, 57, 58, 59, 60, 61, 62, 63, 64, 65, 66, 67, 68, 69, 70, 71, 72, 73, 74, 75, 76, 77, 78, 79, 80, 81, 82, 83, 84, 85, 86, 87, 88, 89, 90, 91, 92, 93, 94, 95, 96, 97, 98, 99, 100, 101, 102, 103, 104, 105, 106, 107, 108, 109, 110, 111, 112, 113, 114, 115, 116, 117, 118, 119, 120, 121, 122, 123, 124, 125, 126, 127, 128, 129, 130, 131, 132, 133, 134, 135, 136, 137, 138, 139, 140, 141, 142, 143, 144, 145, 146, 147, 148, 149, 150, 151, 152, 153, 154, 155, 156, 157, 158, 159, 160, 161, 162, 163, 164, 165, 166, 167, 168, 169, 170, 171, 172, 173, 174, 175, 176, 177, 178, 179, 180, 181, 182, 183, 184, 185, 186, 187, 188, 189, 190, 191, 192, 193, 194, 195, 196, 197, 198, 199, 200, 201, 202, 203, 204, 205, 206, 207, 208, 209, 210, 211, 212, 213, 214, 215, 216, 217, 218, 219, 220, 221, 222, 223, 224, 225, 226, 227, 228, 229, 230, 231, 232, 233, 234, 235, 236, 237, 238, 239, 240, 241, 242, 243, 244, 245, 246, 247, 248, 249, 250, 251, 252, 253, 254, 255, 256, 257, 258, 259, 260, 261, 262, 263, 264, 265, 266, 267, 268, 269, 270, 271, 272, 273, 274, 275, 276, 277, 278, 279, 280, 281, 282, 283, 284, 285, 286, 287, 288, 289, 290, 291, 292, 293, 294, 295, 296, 297, 298, 299, 300, 301, 302, 303, 304, 305, 306, 307, 308, 309, 310, 311, 312, 313, 314, 315, 316, 317, 318, 319, 320, 321, 322, 323, 324, 325, 326, 327, 328, 329, 330, 331, 332, 333, 334, 335, 336, 337, 338, 339, 340, 341, 342, 343, 344, 345, 346, 347, 348, 349, 350, 351, 352, 353, 354, 355, 356, 357, 358, 359, 360, 361, 362, 363, 364, 365, 366, 367, 368, 369, 370, 371, 372, 373, 374, 375, 376, 377, 378, 379, 380, 381, 382, 383, 384, 385, 386, 387, 388, 389, 390, 391, 392, 393, 394, 395, 396, 397, 398, 399, 400, 401, 402, 403, 404, 405, 406, 407, 408, 409, 410, 411, 412, 413, 414, 415, 416, 417, 418, 419, 420, 421, 422, 423, 424, 425, 426, 427, 428, 429, 430, 431, 432, 433, 434, 435, 436, 437, 438, 439, 440, 441, 442, 443, 444, 445, 446, 447, 448, 449, 450, 451, 452, 453, 454, 455, 456, 457, 458, 459, 460, 461, 462, 463, 464, 465, 466, 467, 468, 469, 470, 471, 472, 473, 474, 475, 476, 477, 478, 479, 480, 481, 482, 483, 484, 485, 486, 487, 488, 489, 490, 491, 492, 493, 494, 495, 496, 497, 498, 499, 500, 501, 502, 503, 504, 505, 506, 507, 508, 509, 510, 511, 512, 513, 514, 515, 516, 517, 518, 519, 520, 521, 522, 523, 524, 525, 526, 527, 528, 529, 530, 531, 532, 533, 534, 535, 536, 537, 538, 539, 540, 541, 542, 543, 544, 545, 546, 547, 548, 549, 550, 551, 552, 553, 554, 555, 556, 557, 558, 559, 560, 561, 562, 563, 564, 565, 566, 567, 568, 569, 570, 571, 572, 573, 574, 575, 576, 577, 578, 579, 580, 581],
      "AcquisitionTime": ["143941.742500", "143942.530000", "143943.320000", "143944.107500", "143944.895000", "143945.682500", "143946.472500", "143947.260000", "143948.047500", "143948.835000", "143949.625000", "143950.412500", "143951.200000", "143951.987500", "143952.777500", "143953.565000", "143954.352500", "143955.140000", "143955.930000", "143956.717500", "143957.505000", "143958.295000", "143959.082500", "143959.870000", "144000.657500", "144001.447500", "144002.235000", "144003.022500", "144003.810000", "144004.600000", "144005.387500", "144006.175000", "144006.962500", "144007.752500", "144008.540000", "144009.327500", "144010.115000", "144010.905000", "144011.692500", "144012.480000", "144013.267500", "144014.057500", "144014.845000", "144015.632500", "144016.422500", "144017.210000", "144017.997500", "144018.785000", "144019.575000", "144020.362500", "144021.150000", "144021.937500", "144022.727500", "144023.515000", "144024.302500", "144025.090000", "144025.880000", "144026.667500", "144027.455000", "144028.242500", "144029.032500", "144029.820000", "144030.607500", "144031.395000", "144032.185000", "144032.972500", "144033.760000", "144034.550000", "144035.337500", "144036.125000", "144036.912500", "144037.702500", "144038.490000", "144039.277500", "144040.065000", "144040.855000", "144041.642500", "144042.430000", "144043.217500", "144044.007500", "144044.795000", "144045.582500", "144046.370000", "144047.160000", "144047.947500", "144048.735000", "144049.522500", "144050.312500", "144051.100000", "144051.887500", "144052.677500", "144053.465000", "144054.252500", "144055.040000", "144055.830000", "144056.617500", "144057.405000", "144058.192500", "144058.982500", "144059.770000", "144100.557500", "144101.345000", "144102.135000", "144102.922500", "144103.710000", "144104.497500", "144105.287500", "144106.075000", "144106.862500", "144107.650000", "144108.440000", "144109.227500", "144110.015000", "144110.805000", "144111.592500", "144112.380000", "144113.167500", "144113.957500", "144114.745000", "144115.532500", "144116.320000", "144117.110000", "144117.897500", "144118.685000", "144119.472500", "144120.262500", "144121.050000", "144121.837500", "144122.625000", "144123.415000", "144124.202500", "144124.990000", "144125.777500", "144126.567500", "144127.355000", "144128.142500", "144128.932500", "144129.720000", "144130.507500", "144131.295000", "144132.085000", "144132.872500", "144133.660000", "144134.447500", "144135.237500", "144136.025000", "144136.812500", "144137.600000", "144138.390000", "144139.177500", "144139.965000", "144140.752500", "144141.542500", "144142.330000", "144143.117500", "144143.905000", "144144.695000", "144145.482500", "144146.270000", "144147.060000", "144147.847500", "144148.635000", "144149.422500", "144150.212500", "144151.000000", "144151.787500", "144152.575000", "144153.365000", "144154.152500", "144154.940000", "144155.727500", "144156.517500", "144157.305000", "144158.092500", "144158.880000", "144159.670000", "144200.457500", "144201.245000", "144202.032500", "144202.822500", "144203.610000", "144204.397500", "144205.187500", "144205.975000", "144206.762500", "144207.550000", "144208.340000", "144209.127500", "144209.915000", "144210.702500", "144211.492500", "144212.280000", "144213.067500", "144213.855000", "144214.645000", "144215.432500", "144216.220000", "144217.007500", "144217.797500", "144218.585000", "144219.372500", "144220.160000", "144220.950000", "144221.737500", "144222.525000", "144223.315000", "144224.102500", "144224.890000", "144225.677500", "144226.467500", "144227.255000", "144228.042500", "144228.830000", "144229.620000", "144230.407500", "144231.195000", "144231.982500", "144232.772500", "144233.560000", "144234.347500", "144235.135000", "144235.925000", "144236.712500", "144237.500000", "144238.287500", "144239.077500", "144239.865000", "144240.652500", "144241.442500", "144242.230000", "144243.017500", "144243.805000", "144244.595000", "144245.382500", "144246.170000", "144246.957500", "144247.747500", "144248.535000", "144249.322500", "144250.110000", "144250.900000", "144251.687500", "144252.475000", "144253.262500", "144254.052500", "144254.840000", "144255.627500", "144256.415000", "144257.205000", "144257.992500", "144258.780000", "144259.570000", "144300.357500", "144301.145000", "144301.932500", "144302.722500", "144303.510000", "144304.297500", "144305.085000", "144305.875000", "144306.662500", "144307.450000", "144308.237500", "144309.027500", "144309.815000", "144310.602500", "144311.390000", "144312.180000", "144312.967500", "144313.755000", "144314.545000", "144315.332500", "144316.120000", "144316.907500", "144317.697500", "144318.485000", "144319.272500", "144320.060000", "144320.850000", "144321.637500", "144322.425000", "144323.212500", "144324.002500", "144324.790000", "144325.577500", "144326.365000", "144327.155000", "144327.942500", "144328.730000", "144329.517500", "144330.307500", "144331.095000", "144331.882500", "144332.672500", "144333.460000", "144334.247500", "144335.035000", "144335.825000", "144336.612500", "144337.400000", "144338.187500", "144338.977500", "144339.765000", "144340.552500", "144341.340000", "144342.130000", "144342.917500", "144343.705000", "144344.492500", "144345.282500", "144346.070000", "144346.857500", "144347.645000", "144348.435000", "144349.222500", "144350.010000", "144350.800000", "144351.587500", "144352.375000", "144353.162500", "144353.952500", "144354.740000", "144355.527500", "144356.315000", "144357.105000", "144357.892500", "144358.680000", "144359.467500", "144400.257500", "144401.045000", "144401.832500", "144402.620000", "144403.410000", "144404.197500", "144404.985000", "144405.772500", "144406.562500", "144407.350000", "144408.137500", "144408.927500", "144409.715000", "144410.502500", "144411.290000", "144412.080000", "144412.867500", "144413.655000", "144414.442500", "144415.232500", "144416.020000", "144416.807500", "144417.595000", "144418.385000", "144419.172500", "144419.960000", "144420.747500", "144421.537500", "144422.325000", "144423.112500", "144423.900000", "144424.690000", "144425.477500", "144426.265000", "144427.055000", "144427.842500", "144428.630000", "144429.417500", "144430.207500", "144430.995000", "144431.782500", "144432.570000", "144433.360000", "144434.147500", "144434.935000", "144435.722500", "144436.512500", "144437.300000", "144438.087500", "144438.875000", "144439.665000", "144440.452500", "144441.240000", "144442.027500", "144442.817500", "144443.605000", "144444.392500", "144445.182500", "144445.970000", "144446.757500", "144447.545000", "144448.335000", "144449.122500", "144449.910000", "144450.697500", "144451.487500", "144452.275000", "144453.062500", "144453.850000", "144454.640000", "144455.427500", "144456.215000", "144457.002500", "144457.792500", "144458.580000", "144459.367500", "144500.155000", "144500.945000", "144501.732500", "144502.520000", "144503.310000", "144504.097500", "144504.885000", "144505.672500", "144506.462500", "144507.250000", "144508.037500", "144508.825000", "144509.615000", "144510.402500", "144511.190000", "144511.977500", "144512.767500", "144513.555000", "144514.342500", "144515.130000", "144515.920000", "144516.707500", "144517.495000", "144518.282500", "144519.072500", "144519.860000", "144520.647500", "144521.437500", "144522.225000", "144523.012500", "144523.800000", "144524.590000", "144525.377500", "144526.165000", "144526.952500", "144527.742500", "144528.530000", "144529.317500", "144530.105000", "144530.895000", "144531.682500", "144532.470000", "144533.257500", "144534.047500", "144534.835000", "144535.622500", "144536.410000", "144537.200000", "144537.987500", "144538.775000", "144539.565000", "144540.352500", "144541.140000", "144541.927500", "144542.717500", "144543.505000", "144544.292500", "144545.080000", "144545.870000", "144546.657500", "144547.445000", "144548.232500", "144549.022500", "144549.810000", "144550.597500", "144551.385000", "144552.175000", "144552.962500", "144553.750000", "144554.537500", "144555.327500", "144556.115000", "144556.902500", "144557.692500", "144558.480000", "144559.267500", "144600.055000", "144600.845000", "144601.632500", "144602.420000", "144603.207500", "144603.997500", "144604.785000", "144605.572500", "144606.360000", "144607.150000", "144607.937500", "144608.725000", "144609.512500", "144610.302500", "144611.090000", "144611.877500", "144612.665000", "144613.455000", "144614.242500", "144615.030000", "144615.820000", "144616.607500", "144617.395000", "144618.182500", "144618.972500", "144619.760000", "144620.547500", "144621.335000", "144622.125000", "144622.912500", "144623.700000", "144624.487500", "144625.277500", "144626.065000", "144626.852500", "144627.640000", "144628.430000", "144629.217500", "144630.005000", "144630.795000", "144631.582500", "144632.370000", "144633.157500", "144633.947500", "144634.735000", "144635.522500", "144636.310000", "144637.100000", "144637.887500", "144638.675000", "144639.462500", "144640.252500", "144641.040000", "144641.827500", "144642.615000", "144643.405000", "144644.192500", "144644.980000", "144645.767500", "144646.557500", "144647.345000", "144648.132500", "144648.922500", "144649.710000", "144650.497500", "144651.285000", "144652.075000", "144652.862500", "144653.650000", "144654.437500", "144655.227500", "144656.015000", "144656.802500", "144657.590000", "144658.380000", "144659.167500", "144659.955000", "144700.742500", "144701.532500", "144702.320000", "144703.107500", "144703.895000", "144704.685000", "144705.472500", "144706.260000", "144707.050000", "144707.837500", "144708.625000", "144709.412500", "144710.202500", "144710.990000", "144711.777500", "144712.565000", "144713.355000", "144714.142500", "144714.930000", "144715.717500", "144716.507500", "144717.295000", "144718.082500", "144718.870000"],
      "ContentTime": ["144018.515000", "144018.515000", "144018.515000", "144018.515000", "144018.531000", "144018.531000", "144018.531000", "144018.531000", "144018.531000", "144018.531000", "144018.531000", "144018.546000", "144018.546000", "144018.546000", "144018.546000", "144018.546000", "144018.562000", "144018.562000", "144018.562000", "144018.562000", "144018.562000", "144018.562000", "144018.562000", "144018.562000", "144018.578000", "144018.578000", "144018.578000", "144018.578000", "144018.578000", "144018.593000", "144018.593000", "144018.593000", "144018.593000", "144018.593000", "144018.593000", "144018.593000", "144018.609000", "144018.609000", "144018.609000", "144018.609000", "144018.609000", "144018.609000", "144018.609000", "144018.609000", "144038.484000", "144038.484000", "144038.484000", "144038.500000", "144038.500000", "144038.500000", "144038.500000", "144038.500000", "144038.500000", "144038.500000", "144038.515000", "144038.515000", "144038.515000", "144038.515000", "144038.515000", "144038.531000", "144038.531000", "144038.531000", "144038.531000", "144038.531000", "144038.531000", "144038.531000", "144038.531000", "144038.546000", "144038.546000", "144058.484000", "144058.484000", "144058.484000", "144058.500000", "144058.500000", "144058.500000", "144058.500000", "144058.500000", "144058.515000", "144058.515000", "144058.515000", "144058.515000", "144058.515000", "144058.515000", "144058.515000", "144058.531000", "144058.531000", "144058.531000", "144058.531000", "144058.531000", "144058.531000", "144058.531000", "144058.531000", "144058.546000", "144058.546000", "144058.546000", "144118.484000", "144118.484000", "144118.484000", "144118.500000", "144118.500000", "144118.500000", "144118.500000", "144118.500000", "144118.500000", "144118.515000", "144118.515000", "144118.515000", "144118.515000", "144118.515000", "144118.515000", "144118.515000", "144118.515000", "144118.531000", "144118.531000", "144118.531000", "144118.531000", "144118.531000", "144118.531000", "144118.531000", "144118.531000", "144138.484000", "144138.484000", "144138.484000", "144138.500000", "144138.500000", "144138.500000", "144138.500000", "144138.500000", "144138.500000", "144138.500000", "144138.500000", "144138.515000", "144138.515000", "144138.515000", "144138.515000", "144138.515000", "144138.515000", "144138.515000", "144138.531000", "144138.531000", "144138.531000", "144138.531000", "144138.531000", "144138.531000", "144138.531000", "144158.484000", "144158.484000", "144158.484000", "144158.500000", "144158.500000", "144158.500000", "144158.500000", "144158.500000", "144158.500000", "144158.500000", "144158.500000", "144158.515000", "144158.515000", "144158.515000", "144158.515000", "144158.515000", "144158.515000", "144158.515000", "144158.531000", "144158.531000", "144158.531000", "144158.531000", "144158.531000", "144158.531000", "144158.546000", "144158.546000", "144218.484000", "144218.484000", "144218.484000", "144218.500000", "144218.500000", "144218.500000", "144218.500000", "144218.500000", "144218.500000", "144218.515000", "144218.515000", "144218.515000", "144218.515000", "144218.515000", "144218.531000", "144218.531000", "144218.531000", "144218.531000", "144218.531000", "144218.531000", "144218.531000", "144218.546000", "144218.546000", "144218.546000", "144218.546000", "144218.546000", "144238.484000", "144238.484000", "144238.484000", "144238.500000", "144238.500000", "144238.500000", "144238.500000", "144238.500000", "144238.500000", "144238.515000", "144238.515000", "144238.515000", "144238.515000", "144238.515000", "144238.531000", "144238.531000", "144238.531000", "144238.531000", "144238.531000", "144238.546000", "144238.546000", "144238.546000", "144238.546000", "144238.546000", "144238.546000", "144258.484000", "144258.484000", "144258.484000", "144258.500000", "144258.500000", "144258.500000", "144258.500000", "144258.500000", "144258.515000", "144258.515000", "144258.531000", "144258.531000", "144258.531000", "144258.531000", "144258.531000", "144258.531000", "144258.531000", "144258.546000", "144258.546000", "144258.546000", "144258.546000", "144258.546000", "144258.546000", "144258.546000", "144258.546000", "144318.484000", "144318.484000", "144318.484000", "144318.500000", "144318.500000", "144318.500000", "144318.500000", "144318.500000", "144318.500000", "144318.500000", "144318.500000", "144318.515000", "144318.515000", "144318.515000", "144318.515000", "144318.515000", "144318.515000", "144318.515000", "144318.515000", "144318.531000", "144318.531000", "144318.531000", "144318.531000", "144318.531000", "144318.531000", "144318.531000", "144338.484000", "144338.484000", "144338.484000", "144338.500000", "144338.500000", "144338.500000", "144338.500000", "144338.500000", "144338.500000", "144338.515000", "144338.515000", "144338.515000", "144338.515000", "144338.515000", "144338.515000", "144338.515000", "144338.531000", "144338.531000", "144338.531000", "144338.531000", "144338.531000", "144338.531000", "144338.546000", "144338.546000", "144338.546000", "144358.484000", "144358.484000", "144358.484000", "144358.500000", "144358.500000", "144358.500000", "144358.500000", "144358.500000", "144358.500000", "144358.500000", "144358.500000", "144358.515000", "144358.515000", "144358.515000", "144358.515000", "144358.515000", "144358.515000", "144358.515000", "144358.531000", "144358.531000", "144358.531000", "144358.531000", "144358.531000", "144358.531000", "144358.531000", "144358.546000", "144418.484000", "144418.484000", "144418.484000", "144418.500000", "144418.500000", "144418.500000", "144418.500000", "144418.500000", "144418.500000", "144418.500000", "144418.500000", "144418.515000", "144418.515000", "144418.515000", "144418.515000", "144418.515000", "144418.515000", "144418.515000", "144418.531000", "144418.531000", "144418.531000", "144418.531000", "144418.531000", "144418.531000", "144418.531000", "144438.484000", "144438.484000", "144438.484000", "144438.500000", "144438.500000", "144438.500000", "144438.500000", "144438.500000", "144438.500000", "144438.500000", "144438.500000", "144438.515000", "144438.515000", "144438.515000", "144438.515000", "144438.515000", "144438.515000", "144438.515000", "144438.515000", "144438.531000", "144438.531000", "144438.531000", "144438.531000", "144438.531000", "144438.531000", "144438.531000", "144458.484000", "144458.484000", "144458.484000", "144458.500000", "144458.500000", "144458.500000", "144458.500000", "144458.500000", "144458.500000", "144458.500000", "144458.515000", "144458.515000", "144458.515000", "144458.515000", "144458.515000", "144458.515000", "144458.515000", "144458.531000", "144458.531000", "144458.531000", "144458.531000", "144458.531000", "144458.531000", "144458.531000", "144458.546000", "144518.484000", "144518.484000", "144518.484000", "144518.500000", "144518.500000", "144518.500000", "144518.500000", "144518.500000", "144518.500000", "144518.500000", "144518.515000", "144518.515000", "144518.515000", "144518.515000", "144518.515000", "144518.515000", "144518.515000", "144518.515000", "144518.531000", "144518.531000", "144518.531000", "144518.531000", "144518.531000", "144518.531000", "144518.531000", "144518.546000", "144538.484000", "144538.484000", "144538.484000", "144538.500000", "144538.500000", "144538.500000", "144538.500000", "144538.500000", "144538.500000", "144538.500000", "144538.515000", "144538.515000", "144538.515000", "144538.515000", "144538.515000", "144538.515000", "144538.531000", "144538.531000", "144538.531000", "144538.531000", "144538.531000", "144538.531000", "144538.531000", "144538.531000", "144538.546000", "144558.484000", "144558.484000", "144558.484000", "144558.500000", "144558.500000", "144558.500000", "144558.500000", "144558.500000", "144558.500000", "144558.500000", "144558.500000", "144558.515000", "144558.515000", "144558.515000", "144558.515000", "144558.515000", "144558.515000", "144558.531000", "144558.531000", "144558.531000", "144558.531000", "144558.531000", "144558.531000", "144558.531000", "144558.531000", "144558.546000", "144618.484000", "144618.484000", "144618.484000", "144618.500000", "144618.500000", "144618.500000", "144618.500000", "144618.500000", "144618.500000", "144618.500000", "144618.515000", "144618.515000", "144618.515000", "144618.515000", "144618.515000", "144618.531000", "144618.531000", "144618.531000", "144618.531000", "144618.531000", "144618.531000", "144618.531000", "144618.531000", "144618.546000", "144618.546000", "144638.484000", "144638.484000", "144638.484000", "144638.500000", "144638.500000", "144638.500000", "144638.500000", "144638.500000", "144638.500000", "144638.500000", "144638.500000", "144638.515000", "144638.515000", "144638.515000", "144638.515000", "144638.515000", "144638.515000", "144638.515000", "144638.531000", "144638.531000", "144638.531000", "144638.531000", "144638.531000", "144638.531000", "144638.531000", "144638.531000", "144658.484000", "144658.484000", "144658.484000", "144658.500000", "144658.500000", "144658.500000", "144658.500000", "144658.500000", "144658.500000", "144658.500000", "144658.515000", "144658.515000", "144658.515000", "144658.515000", "144658.515000", "144658.515000", "144658.515000", "144658.515000", "144658.531000", "144658.531000", "144658.531000", "144658.531000", "144658.531000", "144658.531000", "144658.531000", "144718.484000", "144718.484000", "144718.484000", "144718.500000", "144718.500000", "144718.500000", "144718.500000", "144718.500000", "144718.500000", "144718.500000", "144718.500000", "144718.515000", "144718.515000", "144718.515000", "144718.515000", "144718.531000", "144718.531000", "144718.531000", "144718.531000", "144718.531000", "144718.531000", "144718.531000", "144718.546000", "144718.546000", "144718.546000", "144718.546000", "144720.000000", "144720.015000"],
