{
  "AcquisitionMatrixPE": 104,
  "AcquisitionNumber": 1,
  "AcquisitionTime": "14:00:50.152500",
  "BandwidthPerPixelPhaseEncode": 13.935,
  "BaseResolution": 104,
  "CoilString": "C:HEA;HEP",
  "ConversionSoftware": "dcm2niix",
  "ConversionSoftwareVersion": "v1.0.20210317",
  "DerivedVendorReportedEchoSpacing": 0.000690017,
  "DeviceSerialNumber": "35450",
  "DwellTime": 2.5e-06,
  "EchoTime": 0.0348,
  "EffectiveEchoSpacing": 0.000690017,
  "FlipAngle": 55,
  "ImageComments": "Unaliased MB8/PE3 (remote)",
  "ImageOrientationPatientDICOM": [1, 0, 0, 0, 0.929133, -0.369747],
  "ImageType": [
    "ORIGINAL",
    "PRIMARY",
    "M",
    "MB",
    "ND",
    "MOSAIC"
],
  "ImagingFrequency": 123.234,
  "InPlanePhaseEncodingDirectionDICOM": "COL",
  "InstitutionAddress": "Univeristy Ave. 197,Newark,North East,US,07102-1814",
  "InstitutionName": "RUBIC",
  "InstitutionalDepartmentName": "Department",
  "MRAcquisitionType": "2D",
  "MagneticFieldStrength": 3,
  "Manufacturer": "Siemens",
  "ManufacturersModelName": "TrioTim",
  "Modality": "MR",
  "MultibandAccelerationFactor": 8,
  "PartialFourier": 0.875,
  "PatientPosition": "HFS",
  "PercentPhaseFOV": 100,
  "PercentSampling": 100,
  "PhaseEncodingDirection": "j-",
  "PhaseEncodingSteps": 91,
  "PhaseResolution": 1,
  "PixelBandwidth": 1923,
  "ProcedureStepDescription": "Cole^Michael",
  "ProtocolName": "cmrr_mbep2d_bold_2mm_MB8_Rest",
  "PulseSequenceDetails": "%CustomerSeq%\\cmrr_mbep2d_bold",
  "ReceiveCoilName": "32Ch_Head",
  "ReconMatrixPE": 104,
  "RepetitionTime": 0.785,
  "SAR": 0.131547,
  "ScanOptions": "PFP\\FS",
  "ScanningSequence": "EP",
  "SequenceName": "epfid2d1_104",
  "SequenceVariant": "SK\\SS",
  "SeriesDescription": "cmrr_mbep2d_bold_2mm_MB8_Rest",
  "SeriesNumber": 9,
  "ShimSetting": [2137, -289, -7374, 655, -182, -622, -99, -100],
  "SliceThickness": 2,
  "SliceTiming": [0, 0.4375, 0.0875, 0.525, 0.175, 0.6125, 0.2625, 0.7, 0.35, 0, 0.4375, 0.0875, 0.525, 0.175, 0.6125, 0.2625, 0.7, 0.35, 0, 0.4375, 0.0875, 0.525, 0.175, 0.6125, 0.2625, 0.7, 0.35, 0, 0.4375, 0.0875, 0.525, 0.175, 0.6125, 0.2625, 0.7, 0.35, 0, 0.4375, 0.0875, 0.525, 0.175, 0.6125, 0.2625, 0.7, 0.35, 0, 0.4375, 0.0875, 0.525, 0.175, 0.6125, 0.2625, 0.7, 0.35, 0, 0.4375, 0.0875, 0.525, 0.175, 0.6125, 0.2625, 0.7, 0.35, 0, 0.4375, 0.0875, 0.525, 0.175, 0.6125, 0.2625, 0.7, 0.35],
  "SoftwareVersions": "syngo MR B19",
  "SpacingBetweenSlices": 2,
  "StationName": "MRC35450",
  "TaskName": "rest",
  "TotalReadoutTime": 0.0710717,
  "TxRefAmp": 444.714,
  "dcmmeta_affine": [
    [-2.0, 0.0, 0.0, 102.6440658569336],
    [0.0, 1.8582651615142822, -0.7394934892654419, -73.35933685302734],
    [0.0, 0.7394934892654419, 1.8582651615142822, -141.18328857421875],
    [0.0, 0.0, 0.0, 1.0]
],
  "dcmmeta_reorient_transform": [
    [0.0, -1.0, 0.0, 103.0],
    [1.0, 0.0, 0.0, 0.0],
    [0.0, 0.0, 1.0, 0.0],
    [0.0, 0.0, 0.0, 1.0]
],
  "dcmmeta_shape": [104, 104, 72, 1070],
  "dcmmeta_slice_dim": 2,
  "dcmmeta_version": 0.6,
  "global": {
    "const": {
      "AcquisitionMatrix": [104, 0, 0, 104],
      "AngioFlag": "N",
      "BitsAllocated": 16,
      "BitsStored": 12,
      "Columns": 936,
      "EchoNumbers": 1,
      "EchoTime": 34.8,
      "EchoTrainLength": 1,
      "FlipAngle": 55.0,
      "HighBit": 11,
      "ImageOrientationPatient": [1.0, 0.0, 0.0, 0.0, 0.92913258020978, -0.3697467354727],
      "ImagePositionPatient": [-934.64406776428, -891.08027883795, 242.61382819152],
      "ImageType": [
        "ORIGINAL",
        "PRIMARY",
        "M",
        "MB",
        "ND",
        "MOSAIC"
],
      "ImagedNucleus": "1H",
      "ImagingFrequency": 123.234447,
      "InPlanePhaseEncodingDirection": "COL",
      "MRAcquisitionType": "2D",
      "MagneticFieldStrength": 3.0,
      "Manufacturer": "SIEMENS",
      "ManufacturerModelName": "TrioTim",
      "Modality": "MR",
      "NumberOfAverages": 1.0,
      "NumberOfPhaseEncodingSteps": 91,
      "PercentPhaseFieldOfView": 100.0,
      "PercentSampling": 100.0,
      "PerformedProcedureStepStartTime": "132012.640000",
      "PhotometricInterpretation": "MONOCHROME2",
      "PixelBandwidth": 1923.0,
      "PixelRepresentation": 0,
      "PixelSpacing": [2.0, 2.0],
      "ProtocolName": "cmrr_mbep2d_bold_2mm_MB8_Rest",
      "RepetitionTime": 785.0,
      "Rows": 936,
      "SAR": 0.13154650747969,
      "SamplesPerPixel": 1,
      "ScanOptions": [
        "PFP",
        "FS"
],
      "ScanningSequence": "EP",
      "SequenceName": "epfid2d1_104",
      "SequenceVariant": [
        "SK",
        "SS"
],
      "SeriesDescription": "cmrr_mbep2d_bold_2mm_MB8_Rest",
      "SeriesNumber": 9,
      "SeriesTime": "140118.484000",
      "SliceLocation": -104.05361196229,
      "SliceThickness": 2.0,
      "SmallestImagePixelValue": 0,
      "SoftwareVersions": "syngo MR B19",
      "SpacingBetweenSlices": 1.9999999715441,
      "SpecificCharacterSet": "ISO_IR 100",
      "StudyID": "1",
      "StudyTime": "132012.578000",
      "TransmitCoilName": "Body",
      "VariableFlipAngleFlag": "N",
      "WindowCenterWidthExplanation": "Algo1",
      "dBdt": 0.0},
    "slices": {}
  },
  "time": {
    "samples": {
      "AcquisitionNumber": [1, 2, 3, 4, 5, 6, 7, 8, 9, 10, 11, 12, 13, 14, 15, 16, 17, 18, 19, 20, 21, 22, 23, 24, 25, 26, 27, 28, 29, 30, 31, 32, 33, 34, 35, 36, 37, 38, 39, 40, 41, 42, 43, 44, 45, 46, 47, 48, 49, 50, 51, 52, 53, 54, 55, 56, 57, 58, 59, 60, 61, 62, 63, 64, 65, 66, 67, 68, 69, 70, 71, 72, 73, 74, 75, 76, 77, 78, 79, 80, 81, 82, 83, 84, 85, 86, 87, 88, 89, 90, 91, 92, 93, 94, 95, 96, 97, 98, 99, 100, 101, 102, 103, 104, 105, 106, 107, 108, 109, 110, 111, 112, 113, 114, 115, 116, 117, 118, 119, 120, 121, 122, 123, 124, 125, 126, 127, 128, 129, 130, 131, 132, 133, 134, 135, 136, 137, 138, 139, 140, 141, 142, 143, 144, 145, 146, 147, 148, 149, 150, 151, 152, 153, 154, 155, 156, 157, 158, 159, 160, 161, 162, 163, 164, 165, 166, 167, 168, 169, 170, 171, 172, 173, 174, 175, 176, 177, 178, 179, 180, 181, 182, 183, 184, 185, 186, 187, 188, 189, 190, 191, 192, 193, 194, 195, 196, 197, 198, 199, 200, 201, 202, 203, 204, 205, 206, 207, 208, 209, 210, 211, 212, 213, 214, 215, 216, 217, 218, 219, 220, 221, 222, 223, 224, 225, 226, 227, 228, 229, 230, 231, 232, 233, 234, 235, 236, 237, 238, 239, 240, 241, 242, 243, 244, 245, 246, 247, 248, 249, 250, 251, 252, 253, 254, 255, 256, 257, 258, 259, 260, 261, 262, 263, 264, 265, 266, 267, 268, 269, 270, 271, 272, 273, 274, 275, 276, 277, 278, 279, 280, 281, 282, 283, 284, 285, 286, 287, 288, 289, 290, 291, 292, 293, 294, 295, 296, 297, 298, 299, 300, 301, 302, 303, 304, 305, 306, 307, 308, 309, 310, 311, 312, 313, 314, 315, 316, 317, 318, 319, 320, 321, 322, 323, 324, 325, 326, 327, 328, 329, 330, 331, 332, 333, 334, 335, 336, 337, 338, 339, 340, 341, 342, 343, 344, 345, 346, 347, 348, 349, 350, 351, 352, 353, 354, 355, 356, 357, 358, 359, 360, 361, 362, 363, 364, 365, 366, 367, 368, 369, 370, 371, 372, 373, 374, 375, 376, 377, 378, 379, 380, 381, 382, 383, 384, 385, 386, 387, 388, 389, 390, 391, 392, 393, 394, 395, 396, 397, 398, 399, 400, 401, 402, 403, 404, 405, 406, 407, 408, 409, 410, 411, 412, 413, 414, 415, 416, 417, 418, 419, 420, 421, 422, 423, 424, 425, 426, 427, 428, 429, 430, 431, 432, 433, 434, 435, 436, 437, 438, 439, 440, 441, 442, 443, 444, 445, 446, 447, 448, 449, 450, 451, 452, 453, 454, 455, 456, 457, 458, 459, 460, 461, 462, 463, 464, 465, 466, 467, 468, 469, 470, 471, 472, 473, 474, 475, 476, 477, 478, 479, 480, 481, 482, 483, 484, 485, 486, 487, 488, 489, 490, 491, 492, 493, 494, 495, 496, 497, 498, 499, 500, 501, 502, 503, 504, 505, 506, 507, 508, 509, 510, 511, 512, 513, 514, 515, 516, 517, 518, 519, 520, 521, 522, 523, 524, 525, 526, 527, 528, 529, 530, 531, 532, 533, 534, 535, 536, 537, 538, 539, 540, 541, 542, 543, 544, 545, 546, 547, 548, 549, 550, 551, 552, 553, 554, 555, 556, 557, 558, 559, 560, 561, 562, 563, 564, 565, 566, 567, 568, 569, 570, 571, 572, 573, 574, 575, 576, 577, 578, 579, 580, 581, 582, 583, 584, 585, 586, 587, 588, 589, 590, 591, 592, 593, 594, 595, 596, 597, 598, 599, 600, 601, 602, 603, 604, 605, 606, 607, 608, 609, 610, 611, 612, 613, 614, 615, 616, 617, 618, 619, 620, 621, 622, 623, 624, 625, 626, 627, 628, 629, 630, 631, 632, 633, 634, 635, 636, 637, 638, 639, 640, 641, 642, 643, 644, 645, 646, 647, 648, 649, 650, 651, 652, 653, 654, 655, 656, 657, 658, 659, 660, 661, 662, 663, 664, 665, 666, 667, 668, 669, 670, 671, 672, 673, 674, 675, 676, 677, 678, 679, 680, 681, 682, 683, 684, 685, 686, 687, 688, 689, 690, 691, 692, 693, 694, 695, 696, 697, 698, 699, 700, 701, 702, 703, 704, 705, 706, 707, 708, 709, 710, 711, 712, 713, 714, 715, 716, 717, 718, 719, 720, 721, 722, 723, 724, 725, 726, 727, 728, 729, 730, 731, 732, 733, 734, 735, 736, 737, 738, 739, 740, 741, 742, 743, 744, 745, 746, 747, 748, 749, 750, 751, 752, 753, 754, 755, 756, 757, 758, 759, 760, 761, 762, 763, 764, 765, 766, 767, 768, 769, 770, 771, 772, 773, 774, 775, 776, 777, 778, 779, 780, 781, 782, 783, 784, 785, 786, 787, 788, 789, 790, 791, 792, 793, 794, 795, 796, 797, 798, 799, 800, 801, 802, 803, 804, 805, 806, 807, 808, 809, 810, 811, 812, 813, 814, 815, 816, 817, 818, 819, 820, 821, 822, 823, 824, 825, 826, 827, 828, 829, 830, 831, 832, 833, 834, 835, 836, 837, 838, 839, 840, 841, 842, 843, 844, 845, 846, 847, 848, 849, 850, 851, 852, 853, 854, 855, 856, 857, 858, 859, 860, 861, 862, 863, 864, 865, 866, 867, 868, 869, 870, 871, 872, 873, 874, 875, 876, 877, 878, 879, 880, 881, 882, 883, 884, 885, 886, 887, 888, 889, 890, 891, 892, 893, 894, 895, 896, 897, 898, 899, 900, 901, 902, 903, 904, 905, 906, 907, 908, 909, 910, 911, 912, 913, 914, 915, 916, 917, 918, 919, 920, 921, 922, 923, 924, 925, 926, 927, 928, 929, 930, 931, 932, 933, 934, 935, 936, 937, 938, 939, 940, 941, 942, 943, 944, 945, 946, 947, 948, 949, 950, 951, 952, 953, 954, 955, 956, 957, 958, 959, 960, 961, 962, 963, 964, 965, 966, 967, 968, 969, 970, 971, 972, 973, 974, 975, 976, 977, 978, 979, 980, 981, 982, 983, 984, 985, 986, 987, 988, 989, 990, 991, 992, 993, 994, 995, 996, 997, 998, 999, 1000, 1001, 1002, 1003, 1004, 1005, 1006, 1007, 1008, 1009, 1010, 1011, 1012, 1013, 1014, 1015, 1016, 1017, 1018, 1019, 1020, 1021, 1022, 1023, 1024, 1025, 1026, 1027, 1028, 1029, 1030, 1031, 1032, 1033, 1034, 1035, 1036, 1037, 1038, 1039, 1040, 1041, 1042, 1043, 1044, 1045, 1046, 1047, 1048, 1049, 1050, 1051, 1052, 1053, 1054, 1055, 1056, 1057, 1058, 1059, 1060, 1061, 1062, 1063, 1064, 1065, 1066, 1067, 1068, 1069, 1070],
      "AcquisitionTime": ["140050.152500", "140050.940000", "140051.730000", "140052.517500", "140053.305000", "140054.092500", "140054.882500", "140055.670000", "140056.457500", "140057.245000", "140058.035000", "140058.822500", "140059.610000", "140100.400000", "140101.187500", "140101.975000", "140102.762500", "140103.552500", "140104.340000", "140105.127500", "140105.915000", "140106.705000", "140107.492500", "140108.280000", "140109.067500", "140109.857500", "140110.645000", "140111.432500", "140112.220000", "140113.010000", "140113.797500", "140114.585000", "140115.372500", "140116.162500", "140116.950000", "140117.737500", "140118.527500", "140119.315000", "140120.102500", "140120.890000", "140121.680000", "140122.467500", "140123.255000", "140124.042500", "140124.832500", "140125.620000", "140126.407500", "140127.195000", "140127.985000", "140128.772500", "140129.560000", "140130.347500", "140131.137500", "140131.925000", "140132.712500", "140133.500000", "140134.290000", "140135.077500", "140135.865000", "140136.655000", "140137.442500", "140138.230000", "140139.017500", "140139.807500", "140140.595000", "140141.382500", "140142.170000", "140142.960000", "140143.747500", "140144.535000", "140145.322500", "140146.112500", "140146.900000", "140147.687500", "140148.475000", "140149.265000", "140150.052500", "140150.840000", "140151.627500", "140152.417500", "140153.205000", "140153.992500", "140154.782500", "140155.570000", "140156.357500", "140157.145000", "140157.935000", "140158.722500", "140159.510000", "140200.297500", "140201.087500", "140201.875000", "140202.662500", "140203.450000", "140204.240000", "140205.027500", "140205.815000", "140206.602500", "140207.392500", "140208.180000", "140208.967500", "140209.755000", "140210.545000", "140211.332500", "140212.120000", "140212.910000", "140213.697500", "140214.485000", "140215.272500", "140216.062500", "140216.850000", "140217.637500", "140218.425000", "140219.215000", "140220.002500", "140220.790000", "140221.577500", "140222.367500", "140223.155000", "140223.942500", "140224.730000", "140225.520000", "140226.307500", "140227.095000", "140227.882500", "140228.672500", "140229.460000", "140230.247500", "140231.037500", "140231.825000", "140232.612500", "140233.400000", "140234.190000", "140234.977500", "140235.765000", "140236.552500", "140237.342500", "140238.130000", "140238.917500", "140239.705000", "140240.495000", "140241.282500", "140242.070000", "140242.857500", "140243.647500", "140244.435000", "140245.222500", "140246.012500", "140246.800000", "140247.587500", "140248.375000", "140249.165000", "140249.952500", "140250.740000", "140251.527500", "140252.317500", "140253.105000", "140253.892500", "140254.680000", "140255.470000", "140256.257500", "140257.045000", "140257.832500", "140258.622500", "140259.410000", "140300.197500", "140300.985000", "140301.775000", "140302.562500", "140303.350000", "140304.140000", "140304.927500", "140305.715000", "140306.502500", "140307.292500", "140308.080000", "140308.867500", "140309.655000", "140310.445000", "140311.232500", "140312.020000", "140312.807500", "140313.597500", "140314.385000", "140315.172500", "140315.960000", "140316.750000", "140317.537500", "140318.325000", "140319.112500", "140319.902500", "140320.690000", "140321.477500", "140322.267500", "140323.055000", "140323.842500", "140324.630000", "140325.420000", "140326.207500", "140326.995000", "140327.782500", "140328.572500", "140329.360000", "140330.147500", "140330.935000", "140331.725000", "140332.512500", "140333.300000", "140334.087500", "140334.877500", "140335.665000", "140336.452500", "140337.240000", "140338.030000", "140338.817500", "140339.605000", "140340.395000", "140341.182500", "140341.970000", "140342.757500", "140343.547500", "140344.335000", "140345.122500", "140345.910000", "140346.700000", "140347.487500", "140348.275000", "140349.062500", "140349.852500", "140350.640000", "140351.427500", "140352.215000", "140353.005000", "140353.792500", "140354.580000", "140355.367500", "140356.157500", "140356.945000", "140357.732500", "140358.522500", "140359.310000", "140400.097500", "140400.885000", "140401.675000", "140402.462500", "140403.250000", "140404.037500", "140404.827500", "140405.615000", "140406.402500", "140407.190000", "140407.980000", "140408.767500", "140409.555000", "140410.342500", "140411.132500", "140411.920000", "140412.707500", "140413.495000", "140414.285000", "140415.072500", "140415.860000", "140416.650000", "140417.437500", "140418.225000", "140419.012500", "140419.802500", "140420.590000", "140421.377500", "140422.165000", "140422.955000", "140423.742500", "140424.530000", "140425.317500", "140426.107500", "140426.895000", "140427.682500", "140428.470000", "140429.260000", "140430.047500", "140430.835000", "140431.622500", "140432.412500", "140433.200000", "140433.987500", "140434.777500", "140435.565000", "140436.352500", "140437.140000", "140437.930000", "140438.717500", "140439.505000", "140440.292500", "140441.082500", "140441.870000", "140442.657500", "140443.445000", "140444.235000", "140445.022500", "140445.810000", "140446.597500", "140447.387500", "140448.175000", "140448.962500", "140449.750000", "140450.540000", "140451.327500", "140452.115000", "140452.905000", "140453.692500", "140454.480000", "140455.267500", "140456.057500", "140456.845000", "140457.632500", "140458.420000", "140459.210000", "140459.997500", "140500.785000", "140501.572500", "140502.362500", "140503.150000", "140503.937500", "140504.725000", "140505.515000", "140506.302500", "140507.090000", "140507.877500", "140508.667500", "140509.455000", "140510.242500", "140511.032500", "140511.820000", "140512.607500", "140513.395000", "140514.185000", "140514.972500", "140515.760000", "140516.547500", "140517.337500", "140518.125000", "140518.912500", "140519.700000", "140520.490000", "140521.277500", "140522.065000", "140522.852500", "140523.642500", "140524.430000", "140525.217500", "140526.005000", "140526.795000", "140527.582500", "140528.370000", "140529.160000", "140529.947500", "140530.735000", "140531.522500", "140532.312500", "140533.100000", "140533.887500", "140534.675000", "140535.465000", "140536.252500", "140537.040000", "140537.827500", "140538.617500", "140539.405000", "140540.192500", "140540.980000", "140541.770000", "140542.557500", "140543.345000", "140544.132500", "140544.922500", "140545.710000", "140546.497500", "140547.287500", "140548.075000", "140548.862500", "140549.650000", "140550.440000", "140551.227500", "140552.015000", "140552.802500", "140553.592500", "140554.380000", "140555.167500", "140555.955000", "140556.745000", "140557.532500", "140558.320000", "140559.107500", "140559.897500", "140600.685000", "140601.472500", "140602.262500", "140603.050000", "140603.837500", "140604.625000", "140605.415000", "140606.202500", "140606.990000", "140607.777500", "140608.567500", "140609.355000", "140610.142500", "140610.930000", "140611.720000", "140612.507500", "140613.295000", "140614.082500", "140614.872500", "140615.660000", "140616.447500", "140617.235000", "140618.025000", "140618.812500", "140619.600000", "140620.390000", "140621.177500", "140621.965000", "140622.752500", "140623.542500", "140624.330000", "140625.117500", "140625.905000", "140626.695000", "140627.482500", "140628.270000", "140629.057500", "140629.847500", "140630.635000", "140631.422500", "140632.210000", "140633.000000", "140633.787500", "140634.575000", "140635.362500", "140636.152500", "140636.940000", "140637.727500", "140638.517500", "140639.305000", "140640.092500", "140640.880000", "140641.670000", "140642.457500", "140643.245000", "140644.032500", "140644.822500", "140645.610000", "140646.397500", "140647.185000", "140647.975000", "140648.762500", "140649.550000", "140650.337500", "140651.127500", "140651.915000", "140652.702500", "140653.490000", "140654.280000", "140655.067500", "140655.855000", "140656.645000", "140657.432500", "140658.220000", "140659.007500", "140659.797500", "140700.585000", "140701.372500", "140702.160000", "140702.950000", "140703.737500", "140704.525000", "140705.312500", "140706.102500", "140706.890000", "140707.677500", "140708.465000", "140709.255000", "140710.042500", "140710.830000", "140711.617500", "140712.407500", "140713.195000", "140713.982500", "140714.772500", "140715.560000", "140716.347500", "140717.135000", "140717.925000", "140718.712500", "140719.500000", "140720.287500", "140721.077500", "140721.865000", "140722.652500", "140723.440000", "140724.230000", "140725.017500", "140725.805000", "140726.592500", "140727.382500", "140728.170000", "140728.957500", "140729.745000", "140730.535000", "140731.322500", "140732.110000", "140732.900000", "140733.687500", "140734.475000", "140735.262500", "140736.052500", "140736.840000", "140737.627500", "140738.415000", "140739.205000", "140739.992500", "140740.780000", "140741.567500", "140742.357500", "140743.145000", "140743.932500", "140744.720000", "140745.510000", "140746.297500", "140747.085000", "140747.872500", "140748.662500", "140749.450000", "140750.237500", "140751.027500", "140751.815000", "140752.602500", "140753.390000", "140754.180000", "140754.967500", "140755.755000", "140756.542500", "140757.332500", "140758.120000", "140758.907500", "140759.695000", "140800.485000", "140801.272500", "140802.060000", "140802.847500", "140803.637500", "140804.425000", "140805.212500", "140806.000000", "140806.790000", "140807.577500", "140808.365000", "140809.155000", "140809.942500", "140810.730000", "140811.517500", "140812.307500", "140813.095000", "140813.882500", "140814.670000", "140815.460000", "140816.247500", "140817.035000", "140817.822500", "140818.612500", "140819.400000", "140820.187500", "140820.975000", "140821.765000", "140822.552500", "140823.340000", "140824.127500", "140824.917500", "140825.705000", "140826.492500", "140827.282500", "140828.070000", "140828.857500", "140829.645000", "140830.435000", "140831.222500", "140832.010000", "140832.797500", "140833.587500", "140834.375000", "140835.162500", "140835.950000", "140836.740000", "140837.527500", "140838.315000", "140839.102500", "140839.892500", "140840.680000", "140841.467500", "140842.255000", "140843.045000", "140843.832500", "140844.620000", "140845.410000", "140846.197500", "140846.985000", "140847.772500", "140848.562500", "140849.350000", "140850.137500", "140850.925000", "140851.715000", "140852.502500", "140853.290000", "140854.077500", "140854.867500", "140855.655000", "140856.442500", "140857.230000", "140858.020000", "140858.807500", "140859.595000", "140900.382500", "140901.172500", "140901.960000", "140902.747500", "140903.537500", "140904.325000", "140905.112500", "140905.900000", "140906.690000", "140907.477500", "140908.265000", "140909.052500", "140909.842500", "140910.630000", "140911.417500", "140912.205000", "140912.995000", "140913.782500", "140914.570000", "140915.357500", "140916.147500", "140916.935000", "140917.722500", "140918.512500", "140919.300000", "140920.087500", "140920.875000", "140921.665000", "140922.452500", "140923.240000", "140924.027500", "140924.817500", "140925.605000", "140926.392500", "140927.180000", "140927.970000", "140928.757500", "140929.545000", "140930.332500", "140931.122500", "140931.910000", "140932.697500", "140933.485000", "140934.275000", "140935.062500", "140935.850000", "140936.640000", "140937.427500", "140938.215000", "140939.002500", "140939.792500", "140940.580000", "140941.367500", "140942.155000", "140942.945000", "140943.732500", "140944.520000", "140945.307500", "140946.097500", "140946.885000", "140947.672500", "140948.460000", "140949.250000", "140950.037500", "140950.825000", "140951.612500", "140952.402500", "140953.190000", "140953.977500", "140954.767500", "140955.555000", "140956.342500", "140957.130000", "140957.920000", "140958.707500", "140959.495000", "141000.282500", "141001.072500", "141001.860000", "141002.647500", "141003.435000", "141004.225000", "141005.012500", "141005.800000", "141006.587500", "141007.377500", "141008.165000", "141008.952500", "141009.740000", "141010.530000", "141011.317500", "141012.105000", "141012.895000", "141013.682500", "141014.470000", "141015.257500", "141016.047500", "141016.835000", "141017.622500", "141018.410000", "141019.200000", "141019.987500", "141020.775000", "141021.562500", "141022.352500", "141023.140000", "141023.927500", "141024.715000", "141025.505000", "141026.292500", "141027.080000", "141027.867500", "141028.657500", "141029.445000", "141030.232500", "141031.022500", "141031.810000", "141032.597500", "141033.385000", "141034.175000", "141034.962500", "141035.750000", "141036.537500", "141037.327500", "141038.115000", "141038.902500", "141039.690000", "141040.480000", "141041.267500", "141042.055000", "141042.842500", "141043.632500", "141044.420000", "141045.207500", "141045.995000", "141046.785000", "141047.572500", "141048.360000", "141049.150000", "141049.937500", "141050.725000", "141051.512500", "141052.302500", "141053.090000", "141053.877500", "141054.665000", "141055.455000", "141056.242500", "141057.030000", "141057.817500", "141058.607500", "141059.395000", "141100.182500", "141100.970000", "141101.760000", "141102.547500", "141103.335000", "141104.122500", "141104.912500", "141105.700000", "141106.487500", "141107.277500", "141108.065000", "141108.852500", "141109.640000", "141110.430000", "141111.217500", "141112.005000", "141112.792500", "141113.582500", "141114.370000", "141115.157500", "141115.945000", "141116.735000", "141117.522500", "141118.310000", "141119.097500", "141119.887500", "141120.675000", "141121.462500", "141122.250000", "141123.040000", "141123.827500", "141124.615000", "141125.405000", "141126.192500", "141126.980000", "141127.767500", "141128.557500", "141129.345000", "141130.132500", "141130.920000", "141131.710000", "141132.497500", "141133.285000", "141134.072500", "141134.862500", "141135.650000", "141136.437500", "141137.225000", "141138.015000", "141138.802500", "141139.590000", "141140.377500", "141141.167500", "141141.955000", "141142.742500", "141143.532500", "141144.320000", "141145.107500", "141145.895000", "141146.685000", "141147.472500", "141148.260000", "141149.047500", "141149.837500", "141150.625000", "141151.412500", "141152.200000", "141152.990000", "141153.777500", "141154.565000", "141155.352500", "141156.142500", "141156.930000", "141157.717500", "141158.505000", "141159.295000", "141200.082500", "141200.870000", "141201.660000", "141202.447500", "141203.235000", "141204.022500", "141204.812500", "141205.600000", "141206.387500", "141207.175000", "141207.965000", "141208.752500", "141209.540000", "141210.327500", "141211.117500", "141211.905000", "141212.692500", "141213.480000", "141214.270000", "141215.057500", "141215.845000", "141216.632500", "141217.422500", "141218.210000", "141218.997500", "141219.787500", "141220.575000", "141221.362500", "141222.150000", "141222.940000", "141223.727500", "141224.515000", "141225.302500", "141226.092500", "141226.880000", "141227.667500", "141228.455000", "141229.245000", "141230.032500", "141230.820000", "141231.607500", "141232.397500", "141233.185000", "141233.972500", "141234.762500", "141235.550000", "141236.337500", "141237.125000", "141237.915000", "141238.702500", "141239.490000", "141240.277500", "141241.067500", "141241.855000", "141242.642500", "141243.430000", "141244.220000", "141245.007500", "141245.795000", "141246.582500", "141247.372500", "141248.160000", "141248.947500", "141249.735000", "141250.525000", "141251.312500", "141252.100000", "141252.890000", "141253.677500", "141254.465000", "141255.252500", "141256.042500", "141256.830000", "141257.617500", "141258.405000", "141259.195000", "141259.982500", "141300.770000", "141301.557500", "141302.347500", "141303.135000", "141303.922500", "141304.710000", "141305.500000", "141306.287500", "141307.075000", "141307.862500", "141308.652500", "141309.440000", "141310.227500", "141311.017500", "141311.805000", "141312.592500", "141313.380000", "141314.170000", "141314.957500", "141315.745000", "141316.532500", "141317.322500", "141318.110000", "141318.897500", "141319.685000", "141320.475000", "141321.262500", "141322.050000", "141322.837500", "141323.627500", "141324.415000", "141325.202500", "141325.990000", "141326.780000", "141327.567500", "141328.355000", "141329.145000", "141329.932500", "141330.720000", "141331.507500", "141332.297500", "141333.085000", "141333.872500", "141334.660000", "141335.450000", "141336.237500", "141337.025000", "141337.812500", "141338.602500", "141339.390000", "141340.177500", "141340.965000", "141341.755000", "141342.542500", "141343.330000", "141344.117500", "141344.907500", "141345.695000", "141346.482500", "141347.272500", "141348.060000", "141348.847500", "141349.635000", "141350.425000", "141351.212500", "141352.000000", "141352.787500", "141353.577500", "141354.365000", "141355.152500", "141355.940000", "141356.730000", "141357.517500", "141358.305000", "141359.092500", "141359.882500", "141400.670000", "141401.457500", "141402.245000", "141403.035000", "141403.822500", "141404.610000", "141405.400000", "141406.187500", "141406.975000", "141407.762500", "141408.552500", "141409.340000", "141410.127500", "141410.915000", "141411.705000", "141412.492500", "141413.280000", "141414.067500", "141414.857500", "141415.645000", "141416.432500", "141417.220000", "141418.010000", "141418.797500", "141419.585000", "141420.372500", "141421.162500", "141421.950000", "141422.737500", "141423.527500", "141424.315000", "141425.102500", "141425.890000", "141426.680000", "141427.467500", "141428.255000", "141429.042500", "141429.832500", "141430.620000", "141431.407500", "141432.195000", "141432.985000", "141433.772500", "141434.560000", "141435.347500", "141436.137500", "141436.925000", "141437.712500", "141438.500000", "141439.290000", "141440.077500", "141440.865000", "141441.655000", "141442.442500", "141443.230000", "141444.017500", "141444.807500", "141445.595000", "141446.382500", "141447.170000", "141447.960000", "141448.747500", "141449.535000", "141450.322500", "141451.112500", "141451.900000", "141452.687500"],
