{
  "AcquisitionMatrixPE": 104,
  "AcquisitionNumber": 1,
  "AcquisitionTime": "15:03:47.722500",
  "BandwidthPerPixelPhaseEncode": 13.935,
  "BaseResolution": 104,
  "CoilString": "C:HEA;HEP",
  "ConversionSoftware": "dcm2niix",
  "ConversionSoftwareVersion": "v1.0.20210317",
  "DerivedVendorReportedEchoSpacing": 0.000690017,
  "DeviceSerialNumber": "35450",
  "DwellTime": 2.5e-06,
  "EchoTime": 0.0348,
  "EffectiveEchoSpacing": 0.000690017,
  "FlipAngle": 55,
  "ImageComments": "Unaliased MB8/PE3 (remote)",
  "ImageOrientationPatientDICOM": [1, 0, 0, 0, 0.929133, -0.369747],
  "ImageType": [
    "ORIGINAL",
    "PRIMARY",
    "M",
    "MB",
    "ND",
    "MOSAIC"
],
  "ImagingFrequency": 123.234,
  "InPlanePhaseEncodingDirectionDICOM": "COL",
  "InstitutionAddress": "Univeristy Ave. 197,Newark,North East,US,07102-1814",
  "InstitutionName": "RUBIC",
  "InstitutionalDepartmentName": "Department",
  "MRAcquisitionType": "2D",
  "MagneticFieldStrength": 3,
  "Manufacturer": "Siemens",
  "ManufacturersModelName": "TrioTim",
  "Modality": "MR",
  "MultibandAccelerationFactor": 8,
  "PartialFourier": 0.875,
  "PatientPosition": "HFS",
  "PercentPhaseFOV": 100,
  "PercentSampling": 100,
  "PhaseEncodingDirection": "j-",
  "PhaseEncodingSteps": 91,
  "PhaseResolution": 1,
  "PixelBandwidth": 1923,
  "ProcedureStepDescription": "Cole^Michael",
  "ProtocolName": "cmrr_mbep2d_bold_2mm_MB8_Task_8x",
  "PulseSequenceDetails": "%CustomerSeq%\\cmrr_mbep2d_bold",
  "ReceiveCoilName": "32Ch_Head",
  "ReconMatrixPE": 104,
  "RepetitionTime": 0.785,
  "SAR": 0.126663,
  "ScanOptions": "PFP\\FS",
  "ScanningSequence": "EP",
  "SequenceName": "epfid2d1_104",
  "SequenceVariant": "SK\\SS",
  "SeriesDescription": "cmrr_mbep2d_bold_2mm_MB8_Task_8x",
  "SeriesNumber": 23,
  "ShimSetting": [2137, -289, -7374, 655, -182, -622, -99, -100],
  "SliceThickness": 2,
  "SliceTiming": [0, 0.4375, 0.0875, 0.525, 0.175, 0.6125, 0.2625, 0.7, 0.35, 0, 0.4375, 0.0875, 0.525, 0.175, 0.6125, 0.2625, 0.7, 0.35, 0, 0.4375, 0.0875, 0.525, 0.175, 0.6125, 0.2625, 0.7, 0.35, 0, 0.4375, 0.0875, 0.525, 0.175, 0.6125, 0.2625, 0.7, 0.35, 0, 0.4375, 0.0875, 0.525, 0.175, 0.6125, 0.2625, 0.7, 0.35, 0, 0.4375, 0.0875, 0.525, 0.175, 0.6125, 0.2625, 0.7, 0.35, 0, 0.4375, 0.0875, 0.525, 0.175, 0.6125, 0.2625, 0.7, 0.35, 0, 0.4375, 0.0875, 0.525, 0.175, 0.6125, 0.2625, 0.7, 0.35],
  "SoftwareVersions": "syngo MR B19",
  "SpacingBetweenSlices": 2,
  "StationName": "MRC35450",
  "TaskName": "cpro",
  "TotalReadoutTime": 0.0710717,
  "TxRefAmp": 444.714,
  "dcmmeta_affine": [
    [-2.0, 0.0, 0.0, 102.6440658569336],
    [0.0, 1.8582651615142822, -0.7394934892654419, -73.35933685302734],
    [0.0, 0.7394934892654419, 1.8582651615142822, -141.18328857421875],
    [0.0, 0.0, 0.0, 1.0]
],
  "dcmmeta_reorient_transform": [
    [0.0, -1.0, 0.0, 103.0],
    [1.0, 0.0, 0.0, 0.0],
    [0.0, 0.0, 1.0, 0.0],
    [0.0, 0.0, 0.0, 1.0]
],
  "dcmmeta_shape": [104, 104, 72, 581],
  "dcmmeta_slice_dim": 2,
  "dcmmeta_version": 0.6,
  "global": {
    "const": {
      "AcquisitionMatrix": [104, 0, 0, 104],
      "AngioFlag": "N",
      "BitsAllocated": 16,
      "BitsStored": 12,
      "Columns": 936,
      "EchoNumbers": 1,
      "EchoTime": 34.8,
      "EchoTrainLength": 1,
      "FlipAngle": 55.0,
      "HighBit": 11,
      "ImageOrientationPatient": [1.0, 0.0, 0.0, 0.0, 0.92913258020978, -0.3697467354727],
      "ImagePositionPatient": [-934.64406776428, -891.08027883795, 242.61382819152],
      "ImageType": [
        "ORIGINAL",
        "PRIMARY",
        "M",
        "MB",
        "ND",
        "MOSAIC"
],
      "ImagedNucleus": "1H",
      "ImagingFrequency": 123.234497,
      "InPlanePhaseEncodingDirection": "COL",
      "MRAcquisitionType": "2D",
      "MagneticFieldStrength": 3.0,
      "Manufacturer": "SIEMENS",
      "ManufacturerModelName": "TrioTim",
      "Modality": "MR",
      "NumberOfAverages": 1.0,
      "NumberOfPhaseEncodingSteps": 91,
      "PercentPhaseFieldOfView": 100.0,
      "PercentSampling": 100.0,
      "PerformedProcedureStepStartTime": "132012.640000",
      "PhotometricInterpretation": "MONOCHROME2",
      "PixelBandwidth": 1923.0,
      "PixelRepresentation": 0,
      "PixelSpacing": [2.0, 2.0],
      "ProtocolName": "cmrr_mbep2d_bold_2mm_MB8_Task_8x",
      "RepetitionTime": 785.0,
      "Rows": 936,
      "SAR": 0.12666260542807,
      "SamplesPerPixel": 1,
      "ScanOptions": [
        "PFP",
        "FS"
],
      "ScanningSequence": "EP",
      "SequenceName": "epfid2d1_104",
      "SequenceVariant": [
        "SK",
        "SS"
],
      "SeriesDescription": "cmrr_mbep2d_bold_2mm_MB8_Task_8x",
      "SeriesNumber": 23,
      "SeriesTime": "150418.531000",
      "SliceLocation": -104.05361196229,
      "SliceThickness": 2.0,
      "SmallestImagePixelValue": 0,
      "SoftwareVersions": "syngo MR B19",
      "SpacingBetweenSlices": 1.9999999715441,
      "SpecificCharacterSet": "ISO_IR 100",
      "StudyID": "1",
      "StudyTime": "132012.578000",
      "TransmitCoilName": "Body",
      "VariableFlipAngleFlag": "N",
      "WindowCenterWidthExplanation": "Algo1",
      "dBdt": 0.0},
    "slices": {}
  },
  "time": {
    "samples": {
      "AcquisitionNumber": [1, 2, 3, 4, 5, 6, 7, 8, 9, 10, 11, 12, 13, 14, 15, 16, 17, 18, 19, 20, 21, 22, 23, 24, 25, 26, 27, 28, 29, 30, 31, 32, 33, 34, 35, 36, 37, 38, 39, 40, 41, 42, 43, 44, 45, 46, 47, 48, 49, 50, 51, 52, 53, 54, 55, 56, 57, 58, 59, 60, 61, 62, 63, 64, 65, 66, 67, 68, 69, 70, 71, 72, 73, 74, 75, 76, 77, 78, 79, 80, 81, 82, 83, 84, 85, 86, 87, 88, 89, 90, 91, 92, 93, 94, 95, 96, 97, 98, 99, 100, 101, 102, 103, 104, 105, 106, 107, 108, 109, 110, 111, 112, 113, 114, 115, 116, 117, 118, 119, 120, 121, 122, 123, 124, 125, 126, 127, 128, 129, 130, 131, 132, 133, 134, 135, 136, 137, 138, 139, 140, 141, 142, 143, 144, 145, 146, 147, 148, 149, 150, 151, 152, 153, 154, 155, 156, 157, 158, 159, 160, 161, 162, 163, 164, 165, 166, 167, 168, 169, 170, 171, 172, 173, 174, 175, 176, 177, 178, 179, 180, 181, 182, 183, 184, 185, 186, 187, 188, 189, 190, 191, 192, 193, 194, 195, 196, 197, 198, 199, 200, 201, 202, 203, 204, 205, 206, 207, 208, 209, 210, 211, 212, 213, 214, 215, 216, 217, 218, 219, 220, 221, 222, 223, 224, 225, 226, 227, 228, 229, 230, 231, 232, 233, 234, 235, 236, 237, 238, 239, 240, 241, 242, 243, 244, 245, 246, 247, 248, 249, 250, 251, 252, 253, 254, 255, 256, 257, 258, 259, 260, 261, 262, 263, 264, 265, 266, 267, 268, 269, 270, 271, 272, 273, 274, 275, 276, 277, 278, 279, 280, 281, 282, 283, 284, 285, 286, 287, 288, 289, 290, 291, 292, 293, 294, 295, 296, 297, 298, 299, 300, 301, 302, 303, 304, 305, 306, 307, 308, 309, 310, 311, 312, 313, 314, 315, 316, 317, 318, 319, 320, 321, 322, 323, 324, 325, 326, 327, 328, 329, 330, 331, 332, 333, 334, 335, 336, 337, 338, 339, 340, 341, 342, 343, 344, 345, 346, 347, 348, 349, 350, 351, 352, 353, 354, 355, 356, 357, 358, 359, 360, 361, 362, 363, 364, 365, 366, 367, 368, 369, 370, 371, 372, 373, 374, 375, 376, 377, 378, 379, 380, 381, 382, 383, 384, 385, 386, 387, 388, 389, 390, 391, 392, 393, 394, 395, 396, 397, 398, 399, 400, 401, 402, 403, 404, 405, 406, 407, 408, 409, 410, 411, 412, 413, 414, 415, 416, 417, 418, 419, 420, 421, 422, 423, 424, 425, 426, 427, 428, 429, 430, 431, 432, 433, 434, 435, 436, 437, 438, 439, 440, 441, 442, 443, 444, 445, 446, 447, 448, 449, 450, 451, 452, 453, 454, 455, 456, 457, 458, 459, 460, 461, 462, 463, 464, 465, 466, 467, 468, 469, 470, 471, 472, 473, 474, 475, 476, 477, 478, 479, 480, 481, 482, 483, 484, 485, 486, 487, 488, 489, 490, 491, 492, 493, 494, 495, 496, 497, 498, 499, 500, 501, 502, 503, 504, 505, 506, 507, 508, 509, 510, 511, 512, 513, 514, 515, 516, 517, 518, 519, 520, 521, 522, 523, 524, 525, 526, 527, 528, 529, 530, 531, 532, 533, 534, 535, 536, 537, 538, 539, 540, 541, 542, 543, 544, 545, 546, 547, 548, 549, 550, 551, 552, 553, 554, 555, 556, 557, 558, 559, 560, 561, 562, 563, 564, 565, 566, 567, 568, 569, 570, 571, 572, 573, 574, 575, 576, 577, 578, 579, 580, 581],
      "AcquisitionTime": ["150347.722500", "150348.510000", "150349.297500", "150350.085000", "150350.875000", "150351.662500", "150352.450000", "150353.237500", "150354.027500", "150354.815000", "150355.602500", "150356.390000", "150357.180000", "150357.967500", "150358.755000", "150359.542500", "150400.332500", "150401.120000", "150401.907500", "150402.697500", "150403.485000", "150404.272500", "150405.060000", "150405.850000", "150406.637500", "150407.425000", "150408.212500", "150409.002500", "150409.790000", "150410.577500", "150411.365000", "150412.155000", "150412.942500", "150413.730000", "150414.517500", "150415.307500", "150416.095000", "150416.882500", "150417.670000", "150418.460000", "150419.247500", "150420.035000", "150420.825000", "150421.612500", "150422.400000", "150423.187500", "150423.977500", "150424.765000", "150425.552500", "150426.340000", "150427.130000", "150427.917500", "150428.705000", "150429.492500", "150430.282500", "150431.070000", "150431.857500", "150432.645000", "150433.435000", "150434.222500", "150435.010000", "150435.800000", "150436.587500", "150437.375000", "150438.162500", "150438.952500", "150439.740000", "150440.527500", "150441.315000", "150442.105000", "150442.892500", "150443.680000", "150444.467500", "150445.257500", "150446.045000", "150446.832500", "150447.620000", "150448.410000", "150449.197500", "150449.985000", "150450.772500", "150451.562500", "150452.350000", "150453.137500", "150453.927500", "150454.715000", "150455.502500", "150456.290000", "150457.080000", "150457.867500", "150458.655000", "150459.442500", "150500.232500", "150501.020000", "150501.807500", "150502.595000", "150503.385000", "150504.172500", "150504.960000", "150505.747500", "150506.537500", "150507.325000", "150508.112500", "150508.900000", "150509.690000", "150510.477500", "150511.265000", "150512.055000", "150512.842500", "150513.630000", "150514.417500", "150515.207500", "150515.995000", "150516.782500", "150517.570000", "150518.360000", "150519.147500", "150519.935000", "150520.722500", "150521.512500", "150522.300000", "150523.087500", "150523.875000", "150524.665000", "150525.452500", "150526.240000", "150527.027500", "150527.817500", "150528.605000", "150529.392500", "150530.182500", "150530.970000", "150531.757500", "150532.545000", "150533.335000", "150534.122500", "150534.910000", "150535.697500", "150536.487500", "150537.275000", "150538.062500", "150538.850000", "150539.640000", "150540.427500", "150541.215000", "150542.002500", "150542.792500", "150543.580000", "150544.367500", "150545.155000", "150545.945000", "150546.732500", "150547.520000", "150548.310000", "150549.097500", "150549.885000", "150550.672500", "150551.462500", "150552.250000", "150553.037500", "150553.825000", "150554.615000", "150555.402500", "150556.190000", "150556.977500", "150557.767500", "150558.555000", "150559.342500", "150600.130000", "150600.920000", "150601.707500", "150602.495000", "150603.282500", "150604.072500", "150604.860000", "150605.647500", "150606.437500", "150607.225000", "150608.012500", "150608.800000", "150609.590000", "150610.377500", "150611.165000", "150611.952500", "150612.742500", "150613.530000", "150614.317500", "150615.105000", "150615.895000", "150616.682500", "150617.470000", "150618.257500", "150619.047500", "150619.835000", "150620.622500", "150621.410000", "150622.200000", "150622.987500", "150623.775000", "150624.565000", "150625.352500", "150626.140000", "150626.927500", "150627.717500", "150628.505000", "150629.292500", "150630.080000", "150630.870000", "150631.657500", "150632.445000", "150633.232500", "150634.022500", "150634.810000", "150635.597500", "150636.385000", "150637.175000", "150637.962500", "150638.750000", "150639.537500", "150640.327500", "150641.115000", "150641.902500", "150642.692500", "150643.480000", "150644.267500", "150645.055000", "150645.845000", "150646.632500", "150647.420000", "150648.207500", "150648.997500", "150649.785000", "150650.572500", "150651.360000", "150652.150000", "150652.937500", "150653.725000", "150654.512500", "150655.302500", "150656.090000", "150656.877500", "150657.665000", "150658.455000", "150659.242500", "150700.030000", "150700.820000", "150701.607500", "150702.395000", "150703.182500", "150703.972500", "150704.760000", "150705.547500", "150706.335000", "150707.125000", "150707.912500", "150708.700000", "150709.487500", "150710.277500", "150711.065000", "150711.852500", "150712.640000", "150713.430000", "150714.217500", "150715.005000", "150715.792500", "150716.582500", "150717.370000", "150718.157500", "150718.947500", "150719.735000", "150720.522500", "150721.310000", "150722.100000", "150722.887500", "150723.675000", "150724.462500", "150725.252500", "150726.040000", "150726.827500", "150727.615000", "150728.405000", "150729.192500", "150729.980000", "150730.767500", "150731.557500", "150732.345000", "150733.132500", "150733.920000", "150734.710000", "150735.497500", "150736.285000", "150737.075000", "150737.862500", "150738.650000", "150739.437500", "150740.227500", "150741.015000", "150741.802500", "150742.590000", "150743.380000", "150744.167500", "150744.955000", "150745.742500", "150746.532500", "150747.320000", "150748.107500", "150748.895000", "150749.685000", "150750.472500", "150751.260000", "150752.050000", "150752.837500", "150753.625000", "150754.412500", "150755.202500", "150755.990000", "150756.777500", "150757.565000", "150758.355000", "150759.142500", "150759.930000", "150800.717500", "150801.507500", "150802.295000", "150803.082500", "150803.870000", "150804.660000", "150805.447500", "150806.235000", "150807.022500", "150807.812500", "150808.600000", "150809.387500", "150810.177500", "150810.965000", "150811.752500", "150812.540000", "150813.330000", "150814.117500", "150814.905000", "150815.692500", "150816.482500", "150817.270000", "150818.057500", "150818.845000", "150819.635000", "150820.422500", "150821.210000", "150821.997500", "150822.787500", "150823.575000", "150824.362500", "150825.150000", "150825.940000", "150826.727500", "150827.515000", "150828.305000", "150829.092500", "150829.880000", "150830.667500", "150831.457500", "150832.245000", "150833.032500", "150833.820000", "150834.610000", "150835.397500", "150836.185000", "150836.972500", "150837.762500", "150838.550000", "150839.337500", "150840.125000", "150840.915000", "150841.702500", "150842.490000", "150843.277500", "150844.067500", "150844.855000", "150845.642500", "150846.432500", "150847.220000", "150848.007500", "150848.795000", "150849.585000", "150850.372500", "150851.160000", "150851.947500", "150852.737500", "150853.525000", "150854.312500", "150855.100000", "150855.890000", "150856.677500", "150857.465000", "150858.252500", "150859.042500", "150859.830000", "150900.617500", "150901.405000", "150902.195000", "150902.982500", "150903.770000", "150904.560000", "150905.347500", "150906.135000", "150906.922500", "150907.712500", "150908.500000", "150909.287500", "150910.075000", "150910.865000", "150911.652500", "150912.440000", "150913.227500", "150914.017500", "150914.805000", "150915.592500", "150916.380000", "150917.170000", "150917.957500", "150918.745000", "150919.532500", "150920.322500", "150921.110000", "150921.897500", "150922.687500", "150923.475000", "150924.262500", "150925.050000", "150925.840000", "150926.627500", "150927.415000", "150928.202500", "150928.992500", "150929.780000", "150930.567500", "150931.355000", "150932.145000", "150932.932500", "150933.720000", "150934.507500", "150935.297500", "150936.085000", "150936.872500", "150937.660000", "150938.450000", "150939.237500", "150940.025000", "150940.815000", "150941.602500", "150942.390000", "150943.177500", "150943.967500", "150944.755000", "150945.542500", "150946.330000", "150947.120000", "150947.907500", "150948.695000", "150949.482500", "150950.272500", "150951.060000", "150951.847500", "150952.635000", "150953.425000", "150954.212500", "150955.000000", "150955.787500", "150956.577500", "150957.365000", "150958.152500", "150958.942500", "150959.730000", "151000.517500", "151001.305000", "151002.095000", "151002.882500", "151003.670000", "151004.457500", "151005.247500", "151006.035000", "151006.822500", "151007.610000", "151008.400000", "151009.187500", "151009.975000", "151010.762500", "151011.552500", "151012.340000", "151013.127500", "151013.915000", "151014.705000", "151015.492500", "151016.280000", "151017.070000", "151017.857500", "151018.645000", "151019.432500", "151020.222500", "151021.010000", "151021.797500", "151022.585000", "151023.375000", "151024.162500", "151024.950000", "151025.737500", "151026.527500", "151027.315000", "151028.102500", "151028.890000", "151029.680000", "151030.467500", "151031.255000", "151032.042500", "151032.832500", "151033.620000", "151034.407500", "151035.197500", "151035.985000", "151036.772500", "151037.560000", "151038.350000", "151039.137500", "151039.925000", "151040.712500", "151041.502500", "151042.290000", "151043.077500", "151043.865000", "151044.655000", "151045.442500", "151046.230000", "151047.017500", "151047.807500", "151048.595000", "151049.382500", "151050.170000", "151050.960000", "151051.747500", "151052.535000", "151053.325000", "151054.112500", "151054.900000", "151055.687500", "151056.477500", "151057.265000", "151058.052500", "151058.840000", "151059.630000", "151100.417500", "151101.205000", "151101.992500", "151102.782500", "151103.570000", "151104.357500", "151105.145000", "151105.935000", "151106.722500", "151107.510000", "151108.300000", "151109.087500", "151109.875000", "151110.662500", "151111.452500", "151112.240000", "151113.027500", "151113.815000", "151114.605000", "151115.392500", "151116.180000", "151116.967500", "151117.757500", "151118.545000", "151119.332500", "151120.120000", "151120.910000", "151121.697500", "151122.485000", "151123.272500", "151124.062500", "151124.850000"],
      "ContentTime": ["150418.531000", "150418.531000", "150418.531000", "150418.531000", "150418.531000", "150418.546000", "150418.546000", "150418.546000", "150418.546000", "150418.546000", "150418.546000", "150418.546000", "150418.546000", "150418.562000", "150418.562000", "150418.562000", "150418.562000", "150418.562000", "150418.562000", "150418.562000", "150418.578000", "150418.578000", "150418.578000", "150418.578000", "150418.578000", "150418.578000", "150418.578000", "150418.578000", "150418.593000", "150418.593000", "150418.593000", "150418.593000", "150418.593000", "150418.593000", "150418.609000", "150418.609000", "150438.484000", "150438.484000", "150438.484000", "150438.500000", "150438.500000", "150438.500000", "150438.500000", "150438.500000", "150438.500000", "150438.500000", "150438.500000", "150438.515000", "150438.515000", "150438.515000", "150438.515000", "150438.515000", "150438.515000", "150438.531000", "150438.531000", "150438.531000", "150438.531000", "150438.531000", "150438.531000", "150438.531000", "150438.531000", "150458.484000", "150458.484000", "150458.484000", "150458.500000", "150458.500000", "150458.500000", "150458.500000", "150458.500000", "150458.500000", "150458.500000", "150458.500000", "150458.515000", "150458.515000", "150458.515000", "150458.515000", "150458.515000", "150458.515000", "150458.515000", "150458.531000", "150458.531000", "150458.531000", "150458.531000", "150458.531000", "150458.531000", "150458.531000", "150458.531000", "150518.484000", "150518.484000", "150518.500000", "150518.500000", "150518.500000", "150518.500000", "150518.515000", "150518.515000", "150518.515000", "150518.515000", "150518.515000", "150518.531000", "150518.531000", "150518.531000", "150518.531000", "150518.531000", "150518.531000", "150518.531000", "150518.531000", "150518.546000", "150518.546000", "150518.546000", "150518.546000", "150518.546000", "150518.546000", "150538.484000", "150538.484000", "150538.484000", "150538.500000", "150538.500000", "150538.500000", "150538.500000", "150538.500000", "150538.500000", "150538.500000", "150538.500000", "150538.515000", "150538.515000", "150538.515000", "150538.515000", "150538.515000", "150538.531000", "150538.531000", "150538.531000", "150538.531000", "150538.531000", "150538.531000", "150538.531000", "150538.546000", "150538.546000", "150538.546000", "150558.484000", "150558.484000", "150558.484000", "150558.500000", "150558.500000", "150558.500000", "150558.500000", "150558.500000", "150558.500000", "150558.500000", "150558.500000", "150558.515000", "150558.515000", "150558.515000", "150558.515000", "150558.515000", "150558.515000", "150558.531000", "150558.531000", "150558.531000", "150558.531000", "150558.531000", "150558.531000", "150558.531000", "150558.531000", "150618.484000", "150618.484000", "150618.484000", "150618.500000", "150618.500000", "150618.500000", "150618.500000", "150618.500000", "150618.500000", "150618.500000", "150618.500000", "150618.515000", "150618.515000", "150618.515000", "150618.515000", "150618.515000", "150618.515000", "150618.515000", "150618.515000", "150618.531000", "150618.531000", "150618.531000", "150618.531000", "150618.531000", "150618.531000", "150618.531000", "150638.484000", "150638.484000", "150638.484000", "150638.500000", "150638.500000", "150638.500000", "150638.500000", "150638.500000", "150638.500000", "150638.500000", "150638.515000", "150638.515000", "150638.515000", "150638.515000", "150638.515000", "150638.515000", "150638.515000", "150638.515000", "150638.531000", "150638.531000", "150638.531000", "150638.531000", "150638.531000", "150638.531000", "150638.546000", "150658.484000", "150658.484000", "150658.484000", "150658.500000", "150658.500000", "150658.500000", "150658.500000", "150658.500000", "150658.500000", "150658.515000", "150658.515000", "150658.515000", "150658.515000", "150658.515000", "150658.515000", "150658.531000", "150658.531000", "150658.531000", "150658.531000", "150658.531000", "150658.531000", "150658.531000", "150658.531000", "150658.546000", "150658.546000", "150658.546000", "150718.484000", "150718.484000", "150718.484000", "150718.500000", "150718.500000", "150718.500000", "150718.500000", "150718.500000", "150718.500000", "150718.500000", "150718.500000", "150718.515000", "150718.515000", "150718.515000", "150718.515000", "150718.515000", "150718.515000", "150718.515000", "150718.531000", "150718.531000", "150718.531000", "150718.531000", "150718.531000", "150718.531000", "150718.531000", "150738.484000", "150738.484000", "150738.484000", "150738.500000", "150738.500000", "150738.500000", "150738.500000", "150738.500000", "150738.500000", "150738.500000", "150738.500000", "150738.515000", "150738.515000", "150738.515000", "150738.515000", "150738.515000", "150738.515000", "150738.515000", "150738.515000", "150738.531000", "150738.531000", "150738.531000", "150738.531000", "150738.531000", "150738.531000", "150738.531000", "150758.484000", "150758.484000", "150758.484000", "150758.500000", "150758.500000", "150758.500000", "150758.500000", "150758.500000", "150758.500000", "150758.500000", "150758.500000", "150758.515000", "150758.515000", "150758.515000", "150758.515000", "150758.515000", "150758.515000", "150758.515000", "150758.531000", "150758.531000", "150758.531000", "150758.531000", "150758.531000", "150758.531000", "150758.531000", "150818.484000", "150818.484000", "150818.484000", "150818.500000", "150818.500000", "150818.500000", "150818.500000", "150818.500000", "150818.500000", "150818.500000", "150818.515000", "150818.515000", "150818.515000", "150818.515000", "150818.515000", "150818.515000", "150818.515000", "150818.531000", "150818.531000", "150818.531000", "150818.531000", "150818.531000", "150818.531000", "150818.531000", "150818.546000", "150818.546000", "150838.484000", "150838.484000", "150838.484000", "150838.500000", "150838.500000", "150838.500000", "150838.500000", "150838.500000", "150838.500000", "150838.500000", "150838.500000", "150838.515000", "150838.515000", "150838.515000", "150838.515000", "150838.515000", "150838.515000", "150838.531000", "150838.531000", "150838.531000", "150838.531000", "150838.531000", "150838.531000", "150838.546000", "150838.546000", "150858.484000", "150858.484000", "150858.484000", "150858.500000", "150858.500000", "150858.500000", "150858.500000", "150858.500000", "150858.500000", "150858.500000", "150858.500000", "150858.515000", "150858.515000", "150858.515000", "150858.515000", "150858.515000", "150858.515000", "150858.515000", "150858.531000", "150858.531000", "150858.531000", "150858.531000", "150858.546000", "150858.546000", "150858.546000", "150858.546000", "150918.484000", "150918.484000", "150918.484000", "150918.500000", "150918.500000", "150918.500000", "150918.500000", "150918.500000", "150918.500000", "150918.500000", "150918.500000", "150918.515000", "150918.515000", "150918.515000", "150918.515000", "150918.515000", "150918.515000", "150918.515000", "150918.531000", "150918.531000", "150918.531000", "150918.531000", "150918.546000", "150918.546000", "150918.546000", "150938.484000", "150938.484000", "150938.484000", "150938.500000", "150938.500000", "150938.500000", "150938.500000", "150938.500000", "150938.500000", "150938.500000", "150938.500000", "150938.515000", "150938.515000", "150938.515000", "150938.515000", "150938.515000", "150938.515000", "150938.515000", "150938.531000", "150938.531000", "150938.531000", "150938.531000", "150938.531000", "150938.531000", "150938.531000", "150938.531000", "150958.484000", "150958.484000", "150958.500000", "150958.500000", "150958.500000", "150958.500000", "150958.500000", "150958.500000", "150958.500000", "150958.515000", "150958.515000", "150958.515000", "150958.515000", "150958.515000", "150958.515000", "150958.515000", "150958.515000", "150958.531000", "150958.531000", "150958.531000", "150958.531000", "150958.531000", "150958.531000", "150958.531000", "150958.546000", "151018.484000", "151018.484000", "151018.484000", "151018.500000", "151018.500000", "151018.500000", "151018.500000", "151018.500000", "151018.500000", "151018.500000", "151018.500000", "151018.515000", "151018.515000", "151018.515000", "151018.515000", "151018.515000", "151018.515000", "151018.515000", "151018.531000", "151018.531000", "151018.531000", "151018.531000", "151018.531000", "151018.531000", "151018.531000", "151018.531000", "151038.484000", "151038.484000", "151038.484000", "151038.500000", "151038.500000", "151038.500000", "151038.500000", "151038.500000", "151038.500000", "151038.500000", "151038.500000", "151038.515000", "151038.515000", "151038.515000", "151038.515000", "151038.515000", "151038.515000", "151038.515000", "151038.531000", "151038.531000", "151038.531000", "151038.531000", "151038.531000", "151038.531000", "151038.531000", "151058.484000", "151058.484000", "151058.484000", "151058.500000", "151058.500000", "151058.500000", "151058.500000", "151058.500000", "151058.500000", "151058.500000", "151058.500000", "151058.515000", "151058.515000", "151058.515000", "151058.515000", "151058.515000", "151058.531000", "151058.531000", "151058.531000", "151058.531000", "151058.531000", "151058.531000", "151058.531000", "151058.546000", "151058.546000", "151058.546000", "151118.484000", "151118.484000", "151118.484000", "151118.500000", "151118.500000", "151118.500000", "151118.500000", "151118.500000", "151118.500000", "151118.500000", "151118.515000", "151118.515000", "151118.515000", "151118.515000", "151118.515000", "151118.515000", "151118.531000", "151118.531000", "151118.531000", "151118.531000", "151118.531000", "151118.531000", "151118.531000", "151118.531000", "151118.546000", "151126.000000", "151126.000000", "151126.000000", "151126.000000", "151126.000000", "151126.015000", "151126.015000", "151126.015000", "151126.015000", "151126.015000"],
