{
  "AcquisitionMatrixPE": 104,
  "AcquisitionNumber": 1,
  "AcquisitionTime": "14:31:36.725000",
  "BandwidthPerPixelPhaseEncode": 13.935,
  "BaseResolution": 104,
  "CoilString": "C:HEA;HEP",
  "ConversionSoftware": "dcm2niix",
  "ConversionSoftwareVersion": "v1.0.20210317",
  "DerivedVendorReportedEchoSpacing": 0.000690017,
  "DeviceSerialNumber": "35450",
  "DwellTime": 2.5e-06,
  "EchoTime": 0.0348,
  "EffectiveEchoSpacing": 0.000690017,
  "FlipAngle": 55,
  "ImageComments": "Unaliased MB8/PE3 (remote)",
  "ImageOrientationPatientDICOM": [1, 0, 0, 0, 0.929133, -0.369747],
  "ImageType": [
    "ORIGINAL",
    "PRIMARY",
    "M",
    "MB",
    "ND",
    "MOSAIC"
],
  "ImagingFrequency": 123.234,
  "InPlanePhaseEncodingDirectionDICOM": "COL",
  "InstitutionAddress": "Univeristy Ave. 197,Newark,North East,US,07102-1814",
  "InstitutionName": "RUBIC",
  "InstitutionalDepartmentName": "Department",
  "MRAcquisitionType": "2D",
  "MagneticFieldStrength": 3,
  "Manufacturer": "Siemens",
  "ManufacturersModelName": "TrioTim",
  "Modality": "MR",
  "MultibandAccelerationFactor": 8,
  "PartialFourier": 0.875,
  "PatientPosition": "HFS",
  "PercentPhaseFOV": 100,
  "PercentSampling": 100,
  "PhaseEncodingDirection": "j-",
  "PhaseEncodingSteps": 91,
  "PhaseResolution": 1,
  "PixelBandwidth": 1923,
  "ProcedureStepDescription": "Cole^Michael",
  "ProtocolName": "cmrr_mbep2d_bold_2mm_MB8_Task_8x",
  "PulseSequenceDetails": "%CustomerSeq%\\cmrr_mbep2d_bold",
  "ReceiveCoilName": "32Ch_Head",
  "ReconMatrixPE": 104,
  "RepetitionTime": 0.785,
  "SAR": 0.126663,
  "ScanOptions": "PFP\\FS",
  "ScanningSequence": "EP",
  "SequenceName": "epfid2d1_104",
  "SequenceVariant": "SK\\SS",
  "SeriesDescription": "cmrr_mbep2d_bold_2mm_MB8_Task_8x",
  "SeriesNumber": 15,
  "ShimSetting": [2137, -289, -7374, 655, -182, -622, -99, -100],
  "SliceThickness": 2,
  "SliceTiming": [0, 0.4375, 0.0875, 0.525, 0.175, 0.6125, 0.2625, 0.7, 0.35, 0, 0.4375, 0.0875, 0.525, 0.175, 0.6125, 0.2625, 0.7, 0.35, 0, 0.4375, 0.0875, 0.525, 0.175, 0.6125, 0.2625, 0.7, 0.35, 0, 0.4375, 0.0875, 0.525, 0.175, 0.6125, 0.2625, 0.7, 0.35, 0, 0.4375, 0.0875, 0.525, 0.175, 0.6125, 0.2625, 0.7, 0.35, 0, 0.4375, 0.0875, 0.525, 0.175, 0.6125, 0.2625, 0.7, 0.35, 0, 0.4375, 0.0875, 0.525, 0.175, 0.6125, 0.2625, 0.7, 0.35, 0, 0.4375, 0.0875, 0.525, 0.175, 0.6125, 0.2625, 0.7, 0.35],
  "SoftwareVersions": "syngo MR B19",
  "SpacingBetweenSlices": 2,
  "StationName": "MRC35450",
  "TaskName": "cpro",
  "TotalReadoutTime": 0.0710717,
  "TxRefAmp": 444.714,
  "dcmmeta_affine": [
    [-2.0, 0.0, 0.0, 102.6440658569336],
    [0.0, 1.8582651615142822, -0.7394934892654419, -73.35933685302734],
    [0.0, 0.7394934892654419, 1.8582651615142822, -141.18328857421875],
    [0.0, 0.0, 0.0, 1.0]
],
  "dcmmeta_reorient_transform": [
    [0.0, -1.0, 0.0, 103.0],
    [1.0, 0.0, 0.0, 0.0],
    [0.0, 0.0, 1.0, 0.0],
    [0.0, 0.0, 0.0, 1.0]
],
  "dcmmeta_shape": [104, 104, 72, 581],
  "dcmmeta_slice_dim": 2,
  "dcmmeta_version": 0.6,
  "global": {
    "const": {
      "AcquisitionMatrix": [104, 0, 0, 104],
      "AngioFlag": "N",
      "BitsAllocated": 16,
      "BitsStored": 12,
      "Columns": 936,
      "EchoNumbers": 1,
      "EchoTime": 34.8,
      "EchoTrainLength": 1,
      "FlipAngle": 55.0,
      "HighBit": 11,
      "ImageOrientationPatient": [1.0, 0.0, 0.0, 0.0, 0.92913258020978, -0.3697467354727],
      "ImagePositionPatient": [-934.64406776428, -891.08027883795, 242.61382819152],
      "ImageType": [
        "ORIGINAL",
        "PRIMARY",
        "M",
        "MB",
        "ND",
        "MOSAIC"
],
      "ImagedNucleus": "1H",
      "ImagingFrequency": 123.234497,
      "InPlanePhaseEncodingDirection": "COL",
      "MRAcquisitionType": "2D",
      "MagneticFieldStrength": 3.0,
      "Manufacturer": "SIEMENS",
      "ManufacturerModelName": "TrioTim",
      "Modality": "MR",
      "NumberOfAverages": 1.0,
      "NumberOfPhaseEncodingSteps": 91,
      "PercentPhaseFieldOfView": 100.0,
      "PercentSampling": 100.0,
      "PerformedProcedureStepStartTime": "132012.640000",
      "PhotometricInterpretation": "MONOCHROME2",
      "PixelBandwidth": 1923.0,
      "PixelRepresentation": 0,
      "PixelSpacing": [2.0, 2.0],
      "ProtocolName": "cmrr_mbep2d_bold_2mm_MB8_Task_8x",
      "RepetitionTime": 785.0,
      "Rows": 936,
      "SAR": 0.12666260542807,
      "SamplesPerPixel": 1,
      "ScanOptions": [
        "PFP",
        "FS"
],
      "ScanningSequence": "EP",
      "SequenceName": "epfid2d1_104",
      "SequenceVariant": [
        "SK",
        "SS"
],
      "SeriesDescription": "cmrr_mbep2d_bold_2mm_MB8_Task_8x",
      "SeriesNumber": 15,
      "SeriesTime": "143158.484000",
      "SliceLocation": -104.05361196229,
      "SliceThickness": 2.0,
      "SmallestImagePixelValue": 0,
      "SoftwareVersions": "syngo MR B19",
      "SpacingBetweenSlices": 1.9999999715441,
      "SpecificCharacterSet": "ISO_IR 100",
      "StudyID": "1",
      "StudyTime": "132012.578000",
      "TransmitCoilName": "Body",
      "VariableFlipAngleFlag": "N",
      "WindowCenterWidthExplanation": "Algo1",
      "dBdt": 0.0},
    "slices": {}
  },
  "time": {
    "samples": {
      "AcquisitionNumber": [1, 2, 3, 4, 5, 6, 7, 8, 9, 10, 11, 12, 13, 14, 15, 16, 17, 18, 19, 20, 21, 22, 23, 24, 25, 26, 27, 28, 29, 30, 31, 32, 33, 34, 35, 36, 37, 38, 39, 40, 41, 42, 43, 44, 45, 46, 47, 48, 49, 50, 51, 52, 53, 54, 55, 56, 57, 58, 59, 60, 61, 62, 63, 64, 65, 66, 67, 68, 69, 70, 71, 72, 73, 74, 75, 76, 77, 78, 79, 80, 81, 82, 83, 84, 85, 86, 87, 88, 89, 90, 91, 92, 93, 94, 95, 96, 97, 98, 99, 100, 101, 102, 103, 104, 105, 106, 107, 108, 109, 110, 111, 112, 113, 114, 115, 116, 117, 118, 119, 120, 121, 122, 123, 124, 125, 126, 127, 128, 129, 130, 131, 132, 133, 134, 135, 136, 137, 138, 139, 140, 141, 142, 143, 144, 145, 146, 147, 148, 149, 150, 151, 152, 153, 154, 155, 156, 157, 158, 159, 160, 161, 162, 163, 164, 165, 166, 167, 168, 169, 170, 171, 172, 173, 174, 175, 176, 177, 178, 179, 180, 181, 182, 183, 184, 185, 186, 187, 188, 189, 190, 191, 192, 193, 194, 195, 196, 197, 198, 199, 200, 201, 202, 203, 204, 205, 206, 207, 208, 209, 210, 211, 212, 213, 214, 215, 216, 217, 218, 219, 220, 221, 222, 223, 224, 225, 226, 227, 228, 229, 230, 231, 232, 233, 234, 235, 236, 237, 238, 239, 240, 241, 242, 243, 244, 245, 246, 247, 248, 249, 250, 251, 252, 253, 254, 255, 256, 257, 258, 259, 260, 261, 262, 263, 264, 265, 266, 267, 268, 269, 270, 271, 272, 273, 274, 275, 276, 277, 278, 279, 280, 281, 282, 283, 284, 285, 286, 287, 288, 289, 290, 291, 292, 293, 294, 295, 296, 297, 298, 299, 300, 301, 302, 303, 304, 305, 306, 307, 308, 309, 310, 311, 312, 313, 314, 315, 316, 317, 318, 319, 320, 321, 322, 323, 324, 325, 326, 327, 328, 329, 330, 331, 332, 333, 334, 335, 336, 337, 338, 339, 340, 341, 342, 343, 344, 345, 346, 347, 348, 349, 350, 351, 352, 353, 354, 355, 356, 357, 358, 359, 360, 361, 362, 363, 364, 365, 366, 367, 368, 369, 370, 371, 372, 373, 374, 375, 376, 377, 378, 379, 380, 381, 382, 383, 384, 385, 386, 387, 388, 389, 390, 391, 392, 393, 394, 395, 396, 397, 398, 399, 400, 401, 402, 403, 404, 405, 406, 407, 408, 409, 410, 411, 412, 413, 414, 415, 416, 417, 418, 419, 420, 421, 422, 423, 424, 425, 426, 427, 428, 429, 430, 431, 432, 433, 434, 435, 436, 437, 438, 439, 440, 441, 442, 443, 444, 445, 446, 447, 448, 449, 450, 451, 452, 453, 454, 455, 456, 457, 458, 459, 460, 461, 462, 463, 464, 465, 466, 467, 468, 469, 470, 471, 472, 473, 474, 475, 476, 477, 478, 479, 480, 481, 482, 483, 484, 485, 486, 487, 488, 489, 490, 491, 492, 493, 494, 495, 496, 497, 498, 499, 500, 501, 502, 503, 504, 505, 506, 507, 508, 509, 510, 511, 512, 513, 514, 515, 516, 517, 518, 519, 520, 521, 522, 523, 524, 525, 526, 527, 528, 529, 530, 531, 532, 533, 534, 535, 536, 537, 538, 539, 540, 541, 542, 543, 544, 545, 546, 547, 548, 549, 550, 551, 552, 553, 554, 555, 556, 557, 558, 559, 560, 561, 562, 563, 564, 565, 566, 567, 568, 569, 570, 571, 572, 573, 574, 575, 576, 577, 578, 579, 580, 581],
      "AcquisitionTime": ["143136.725000", "143137.512500", "143138.300000", "143139.090000", "143139.877500", "143140.665000", "143141.452500", "143142.242500", "143143.030000", "143143.817500", "143144.605000", "143145.395000", "143146.182500", "143146.970000", "143147.757500", "143148.547500", "143149.335000", "143150.122500", "143150.912500", "143151.700000", "143152.487500", "143153.275000", "143154.065000", "143154.852500", "143155.640000", "143156.427500", "143157.217500", "143158.005000", "143158.792500", "143159.580000", "143200.370000", "143201.157500", "143201.945000", "143202.732500", "143203.522500", "143204.310000", "143205.097500", "143205.887500", "143206.675000", "143207.462500", "143208.250000", "143209.040000", "143209.827500", "143210.615000", "143211.402500", "143212.192500", "143212.980000", "143213.767500", "143214.555000", "143215.345000", "143216.132500", "143216.920000", "143217.707500", "143218.497500", "143219.285000", "143220.072500", "143220.860000", "143221.650000", "143222.437500", "143223.225000", "143224.015000", "143224.802500", "143225.590000", "143226.377500", "143227.167500", "143227.955000", "143228.742500", "143229.530000", "143230.320000", "143231.107500", "143231.895000", "143232.682500", "143233.472500", "143234.260000", "143235.047500", "143235.835000", "143236.625000", "143237.412500", "143238.200000", "143238.987500", "143239.777500", "143240.565000", "143241.352500", "143242.142500", "143242.930000", "143243.717500", "143244.505000", "143245.295000", "143246.082500", "143246.870000", "143247.657500", "143248.447500", "143249.235000", "143250.022500", "143250.810000", "143251.600000", "143252.387500", "143253.175000", "143253.962500", "143254.752500", "143255.540000", "143256.327500", "143257.115000", "143257.905000", "143258.692500", "143259.480000", "143300.270000", "143301.057500", "143301.845000", "143302.632500", "143303.422500", "143304.210000", "143304.997500", "143305.785000", "143306.575000", "143307.362500", "143308.150000", "143308.937500", "143309.727500", "143310.515000", "143311.302500", "143312.090000", "143312.880000", "143313.667500", "143314.455000", "143315.242500", "143316.032500", "143316.820000", "143317.607500", "143318.397500", "143319.185000", "143319.972500", "143320.760000", "143321.550000", "143322.337500", "143323.125000", "143323.912500", "143324.702500", "143325.490000", "143326.277500", "143327.065000", "143327.855000", "143328.642500", "143329.430000", "143330.217500", "143331.007500", "143331.795000", "143332.582500", "143333.370000", "143334.160000", "143334.947500", "143335.735000", "143336.525000", "143337.312500", "143338.100000", "143338.887500", "143339.677500", "143340.465000", "143341.252500", "143342.040000", "143342.830000", "143343.617500", "143344.405000", "143345.192500", "143345.982500", "143346.770000", "143347.557500", "143348.345000", "143349.135000", "143349.922500", "143350.710000", "143351.497500", "143352.287500", "143353.075000", "143353.862500", "143354.652500", "143355.440000", "143356.227500", "143357.015000", "143357.805000", "143358.592500", "143359.380000", "143400.167500", "143400.957500", "143401.745000", "143402.532500", "143403.320000", "143404.110000", "143404.897500", "143405.685000", "143406.472500", "143407.262500", "143408.050000", "143408.837500", "143409.625000", "143410.415000", "143411.202500", "143411.990000", "143412.780000", "143413.567500", "143414.355000", "143415.142500", "143415.932500", "143416.720000", "143417.507500", "143418.295000", "143419.085000", "143419.872500", "143420.660000", "143421.447500", "143422.237500", "143423.025000", "143423.812500", "143424.600000", "143425.390000", "143426.177500", "143426.965000", "143427.752500", "143428.542500", "143429.330000", "143430.117500", "143430.907500", "143431.695000", "143432.482500", "143433.270000", "143434.060000", "143434.847500", "143435.635000", "143436.422500", "143437.212500", "143438.000000", "143438.787500", "143439.575000", "143440.365000", "143441.152500", "143441.940000", "143442.727500", "143443.517500", "143444.305000", "143445.092500", "143445.880000", "143446.670000", "143447.457500", "143448.245000", "143449.035000", "143449.822500", "143450.610000", "143451.397500", "143452.187500", "143452.975000", "143453.762500", "143454.550000", "143455.340000", "143456.127500", "143456.915000", "143457.702500", "143458.492500", "143459.280000", "143500.067500", "143500.855000", "143501.645000", "143502.432500", "143503.220000", "143504.007500", "143504.797500", "143505.585000", "143506.372500", "143507.162500", "143507.950000", "143508.737500", "143509.525000", "143510.315000", "143511.102500", "143511.890000", "143512.677500", "143513.467500", "143514.255000", "143515.042500", "143515.830000", "143516.620000", "143517.407500", "143518.195000", "143518.982500", "143519.772500", "143520.560000", "143521.347500", "143522.137500", "143522.925000", "143523.712500", "143524.500000", "143525.290000", "143526.077500", "143526.865000", "143527.652500", "143528.442500", "143529.230000", "143530.017500", "143530.805000", "143531.595000", "143532.382500", "143533.170000", "143533.957500", "143534.747500", "143535.535000", "143536.322500", "143537.110000", "143537.900000", "143538.687500", "143539.475000", "143540.265000", "143541.052500", "143541.840000", "143542.627500", "143543.417500", "143544.205000", "143544.992500", "143545.780000", "143546.570000", "143547.357500", "143548.145000", "143548.932500", "143549.722500", "143550.510000", "143551.297500", "143552.085000", "143552.875000", "143553.662500", "143554.450000", "143555.237500", "143556.027500", "143556.815000", "143557.602500", "143558.392500", "143559.180000", "143559.967500", "143600.755000", "143601.545000", "143602.332500", "143603.120000", "143603.907500", "143604.697500", "143605.485000", "143606.272500", "143607.060000", "143607.850000", "143608.637500", "143609.425000", "143610.212500", "143611.002500", "143611.790000", "143612.577500", "143613.365000", "143614.155000", "143614.942500", "143615.730000", "143616.520000", "143617.307500", "143618.095000", "143618.882500", "143619.672500", "143620.460000", "143621.247500", "143622.035000", "143622.825000", "143623.612500", "143624.400000", "143625.187500", "143625.977500", "143626.765000", "143627.552500", "143628.340000", "143629.130000", "143629.917500", "143630.705000", "143631.492500", "143632.282500", "143633.070000", "143633.857500", "143634.647500", "143635.435000", "143636.222500", "143637.010000", "143637.800000", "143638.587500", "143639.375000", "143640.162500", "143640.952500", "143641.740000", "143642.527500", "143643.315000", "143644.105000", "143644.892500", "143645.680000", "143646.467500", "143647.257500", "143648.045000", "143648.832500", "143649.620000", "143650.410000", "143651.197500", "143651.985000", "143652.775000", "143653.562500", "143654.350000", "143655.137500", "143655.927500", "143656.715000", "143657.502500", "143658.290000", "143659.080000", "143659.867500", "143700.655000", "143701.442500", "143702.232500", "143703.020000", "143703.807500", "143704.595000", "143705.385000", "143706.172500", "143706.960000", "143707.747500", "143708.537500", "143709.325000", "143710.112500", "143710.902500", "143711.690000", "143712.477500", "143713.265000", "143714.055000", "143714.842500", "143715.630000", "143716.417500", "143717.207500", "143717.995000", "143718.782500", "143719.570000", "143720.360000", "143721.147500", "143721.935000", "143722.722500", "143723.512500", "143724.300000", "143725.087500", "143725.875000", "143726.665000", "143727.452500", "143728.240000", "143729.030000", "143729.817500", "143730.605000", "143731.392500", "143732.182500", "143732.970000", "143733.757500", "143734.545000", "143735.335000", "143736.122500", "143736.910000", "143737.697500", "143738.487500", "143739.275000", "143740.062500", "143740.850000", "143741.640000", "143742.427500", "143743.215000", "143744.002500", "143744.792500", "143745.580000", "143746.367500", "143747.157500", "143747.945000", "143748.732500", "143749.520000", "143750.310000", "143751.097500", "143751.885000", "143752.672500", "143753.462500", "143754.250000", "143755.037500", "143755.825000", "143756.615000", "143757.402500", "143758.190000", "143758.977500", "143759.767500", "143800.555000", "143801.342500", "143802.130000", "143802.920000", "143803.707500", "143804.495000", "143805.285000", "143806.072500", "143806.860000", "143807.647500", "143808.437500", "143809.225000", "143810.012500", "143810.800000", "143811.590000", "143812.377500", "143813.165000", "143813.952500", "143814.742500", "143815.530000", "143816.317500", "143817.105000", "143817.895000", "143818.682500", "143819.470000", "143820.257500", "143821.047500", "143821.835000", "143822.622500", "143823.412500", "143824.200000", "143824.987500", "143825.775000", "143826.565000", "143827.352500", "143828.140000", "143828.927500", "143829.717500", "143830.505000", "143831.292500", "143832.080000", "143832.870000", "143833.657500", "143834.445000", "143835.232500", "143836.022500", "143836.810000", "143837.597500", "143838.387500", "143839.175000", "143839.962500", "143840.750000", "143841.540000", "143842.327500", "143843.115000", "143843.902500", "143844.692500", "143845.480000", "143846.267500", "143847.055000", "143847.845000", "143848.632500", "143849.420000", "143850.207500", "143850.997500", "143851.785000", "143852.572500", "143853.360000", "143854.150000", "143854.937500", "143855.725000", "143856.515000", "143857.302500", "143858.090000", "143858.877500", "143859.667500", "143900.455000", "143901.242500", "143902.030000", "143902.820000", "143903.607500", "143904.395000", "143905.182500", "143905.972500", "143906.760000", "143907.547500", "143908.335000", "143909.125000", "143909.912500", "143910.700000", "143911.487500", "143912.277500", "143913.065000", "143913.852500"],
      "ContentTime": ["143158.484000", "143158.484000", "143158.484000", "143158.484000", "143158.484000", "143158.484000", "143158.500000", "143158.500000", "143158.500000", "143158.500000", "143158.500000", "143158.500000", "143158.500000", "143158.500000", "143158.515000", "143158.515000", "143158.515000", "143158.515000", "143158.515000", "143158.515000", "143158.515000", "143158.531000", "143158.531000", "143158.531000", "143218.453000", "143218.453000", "143218.453000", "143218.468000", "143218.468000", "143218.468000", "143218.468000", "143218.468000", "143218.468000", "143218.468000", "143218.468000", "143218.484000", "143218.484000", "143218.484000", "143218.484000", "143218.484000", "143218.484000", "143218.484000", "143218.500000", "143218.500000", "143218.500000", "143218.500000", "143218.500000", "143218.500000", "143218.500000", "143218.500000", "143238.453000", "143238.453000", "143238.453000", "143238.468000", "143238.468000", "143238.468000", "143238.468000", "143238.468000", "143238.468000", "143238.468000", "143238.468000", "143238.484000", "143238.484000", "143238.484000", "143238.484000", "143238.484000", "143238.484000", "143238.500000", "143238.500000", "143238.500000", "143238.500000", "143238.500000", "143238.500000", "143238.515000", "143238.515000", "143258.453000", "143258.453000", "143258.453000", "143258.468000", "143258.468000", "143258.468000", "143258.468000", "143258.468000", "143258.468000", "143258.468000", "143258.468000", "143258.484000", "143258.484000", "143258.484000", "143258.484000", "143258.484000", "143258.484000", "143258.484000", "143258.500000", "143258.500000", "143258.500000", "143258.500000", "143258.500000", "143258.500000", "143258.515000", "143258.515000", "143318.453000", "143318.453000", "143318.453000", "143318.468000", "143318.468000", "143318.468000", "143318.468000", "143318.468000", "143318.468000", "143318.468000", "143318.484000", "143318.484000", "143318.484000", "143318.484000", "143318.484000", "143318.484000", "143318.484000", "143318.500000", "143318.500000", "143318.500000", "143318.500000", "143318.500000", "143318.500000", "143318.500000", "143318.500000", "143338.453000", "143338.453000", "143338.453000", "143338.468000", "143338.468000", "143338.468000", "143338.468000", "143338.468000", "143338.468000", "143338.468000", "143338.468000", "143338.484000", "143338.484000", "143338.484000", "143338.484000", "143338.484000", "143338.500000", "143338.500000", "143338.500000", "143338.500000", "143338.500000", "143338.500000", "143338.500000", "143338.515000", "143338.515000", "143338.515000", "143358.453000", "143358.453000", "143358.453000", "143358.468000", "143358.468000", "143358.468000", "143358.468000", "143358.468000", "143358.468000", "143358.468000", "143358.468000", "143358.484000", "143358.484000", "143358.484000", "143358.484000", "143358.484000", "143358.484000", "143358.500000", "143358.500000", "143358.500000", "143358.500000", "143358.500000", "143358.500000", "143358.500000", "143358.500000", "143418.453000", "143418.453000", "143418.453000", "143418.468000", "143418.468000", "143418.468000", "143418.468000", "143418.468000", "143418.468000", "143418.468000", "143418.484000", "143418.484000", "143418.484000", "143418.484000", "143418.484000", "143418.484000", "143418.484000", "143418.484000", "143418.500000", "143418.500000", "143418.500000", "143418.500000", "143418.500000", "143418.500000", "143418.515000", "143418.515000", "143438.453000", "143438.453000", "143438.453000", "143438.468000", "143438.468000", "143438.468000", "143438.468000", "143438.468000", "143438.468000", "143438.468000", "143438.484000", "143438.484000", "143438.484000", "143438.484000", "143438.484000", "143438.484000", "143438.484000", "143438.484000", "143438.500000", "143438.500000", "143438.500000", "143438.500000", "143438.500000", "143438.500000", "143438.515000", "143458.453000", "143458.453000", "143458.453000", "143458.468000", "143458.468000", "143458.468000", "143458.468000", "143458.468000", "143458.468000", "143458.468000", "143458.484000", "143458.484000", "143458.484000", "143458.484000", "143458.484000", "143458.484000", "143458.484000", "143458.484000", "143458.500000", "143458.500000", "143458.500000", "143458.500000", "143458.500000", "143458.500000", "143458.500000", "143458.515000", "143518.453000", "143518.453000", "143518.453000", "143518.468000", "143518.468000", "143518.468000", "143518.468000", "143518.468000", "143518.468000", "143518.468000", "143518.484000", "143518.484000", "143518.484000", "143518.484000", "143518.484000", "143518.484000", "143518.484000", "143518.500000", "143518.500000", "143518.500000", "143518.500000", "143518.500000", "143518.500000", "143518.500000", "143518.515000", "143538.453000", "143538.453000", "143538.453000", "143538.468000", "143538.468000", "143538.468000", "143538.468000", "143538.468000", "143538.468000", "143538.468000", "143538.484000", "143538.484000", "143538.484000", "143538.484000", "143538.484000", "143538.484000", "143538.484000", "143538.484000", "143538.500000", "143538.500000", "143538.500000", "143538.500000", "143538.500000", "143538.515000", "143538.515000", "143538.515000", "143558.453000", "143558.453000", "143558.453000", "143558.468000", "143558.468000", "143558.468000", "143558.468000", "143558.468000", "143558.468000", "143558.468000", "143558.468000", "143558.484000", "143558.484000", "143558.484000", "143558.484000", "143558.484000", "143558.484000", "143558.484000", "143558.500000", "143558.500000", "143558.500000", "143558.500000", "143558.500000", "143558.500000", "143558.500000", "143618.453000", "143618.453000", "143618.453000", "143618.468000", "143618.468000", "143618.468000", "143618.468000", "143618.468000", "143618.484000", "143618.484000", "143618.484000", "143618.484000", "143618.484000", "143618.484000", "143618.484000", "143618.500000", "143618.500000", "143618.500000", "143618.500000", "143618.500000", "143618.500000", "143618.500000", "143618.500000", "143618.515000", "143618.515000", "143638.453000", "143638.453000", "143638.453000", "143638.468000", "143638.468000", "143638.468000", "143638.468000", "143638.468000", "143638.468000", "143638.468000", "143638.484000", "143638.484000", "143638.484000", "143638.484000", "143638.484000", "143638.484000", "143638.484000", "143638.500000", "143638.500000", "143638.500000", "143638.500000", "143638.500000", "143638.500000", "143638.500000", "143638.500000", "143638.515000", "143658.453000", "143658.453000", "143658.468000", "143658.468000", "143658.468000", "143658.468000", "143658.468000", "143658.468000", "143658.484000", "143658.484000", "143658.484000", "143658.484000", "143658.484000", "143658.484000", "143658.484000", "143658.500000", "143658.500000", "143658.500000", "143658.500000", "143658.500000", "143658.500000", "143658.500000", "143658.515000", "143658.515000", "143658.515000", "143718.453000", "143718.453000", "143718.453000", "143718.468000", "143718.468000", "143718.468000", "143718.468000", "143718.468000", "143718.468000", "143718.468000", "143718.468000", "143718.484000", "143718.484000", "143718.484000", "143718.484000", "143718.484000", "143718.484000", "143718.484000", "143718.500000", "143718.500000", "143718.500000", "143718.500000", "143718.500000", "143718.500000", "143718.500000", "143718.500000", "143738.453000", "143738.453000", "143738.453000", "143738.468000", "143738.468000", "143738.468000", "143738.468000", "143738.468000", "143738.468000", "143738.468000", "143738.468000", "143738.484000", "143738.484000", "143738.484000", "143738.484000", "143738.484000", "143738.484000", "143738.500000", "143738.500000", "143738.500000", "143738.500000", "143738.500000", "143738.500000", "143738.500000", "143738.500000", "143758.453000", "143758.453000", "143758.453000", "143758.468000", "143758.468000", "143758.468000", "143758.468000", "143758.468000", "143758.468000", "143758.468000", "143758.484000", "143758.484000", "143758.484000", "143758.484000", "143758.484000", "143758.484000", "143758.484000", "143758.484000", "143758.500000", "143758.500000", "143758.500000", "143758.500000", "143758.500000", "143758.500000", "143758.500000", "143758.500000", "143818.453000", "143818.453000", "143818.453000", "143818.468000", "143818.468000", "143818.468000", "143818.468000", "143818.468000", "143818.468000", "143818.468000", "143818.468000", "143818.484000", "143818.484000", "143818.484000", "143818.484000", "143818.484000", "143818.484000", "143818.484000", "143818.500000", "143818.500000", "143818.500000", "143818.500000", "143818.500000", "143818.500000", "143818.500000", "143838.453000", "143838.453000", "143838.453000", "143838.468000", "143838.468000", "143838.468000", "143838.468000", "143838.468000", "143838.468000", "143838.468000", "143838.484000", "143838.484000", "143838.484000", "143838.484000", "143838.484000", "143838.484000", "143838.484000", "143838.484000", "143838.500000", "143838.500000", "143838.500000", "143838.500000", "143838.500000", "143838.500000", "143838.500000", "143838.500000", "143858.453000", "143858.453000", "143858.453000", "143858.468000", "143858.468000", "143858.468000", "143858.468000", "143858.468000", "143858.468000", "143858.468000", "143858.468000", "143858.484000", "143858.484000", "143858.484000", "143858.484000", "143858.484000", "143858.484000", "143858.484000", "143858.500000", "143858.500000", "143858.500000", "143858.500000", "143858.500000", "143858.500000", "143858.500000", "143915.171000", "143915.171000", "143915.171000", "143915.171000", "143915.171000", "143915.171000", "143915.171000", "143915.187000", "143915.187000", "143915.187000", "143915.187000", "143915.187000", "143915.187000", "143915.187000", "143915.187000", "143915.203000", "143915.203000", "143915.203000", "143915.203000", "143915.203000", "143915.203000", "143915.203000"],
