{
  "AcquisitionMatrixPE": 104,
  "AcquisitionNumber": 1,
  "AcquisitionTime": "15:12:1.775000",
  "BandwidthPerPixelPhaseEncode": 13.935,
  "BaseResolution": 104,
  "CoilString": "C:HEA;HEP",
  "ConversionSoftware": "dcm2niix",
  "ConversionSoftwareVersion": "v1.0.20210317",
  "DerivedVendorReportedEchoSpacing": 0.000690017,
  "DeviceSerialNumber": "35450",
  "DwellTime": 2.5e-06,
  "EchoTime": 0.0348,
  "EffectiveEchoSpacing": 0.000690017,
  "FlipAngle": 55,
  "ImageComments": "Unaliased MB8/PE3 (remote)",
  "ImageOrientationPatientDICOM": [1, 0, 0, 0, 0.929133, -0.369747],
  "ImageType": [
    "ORIGINAL",
    "PRIMARY",
    "M",
    "MB",
    "ND",
    "MOSAIC"
],
  "ImagingFrequency": 123.234,
  "InPlanePhaseEncodingDirectionDICOM": "COL",
  "InstitutionAddress": "Univeristy Ave. 197,Newark,North East,US,07102-1814",
  "InstitutionName": "RUBIC",
  "InstitutionalDepartmentName": "Department",
  "MRAcquisitionType": "2D",
  "MagneticFieldStrength": 3,
  "Manufacturer": "Siemens",
  "ManufacturersModelName": "TrioTim",
  "Modality": "MR",
  "MultibandAccelerationFactor": 8,
  "PartialFourier": 0.875,
  "PatientPosition": "HFS",
  "PercentPhaseFOV": 100,
  "PercentSampling": 100,
  "PhaseEncodingDirection": "j-",
  "PhaseEncodingSteps": 91,
  "PhaseResolution": 1,
  "PixelBandwidth": 1923,
  "ProcedureStepDescription": "Cole^Michael",
  "ProtocolName": "cmrr_mbep2d_bold_2mm_MB8_Task_8x",
  "PulseSequenceDetails": "%CustomerSeq%\\cmrr_mbep2d_bold",
  "ReceiveCoilName": "32Ch_Head",
  "ReconMatrixPE": 104,
  "RepetitionTime": 0.785,
  "SAR": 0.126663,
  "ScanOptions": "PFP\\FS",
  "ScanningSequence": "EP",
  "SequenceName": "epfid2d1_104",
  "SequenceVariant": "SK\\SS",
  "SeriesDescription": "cmrr_mbep2d_bold_2mm_MB8_Task_8x",
  "SeriesNumber": 25,
  "ShimSetting": [2137, -289, -7374, 655, -182, -622, -99, -100],
  "SliceThickness": 2,
  "SliceTiming": [0, 0.4375, 0.0875, 0.525, 0.175, 0.6125, 0.2625, 0.7, 0.35, 0, 0.4375, 0.0875, 0.525, 0.175, 0.6125, 0.2625, 0.7, 0.35, 0, 0.4375, 0.0875, 0.525, 0.175, 0.6125, 0.2625, 0.7, 0.35, 0, 0.4375, 0.0875, 0.525, 0.175, 0.6125, 0.2625, 0.7, 0.35, 0, 0.4375, 0.0875, 0.525, 0.175, 0.6125, 0.2625, 0.7, 0.35, 0, 0.4375, 0.0875, 0.525, 0.175, 0.6125, 0.2625, 0.7, 0.35, 0, 0.4375, 0.0875, 0.525, 0.175, 0.6125, 0.2625, 0.7, 0.35, 0, 0.4375, 0.0875, 0.525, 0.175, 0.6125, 0.2625, 0.7, 0.35],
  "SoftwareVersions": "syngo MR B19",
  "SpacingBetweenSlices": 2,
  "StationName": "MRC35450",
  "TaskName": "cpro",
  "TotalReadoutTime": 0.0710717,
  "TxRefAmp": 444.714,
  "dcmmeta_affine": [
    [-2.0, 0.0, 0.0, 102.6440658569336],
    [0.0, 1.8582651615142822, -0.7394934892654419, -73.35933685302734],
    [0.0, 0.7394934892654419, 1.8582651615142822, -141.18328857421875],
    [0.0, 0.0, 0.0, 1.0]
],
  "dcmmeta_reorient_transform": [
    [0.0, -1.0, 0.0, 103.0],
    [1.0, 0.0, 0.0, 0.0],
    [0.0, 0.0, 1.0, 0.0],
    [0.0, 0.0, 0.0, 1.0]
],
  "dcmmeta_shape": [104, 104, 72, 581],
  "dcmmeta_slice_dim": 2,
  "dcmmeta_version": 0.6,
  "global": {
    "const": {
      "AcquisitionMatrix": [104, 0, 0, 104],
      "AngioFlag": "N",
      "BitsAllocated": 16,
      "BitsStored": 12,
      "Columns": 936,
      "EchoNumbers": 1,
      "EchoTime": 34.8,
      "EchoTrainLength": 1,
      "FlipAngle": 55.0,
      "HighBit": 11,
      "ImageOrientationPatient": [1.0, 0.0, 0.0, 0.0, 0.92913258020978, -0.3697467354727],
      "ImagePositionPatient": [-934.64406776428, -891.08027883795, 242.61382819152],
      "ImageType": [
        "ORIGINAL",
        "PRIMARY",
        "M",
        "MB",
        "ND",
        "MOSAIC"
],
      "ImagedNucleus": "1H",
      "ImagingFrequency": 123.234497,
      "InPlanePhaseEncodingDirection": "COL",
      "MRAcquisitionType": "2D",
      "MagneticFieldStrength": 3.0,
      "Manufacturer": "SIEMENS",
      "ManufacturerModelName": "TrioTim",
      "Modality": "MR",
      "NumberOfAverages": 1.0,
      "NumberOfPhaseEncodingSteps": 91,
      "PercentPhaseFieldOfView": 100.0,
      "PercentSampling": 100.0,
      "PerformedProcedureStepStartTime": "132012.640000",
      "PhotometricInterpretation": "MONOCHROME2",
      "PixelBandwidth": 1923.0,
      "PixelRepresentation": 0,
      "PixelSpacing": [2.0, 2.0],
      "ProtocolName": "cmrr_mbep2d_bold_2mm_MB8_Task_8x",
      "RepetitionTime": 785.0,
      "Rows": 936,
      "SAR": 0.12666260542807,
      "SamplesPerPixel": 1,
      "ScanOptions": [
        "PFP",
        "FS"
],
      "ScanningSequence": "EP",
      "SequenceName": "epfid2d1_104",
      "SequenceVariant": [
        "SK",
        "SS"
],
      "SeriesDescription": "cmrr_mbep2d_bold_2mm_MB8_Task_8x",
      "SeriesNumber": 25,
      "SeriesTime": "151226.453000",
      "SliceLocation": -104.05361196229,
      "SliceThickness": 2.0,
      "SmallestImagePixelValue": 0,
      "SoftwareVersions": "syngo MR B19",
      "SpacingBetweenSlices": 1.9999999715441,
      "SpecificCharacterSet": "ISO_IR 100",
      "StudyID": "1",
      "StudyTime": "132012.578000",
      "TransmitCoilName": "Body",
      "VariableFlipAngleFlag": "N",
      "WindowCenterWidthExplanation": "Algo1",
      "dBdt": 0.0},
    "slices": {}
  },
  "time": {
    "samples": {
      "AcquisitionNumber": [1, 2, 3, 4, 5, 6, 7, 8, 9, 10, 11, 12, 13, 14, 15, 16, 17, 18, 19, 20, 21, 22, 23, 24, 25, 26, 27, 28, 29, 30, 31, 32, 33, 34, 35, 36, 37, 38, 39, 40, 41, 42, 43, 44, 45, 46, 47, 48, 49, 50, 51, 52, 53, 54, 55, 56, 57, 58, 59, 60, 61, 62, 63, 64, 65, 66, 67, 68, 69, 70, 71, 72, 73, 74, 75, 76, 77, 78, 79, 80, 81, 82, 83, 84, 85, 86, 87, 88, 89, 90, 91, 92, 93, 94, 95, 96, 97, 98, 99, 100, 101, 102, 103, 104, 105, 106, 107, 108, 109, 110, 111, 112, 113, 114, 115, 116, 117, 118, 119, 120, 121, 122, 123, 124, 125, 126, 127, 128, 129, 130, 131, 132, 133, 134, 135, 136, 137, 138, 139, 140, 141, 142, 143, 144, 145, 146, 147, 148, 149, 150, 151, 152, 153, 154, 155, 156, 157, 158, 159, 160, 161, 162, 163, 164, 165, 166, 167, 168, 169, 170, 171, 172, 173, 174, 175, 176, 177, 178, 179, 180, 181, 182, 183, 184, 185, 186, 187, 188, 189, 190, 191, 192, 193, 194, 195, 196, 197, 198, 199, 200, 201, 202, 203, 204, 205, 206, 207, 208, 209, 210, 211, 212, 213, 214, 215, 216, 217, 218, 219, 220, 221, 222, 223, 224, 225, 226, 227, 228, 229, 230, 231, 232, 233, 234, 235, 236, 237, 238, 239, 240, 241, 242, 243, 244, 245, 246, 247, 248, 249, 250, 251, 252, 253, 254, 255, 256, 257, 258, 259, 260, 261, 262, 263, 264, 265, 266, 267, 268, 269, 270, 271, 272, 273, 274, 275, 276, 277, 278, 279, 280, 281, 282, 283, 284, 285, 286, 287, 288, 289, 290, 291, 292, 293, 294, 295, 296, 297, 298, 299, 300, 301, 302, 303, 304, 305, 306, 307, 308, 309, 310, 311, 312, 313, 314, 315, 316, 317, 318, 319, 320, 321, 322, 323, 324, 325, 326, 327, 328, 329, 330, 331, 332, 333, 334, 335, 336, 337, 338, 339, 340, 341, 342, 343, 344, 345, 346, 347, 348, 349, 350, 351, 352, 353, 354, 355, 356, 357, 358, 359, 360, 361, 362, 363, 364, 365, 366, 367, 368, 369, 370, 371, 372, 373, 374, 375, 376, 377, 378, 379, 380, 381, 382, 383, 384, 385, 386, 387, 388, 389, 390, 391, 392, 393, 394, 395, 396, 397, 398, 399, 400, 401, 402, 403, 404, 405, 406, 407, 408, 409, 410, 411, 412, 413, 414, 415, 416, 417, 418, 419, 420, 421, 422, 423, 424, 425, 426, 427, 428, 429, 430, 431, 432, 433, 434, 435, 436, 437, 438, 439, 440, 441, 442, 443, 444, 445, 446, 447, 448, 449, 450, 451, 452, 453, 454, 455, 456, 457, 458, 459, 460, 461, 462, 463, 464, 465, 466, 467, 468, 469, 470, 471, 472, 473, 474, 475, 476, 477, 478, 479, 480, 481, 482, 483, 484, 485, 486, 487, 488, 489, 490, 491, 492, 493, 494, 495, 496, 497, 498, 499, 500, 501, 502, 503, 504, 505, 506, 507, 508, 509, 510, 511, 512, 513, 514, 515, 516, 517, 518, 519, 520, 521, 522, 523, 524, 525, 526, 527, 528, 529, 530, 531, 532, 533, 534, 535, 536, 537, 538, 539, 540, 541, 542, 543, 544, 545, 546, 547, 548, 549, 550, 551, 552, 553, 554, 555, 556, 557, 558, 559, 560, 561, 562, 563, 564, 565, 566, 567, 568, 569, 570, 571, 572, 573, 574, 575, 576, 577, 578, 579, 580, 581],
      "AcquisitionTime": ["151201.775000", "151202.562500", "151203.350000", "151204.137500", "151204.927500", "151205.715000", "151206.502500", "151207.290000", "151208.080000", "151208.867500", "151209.655000", "151210.442500", "151211.232500", "151212.020000", "151212.807500", "151213.595000", "151214.385000", "151215.172500", "151215.960000", "151216.747500", "151217.537500", "151218.325000", "151219.112500", "151219.902500", "151220.690000", "151221.477500", "151222.265000", "151223.055000", "151223.842500", "151224.630000", "151225.417500", "151226.207500", "151226.995000", "151227.782500", "151228.570000", "151229.360000", "151230.147500", "151230.935000", "151231.722500", "151232.512500", "151233.300000", "151234.087500", "151234.875000", "151235.665000", "151236.452500", "151237.240000", "151238.030000", "151238.817500", "151239.605000", "151240.392500", "151241.182500", "151241.970000", "151242.757500", "151243.545000", "151244.335000", "151245.122500", "151245.910000", "151246.697500", "151247.487500", "151248.275000", "151249.062500", "151249.850000", "151250.640000", "151251.427500", "151252.215000", "151253.002500", "151253.792500", "151254.580000", "151255.367500", "151256.157500", "151256.945000", "151257.732500", "151258.520000", "151259.310000", "151300.097500", "151300.885000", "151301.672500", "151302.462500", "151303.250000", "151304.037500", "151304.825000", "151305.615000", "151306.402500", "151307.190000", "151307.977500", "151308.767500", "151309.555000", "151310.342500", "151311.132500", "151311.920000", "151312.707500", "151313.495000", "151314.285000", "151315.072500", "151315.860000", "151316.647500", "151317.437500", "151318.225000", "151319.012500", "151319.800000", "151320.590000", "151321.377500", "151322.165000", "151322.952500", "151323.742500", "151324.530000", "151325.317500", "151326.105000", "151326.895000", "151327.682500", "151328.470000", "151329.260000", "151330.047500", "151330.835000", "151331.622500", "151332.412500", "151333.200000", "151333.987500", "151334.775000", "151335.565000", "151336.352500", "151337.140000", "151337.927500", "151338.717500", "151339.505000", "151340.292500", "151341.080000", "151341.870000", "151342.657500", "151343.445000", "151344.232500", "151345.022500", "151345.810000", "151346.597500", "151347.387500", "151348.175000", "151348.962500", "151349.750000", "151350.540000", "151351.327500", "151352.115000", "151352.902500", "151353.692500", "151354.480000", "151355.267500", "151356.055000", "151356.845000", "151357.632500", "151358.420000", "151359.207500", "151359.997500", "151400.785000", "151401.572500", "151402.360000", "151403.150000", "151403.937500", "151404.725000", "151405.515000", "151406.302500", "151407.090000", "151407.877500", "151408.667500", "151409.455000", "151410.242500", "151411.030000", "151411.820000", "151412.607500", "151413.395000", "151414.182500", "151414.972500", "151415.760000", "151416.547500", "151417.335000", "151418.125000", "151418.912500", "151419.700000", "151420.487500", "151421.277500", "151422.065000", "151422.852500", "151423.642500", "151424.430000", "151425.217500", "151426.005000", "151426.795000", "151427.582500", "151428.370000", "151429.157500", "151429.947500", "151430.735000", "151431.522500", "151432.310000", "151433.100000", "151433.887500", "151434.675000", "151435.462500", "151436.252500", "151437.040000", "151437.827500", "151438.615000", "151439.405000", "151440.192500", "151440.980000", "151441.770000", "151442.557500", "151443.345000", "151444.132500", "151444.922500", "151445.710000", "151446.497500", "151447.285000", "151448.075000", "151448.862500", "151449.650000", "151450.437500", "151451.227500", "151452.015000", "151452.802500", "151453.590000", "151454.380000", "151455.167500", "151455.955000", "151456.742500", "151457.532500", "151458.320000", "151459.107500", "151459.897500", "151500.685000", "151501.472500", "151502.260000", "151503.050000", "151503.837500", "151504.625000", "151505.412500", "151506.202500", "151506.990000", "151507.777500", "151508.565000", "151509.355000", "151510.142500", "151510.930000", "151511.717500", "151512.507500", "151513.295000", "151514.082500", "151514.870000", "151515.660000", "151516.447500", "151517.235000", "151518.025000", "151518.812500", "151519.600000", "151520.387500", "151521.177500", "151521.965000", "151522.752500", "151523.540000", "151524.330000", "151525.117500", "151525.905000", "151526.692500", "151527.482500", "151528.270000", "151529.057500", "151529.845000", "151530.635000", "151531.422500", "151532.210000", "151532.997500", "151533.787500", "151534.575000", "151535.362500", "151536.152500", "151536.940000", "151537.727500", "151538.515000", "151539.305000", "151540.092500", "151540.880000", "151541.667500", "151542.457500", "151543.245000", "151544.032500", "151544.820000", "151545.610000", "151546.397500", "151547.185000", "151547.972500", "151548.762500", "151549.550000", "151550.337500", "151551.125000", "151551.915000", "151552.702500", "151553.490000", "151554.280000", "151555.067500", "151555.855000", "151556.642500", "151557.432500", "151558.220000", "151559.007500", "151559.795000", "151600.585000", "151601.372500", "151602.160000", "151602.947500", "151603.737500", "151604.525000", "151605.312500", "151606.100000", "151606.890000", "151607.677500", "151608.465000", "151609.252500", "151610.042500", "151610.830000", "151611.617500", "151612.407500", "151613.195000", "151613.982500", "151614.770000", "151615.560000", "151616.347500", "151617.135000", "151617.922500", "151618.712500", "151619.500000", "151620.287500", "151621.075000", "151621.865000", "151622.652500", "151623.440000", "151624.227500", "151625.017500", "151625.805000", "151626.592500", "151627.382500", "151628.170000", "151628.957500", "151629.745000", "151630.535000", "151631.322500", "151632.110000", "151632.897500", "151633.687500", "151634.475000", "151635.262500", "151636.050000", "151636.840000", "151637.627500", "151638.415000", "151639.202500", "151639.992500", "151640.780000", "151641.567500", "151642.355000", "151643.145000", "151643.932500", "151644.720000", "151645.510000", "151646.297500", "151647.085000", "151647.872500", "151648.662500", "151649.450000", "151650.237500", "151651.025000", "151651.815000", "151652.602500", "151653.390000", "151654.177500", "151654.967500", "151655.755000", "151656.542500", "151657.330000", "151658.120000", "151658.907500", "151659.695000", "151700.482500", "151701.272500", "151702.060000", "151702.847500", "151703.637500", "151704.425000", "151705.212500", "151706.000000", "151706.790000", "151707.577500", "151708.365000", "151709.152500", "151709.942500", "151710.730000", "151711.517500", "151712.305000", "151713.095000", "151713.882500", "151714.670000", "151715.457500", "151716.247500", "151717.035000", "151717.822500", "151718.610000", "151719.400000", "151720.187500", "151720.975000", "151721.765000", "151722.552500", "151723.340000", "151724.127500", "151724.917500", "151725.705000", "151726.492500", "151727.280000", "151728.070000", "151728.857500", "151729.645000", "151730.432500", "151731.222500", "151732.010000", "151732.797500", "151733.585000", "151734.375000", "151735.162500", "151735.950000", "151736.737500", "151737.527500", "151738.315000", "151739.102500", "151739.892500", "151740.680000", "151741.467500", "151742.255000", "151743.045000", "151743.832500", "151744.620000", "151745.407500", "151746.197500", "151746.985000", "151747.772500", "151748.560000", "151749.350000", "151750.137500", "151750.925000", "151751.712500", "151752.502500", "151753.290000", "151754.077500", "151754.865000", "151755.655000", "151756.442500", "151757.230000", "151758.020000", "151758.807500", "151759.595000", "151800.382500", "151801.172500", "151801.960000", "151802.747500", "151803.535000", "151804.325000", "151805.112500", "151805.900000", "151806.687500", "151807.477500", "151808.265000", "151809.052500", "151809.840000", "151810.630000", "151811.417500", "151812.205000", "151812.992500", "151813.782500", "151814.570000", "151815.357500", "151816.147500", "151816.935000", "151817.722500", "151818.510000", "151819.300000", "151820.087500", "151820.875000", "151821.662500", "151822.452500", "151823.240000", "151824.027500", "151824.815000", "151825.605000", "151826.392500", "151827.180000", "151827.967500", "151828.757500", "151829.545000", "151830.332500", "151831.120000", "151831.910000", "151832.697500", "151833.485000", "151834.275000", "151835.062500", "151835.850000", "151836.637500", "151837.427500", "151838.215000", "151839.002500", "151839.790000", "151840.580000", "151841.367500", "151842.155000", "151842.942500", "151843.732500", "151844.520000", "151845.307500", "151846.095000", "151846.885000", "151847.672500", "151848.460000", "151849.247500", "151850.037500", "151850.825000", "151851.612500", "151852.402500", "151853.190000", "151853.977500", "151854.765000", "151855.555000", "151856.342500", "151857.130000", "151857.917500", "151858.707500", "151859.495000", "151900.282500", "151901.070000", "151901.860000", "151902.647500", "151903.435000", "151904.222500", "151905.012500", "151905.800000", "151906.587500", "151907.375000", "151908.165000", "151908.952500", "151909.740000", "151910.530000", "151911.317500", "151912.105000", "151912.892500", "151913.682500", "151914.470000", "151915.257500", "151916.045000", "151916.835000", "151917.622500", "151918.410000", "151919.197500", "151919.987500", "151920.775000", "151921.562500", "151922.350000", "151923.140000", "151923.927500", "151924.715000", "151925.502500", "151926.292500", "151927.080000", "151927.867500", "151928.657500", "151929.445000", "151930.232500", "151931.020000", "151931.810000", "151932.597500", "151933.385000", "151934.172500", "151934.962500", "151935.750000", "151936.537500", "151937.325000", "151938.115000", "151938.902500"],
      "ContentTime": ["151226.453000", "151226.453000", "151226.453000", "151226.453000", "151226.468000", "151226.468000", "151226.468000", "151226.468000", "151226.468000", "151226.468000", "151226.468000", "151226.484000", "151226.484000", "151226.484000", "151226.484000", "151226.484000", "151226.484000", "151226.500000", "151226.500000", "151226.500000", "151226.500000", "151226.500000", "151226.500000", "151226.500000", "151226.515000", "151226.515000", "151226.515000", "151226.515000", "151246.421000", "151246.421000", "151246.421000", "151246.437000", "151246.437000", "151246.437000", "151246.437000", "151246.437000", "151246.437000", "151246.437000", "151246.437000", "151246.453000", "151246.453000", "151246.453000", "151246.453000", "151246.453000", "151246.453000", "151246.453000", "151246.468000", "151246.468000", "151246.468000", "151246.468000", "151246.468000", "151246.468000", "151246.484000", "151246.484000", "151306.421000", "151306.421000", "151306.421000", "151306.437000", "151306.437000", "151306.437000", "151306.437000", "151306.437000", "151306.437000", "151306.437000", "151306.453000", "151306.453000", "151306.453000", "151306.453000", "151306.453000", "151306.453000", "151306.453000", "151306.453000", "151306.468000", "151306.468000", "151306.468000", "151306.468000", "151306.468000", "151306.468000", "151306.468000", "151326.421000", "151326.421000", "151326.421000", "151326.437000", "151326.437000", "151326.437000", "151326.437000", "151326.437000", "151326.437000", "151326.437000", "151326.453000", "151326.453000", "151326.453000", "151326.453000", "151326.453000", "151326.453000", "151326.453000", "151326.453000", "151326.468000", "151326.468000", "151326.468000", "151326.468000", "151326.468000", "151326.468000", "151326.484000", "151326.484000", "151346.421000", "151346.421000", "151346.421000", "151346.437000", "151346.437000", "151346.437000", "151346.437000", "151346.437000", "151346.437000", "151346.453000", "151346.453000", "151346.453000", "151346.453000", "151346.453000", "151346.468000", "151346.468000", "151346.468000", "151346.468000", "151346.468000", "151346.468000", "151346.468000", "151346.468000", "151346.484000", "151346.484000", "151346.484000", "151406.421000", "151406.421000", "151406.421000", "151406.437000", "151406.437000", "151406.437000", "151406.437000", "151406.437000", "151406.437000", "151406.437000", "151406.437000", "151406.453000", "151406.453000", "151406.453000", "151406.453000", "151406.453000", "151406.453000", "151406.453000", "151406.468000", "151406.468000", "151406.468000", "151406.468000", "151406.468000", "151406.484000", "151406.484000", "151406.484000", "151426.421000", "151426.421000", "151426.421000", "151426.437000", "151426.437000", "151426.437000", "151426.437000", "151426.437000", "151426.437000", "151426.437000", "151426.437000", "151426.453000", "151426.453000", "151426.453000", "151426.453000", "151426.453000", "151426.453000", "151426.453000", "151426.468000", "151426.468000", "151426.468000", "151426.468000", "151426.468000", "151426.468000", "151426.468000", "151446.421000", "151446.421000", "151446.421000", "151446.437000", "151446.437000", "151446.437000", "151446.437000", "151446.437000", "151446.437000", "151446.437000", "151446.437000", "151446.453000", "151446.453000", "151446.453000", "151446.453000", "151446.453000", "151446.453000", "151446.453000", "151446.468000", "151446.468000", "151446.468000", "151446.468000", "151446.468000", "151446.468000", "151446.468000", "151446.468000", "151506.421000", "151506.421000", "151506.421000", "151506.437000", "151506.437000", "151506.437000", "151506.437000", "151506.437000", "151506.437000", "151506.437000", "151506.453000", "151506.453000", "151506.453000", "151506.453000", "151506.453000", "151506.453000", "151506.453000", "151506.468000", "151506.468000", "151506.468000", "151506.468000", "151506.468000", "151506.468000", "151506.468000", "151506.484000", "151526.421000", "151526.421000", "151526.421000", "151526.437000", "151526.437000", "151526.437000", "151526.437000", "151526.453000", "151526.453000", "151526.453000", "151526.453000", "151526.453000", "151526.453000", "151526.468000", "151526.468000", "151526.468000", "151526.468000", "151526.468000", "151526.468000", "151526.468000", "151526.484000", "151526.484000", "151526.484000", "151526.484000", "151526.484000", "151546.421000", "151546.421000", "151546.421000", "151546.437000", "151546.437000", "151546.437000", "151546.437000", "151546.437000", "151546.453000", "151546.453000", "151546.453000", "151546.453000", "151546.453000", "151546.453000", "151546.453000", "151546.468000", "151546.468000", "151546.468000", "151546.468000", "151546.468000", "151546.468000", "151546.468000", "151546.468000", "151546.484000", "151546.484000", "151546.484000", "151606.421000", "151606.421000", "151606.421000", "151606.437000", "151606.437000", "151606.437000", "151606.437000", "151606.437000", "151606.437000", "151606.453000", "151606.453000", "151606.453000", "151606.453000", "151606.453000", "151606.453000", "151606.453000", "151606.453000", "151606.468000", "151606.468000", "151606.468000", "151606.468000", "151606.468000", "151606.468000", "151606.484000", "151606.484000", "151626.421000", "151626.421000", "151626.421000", "151626.437000", "151626.437000", "151626.437000", "151626.437000", "151626.437000", "151626.437000", "151626.437000", "151626.437000", "151626.453000", "151626.453000", "151626.453000", "151626.453000", "151626.453000", "151626.453000", "151626.453000", "151626.468000", "151626.468000", "151626.468000", "151626.468000", "151626.468000", "151626.468000", "151626.468000", "151626.468000", "151646.421000", "151646.421000", "151646.421000", "151646.437000", "151646.437000", "151646.437000", "151646.437000", "151646.437000", "151646.437000", "151646.437000", "151646.453000", "151646.453000", "151646.453000", "151646.453000", "151646.453000", "151646.468000", "151646.468000", "151646.468000", "151646.468000", "151646.468000", "151646.484000", "151646.484000", "151646.484000", "151646.484000", "151646.484000", "151706.421000", "151706.421000", "151706.421000", "151706.437000", "151706.437000", "151706.437000", "151706.437000", "151706.437000", "151706.437000", "151706.437000", "151706.453000", "151706.453000", "151706.453000", "151706.453000", "151706.453000", "151706.453000", "151706.468000", "151706.468000", "151706.468000", "151706.468000", "151706.468000", "151706.468000", "151706.468000", "151706.484000", "151706.484000", "151706.484000", "151726.421000", "151726.421000", "151726.421000", "151726.437000", "151726.437000", "151726.437000", "151726.437000", "151726.437000", "151726.437000", "151726.453000", "151726.453000", "151726.453000", "151726.453000", "151726.468000", "151726.468000", "151726.468000", "151726.468000", "151726.484000", "151726.484000", "151726.484000", "151726.484000", "151726.484000", "151726.484000", "151726.500000", "151726.500000", "151746.421000", "151746.421000", "151746.421000", "151746.437000", "151746.437000", "151746.437000", "151746.437000", "151746.437000", "151746.437000", "151746.437000", "151746.437000", "151746.453000", "151746.453000", "151746.453000", "151746.453000", "151746.453000", "151746.468000", "151746.468000", "151746.468000", "151746.468000", "151746.484000", "151746.484000", "151746.484000", "151746.484000", "151746.484000", "151746.484000", "151806.421000", "151806.421000", "151806.421000", "151806.437000", "151806.437000", "151806.437000", "151806.437000", "151806.437000", "151806.437000", "151806.437000", "151806.453000", "151806.453000", "151806.453000", "151806.453000", "151806.453000", "151806.453000", "151806.453000", "151806.453000", "151806.468000", "151806.468000", "151806.468000", "151806.468000", "151806.468000", "151806.468000", "151806.468000", "151826.421000", "151826.421000", "151826.421000", "151826.437000", "151826.437000", "151826.437000", "151826.437000", "151826.437000", "151826.437000", "151826.437000", "151826.453000", "151826.453000", "151826.453000", "151826.453000", "151826.453000", "151826.453000", "151826.453000", "151826.453000", "151826.468000", "151826.468000", "151826.468000", "151826.468000", "151826.468000", "151826.468000", "151826.468000", "151826.484000", "151846.421000", "151846.421000", "151846.421000", "151846.437000", "151846.437000", "151846.437000", "151846.437000", "151846.437000", "151846.437000", "151846.437000", "151846.437000", "151846.453000", "151846.453000", "151846.453000", "151846.453000", "151846.453000", "151846.453000", "151846.453000", "151846.468000", "151846.468000", "151846.468000", "151846.468000", "151846.468000", "151846.468000", "151846.468000", "151906.421000", "151906.421000", "151906.421000", "151906.437000", "151906.437000", "151906.437000", "151906.437000", "151906.437000", "151906.437000", "151906.437000", "151906.453000", "151906.453000", "151906.453000", "151906.453000", "151906.453000", "151906.453000", "151906.453000", "151906.468000", "151906.468000", "151906.468000", "151906.468000", "151906.468000", "151906.468000", "151906.484000", "151906.484000", "151906.484000", "151926.421000", "151926.421000", "151926.421000", "151926.437000", "151926.437000", "151926.437000", "151926.437000", "151926.437000", "151926.437000", "151926.437000", "151926.453000", "151926.453000", "151926.453000", "151926.453000", "151926.453000", "151926.453000", "151926.453000", "151926.453000", "151926.468000", "151926.468000", "151926.468000", "151926.468000", "151926.468000", "151926.468000", "151926.468000", "151939.984000", "151940.000000", "151940.000000", "151940.000000", "151940.000000", "151940.000000", "151940.000000", "151940.015000", "151940.015000", "151940.015000", "151940.015000", "151940.015000", "151940.015000", "151940.015000", "151940.015000", "151940.031000", "151940.031000", "151940.031000"],
