{
  "AcquisitionMatrixPE": 104,
  "AcquisitionNumber": 1,
  "AcquisitionTime": "16:23:24.740000",
  "BandwidthPerPixelPhaseEncode": 13.935,
  "BaseResolution": 104,
  "CoilString": "C:HEA;HEP",
  "ConversionSoftware": "dcm2niix",
  "ConversionSoftwareVersion": "v1.0.20210317",
  "DerivedVendorReportedEchoSpacing": 0.000690017,
  "DeviceSerialNumber": "35450",
  "DwellTime": 2.5e-06,
  "EchoTime": 0.0348,
  "EffectiveEchoSpacing": 0.000690017,
  "FlipAngle": 55,
  "ImageComments": "Unaliased MB8/PE3",
  "ImageOrientationPatientDICOM": [0.999392, 0.000913672, -0.0348569, -2.24809e-08, 0.999657, 0.0262024],
  "ImageType": [
    "ORIGINAL",
    "PRIMARY",
    "M",
    "MB",
    "ND",
    "MOSAIC"
],
  "ImagingFrequency": 123.234,
  "InPlanePhaseEncodingDirectionDICOM": "COL",
  "InstitutionAddress": "Univeristy Ave. 197,Newark,North East,US,07102-1814",
  "InstitutionName": "RUBIC",
  "InstitutionalDepartmentName": "Department",
  "MRAcquisitionType": "2D",
  "MagneticFieldStrength": 3,
  "Manufacturer": "Siemens",
  "ManufacturersModelName": "TrioTim",
  "Modality": "MR",
  "MultibandAccelerationFactor": 8,
  "PartialFourier": 0.875,
  "PatientPosition": "HFS",
  "PercentPhaseFOV": 100,
  "PercentSampling": 100,
  "PhaseEncodingDirection": "j-",
  "PhaseEncodingSteps": 91,
  "PhaseResolution": 1,
  "PixelBandwidth": 1923,
  "ProcedureStepDescription": "Cole^Michael",
  "ProtocolName": "cmrr_mbep2d_bold_2mm_MB8_Task_8x",
  "PulseSequenceDetails": "%CustomerSeq%\\cmrr_mbep2d_bold",
  "ReceiveCoilName": "32Ch_Head",
  "ReconMatrixPE": 104,
  "RepetitionTime": 0.785,
  "SAR": 0.101925,
  "ScanOptions": "PFP\\FS",
  "ScanningSequence": "EP",
  "SequenceName": "epfid2d1_104",
  "SequenceVariant": "SK\\SS",
  "SeriesDescription": "cmrr_mbep2d_bold_2mm_MB8_Task_8x",
  "SeriesNumber": 23,
  "ShimSetting": [2118, -479, -7282, 508, 39, -90, -25, 7],
  "SliceThickness": 2,
  "SliceTiming": [0, 0.4375, 0.0875, 0.525, 0.175, 0.6125, 0.2625, 0.7, 0.35, 0, 0.4375, 0.0875, 0.525, 0.175, 0.6125, 0.2625, 0.7, 0.35, 0, 0.4375, 0.0875, 0.525, 0.175, 0.6125, 0.2625, 0.7, 0.35, 0, 0.4375, 0.0875, 0.525, 0.175, 0.6125, 0.2625, 0.7, 0.35, 0, 0.4375, 0.0875, 0.525, 0.175, 0.6125, 0.2625, 0.7, 0.35, 0, 0.4375, 0.0875, 0.525, 0.175, 0.6125, 0.2625, 0.7, 0.35, 0, 0.4375, 0.0875, 0.525, 0.175, 0.6125, 0.2625, 0.7, 0.35, 0, 0.4375, 0.0875, 0.525, 0.175, 0.6125, 0.2625, 0.7, 0.35],
  "SoftwareVersions": "syngo MR B19",
  "SpacingBetweenSlices": 2,
  "StationName": "MRC35450",
  "TaskName": "cpro",
  "TotalReadoutTime": 0.0710717,
  "TxRefAmp": 320.915,
  "dcmmeta_affine": [
    [-1.998783826828003, -4.496189021097052e-08, -0.06973776966333389, 103.71644592285156],
    [-0.0018273447640240192, 1.9993133544921875, 0.0523730143904686, -89.49043273925781],
    [-0.06971382349729538, -0.05240488424897194, 1.998097538948059, -82.93943786621094],
    [0.0, 0.0, 0.0, 1.0]
],
  "dcmmeta_reorient_transform": [
    [0.0, -1.0, 0.0, 103.0],
    [1.0, 0.0, 0.0, 0.0],
    [0.0, 0.0, 1.0, 0.0],
    [0.0, 0.0, 0.0, 1.0]
],
  "dcmmeta_shape": [104, 104, 72, 581],
  "dcmmeta_slice_dim": 2,
  "dcmmeta_version": 0.6,
  "global": {
    "const": {
      "AcquisitionMatrix": [104, 0, 0, 104],
      "AngioFlag": "N",
      "BitsAllocated": 16,
      "BitsStored": 12,
      "Columns": 936,
      "EchoNumbers": 1,
      "EchoTime": 34.8,
      "EchoTrainLength": 1,
      "FlipAngle": 55.0,
      "HighBit": 11,
      "ImageOrientationPatient": [0.99939189556644, 0.00091367238411, -0.0348569114939, -2.2480945e-08, 0.99965665706529, 0.02620244234897],
      "ImagePositionPatient": [-935.21048190906, -948.91335164193, -81.136622385695],
      "ImageType": [
        "ORIGINAL",
        "PRIMARY",
        "M",
        "MB",
        "ND",
        "MOSAIC"
],
      "ImagedNucleus": "1H",
      "ImagingFrequency": 123.23444,
      "InPlanePhaseEncodingDirection": "COL",
      "MRAcquisitionType": "2D",
      "MagneticFieldStrength": 3.0,
      "Manufacturer": "SIEMENS",
      "ManufacturerModelName": "TrioTim",
      "Modality": "MR",
      "NumberOfAverages": 1.0,
      "NumberOfPhaseEncodingSteps": 91,
      "PercentPhaseFieldOfView": 100.0,
      "PercentSampling": 100.0,
      "PerformedProcedureStepStartTime": "143528.906000",
      "PhotometricInterpretation": "MONOCHROME2",
      "PixelBandwidth": 1923.0,
      "PixelRepresentation": 0,
      "PixelSpacing": [2.0, 2.0],
      "ProtocolName": "cmrr_mbep2d_bold_2mm_MB8_Task_8x",
      "RepetitionTime": 785.0,
      "Rows": 936,
      "SAR": 0.10192484617951,
      "SamplesPerPixel": 1,
      "ScanOptions": [
        "PFP",
        "FS"
],
      "ScanningSequence": "EP",
      "SequenceName": "epfid2d1_104",
      "SequenceVariant": [
        "SK",
        "SS"
],
      "SeriesDescription": "cmrr_mbep2d_bold_2mm_MB8_Task_8x",
      "SeriesNumber": 23,
      "SeriesTime": "175756.718000",
      "SliceLocation": -88.820461143254,
      "SliceThickness": 2.0,
      "SmallestImagePixelValue": 0,
      "SoftwareVersions": "syngo MR B19",
      "SpacingBetweenSlices": 2.0000000176702,
      "SpecificCharacterSet": "ISO_IR 100",
      "StudyID": "1",
      "StudyTime": "143528.828000",
      "TransmitCoilName": "Body",
      "VariableFlipAngleFlag": "N",
      "WindowCenterWidthExplanation": "Algo1",
      "dBdt": 0.0},
    "slices": {}
  },
  "time": {
    "samples": {
      "AcquisitionNumber": [1, 2, 3, 4, 5, 6, 7, 8, 9, 10, 11, 12, 13, 14, 15, 16, 17, 18, 19, 20, 21, 22, 23, 24, 25, 26, 27, 28, 29, 30, 31, 32, 33, 34, 35, 36, 37, 38, 39, 40, 41, 42, 43, 44, 45, 46, 47, 48, 49, 50, 51, 52, 53, 54, 55, 56, 57, 58, 59, 60, 61, 62, 63, 64, 65, 66, 67, 68, 69, 70, 71, 72, 73, 74, 75, 76, 77, 78, 79, 80, 81, 82, 83, 84, 85, 86, 87, 88, 89, 90, 91, 92, 93, 94, 95, 96, 97, 98, 99, 100, 101, 102, 103, 104, 105, 106, 107, 108, 109, 110, 111, 112, 113, 114, 115, 116, 117, 118, 119, 120, 121, 122, 123, 124, 125, 126, 127, 128, 129, 130, 131, 132, 133, 134, 135, 136, 137, 138, 139, 140, 141, 142, 143, 144, 145, 146, 147, 148, 149, 150, 151, 152, 153, 154, 155, 156, 157, 158, 159, 160, 161, 162, 163, 164, 165, 166, 167, 168, 169, 170, 171, 172, 173, 174, 175, 176, 177, 178, 179, 180, 181, 182, 183, 184, 185, 186, 187, 188, 189, 190, 191, 192, 193, 194, 195, 196, 197, 198, 199, 200, 201, 202, 203, 204, 205, 206, 207, 208, 209, 210, 211, 212, 213, 214, 215, 216, 217, 218, 219, 220, 221, 222, 223, 224, 225, 226, 227, 228, 229, 230, 231, 232, 233, 234, 235, 236, 237, 238, 239, 240, 241, 242, 243, 244, 245, 246, 247, 248, 249, 250, 251, 252, 253, 254, 255, 256, 257, 258, 259, 260, 261, 262, 263, 264, 265, 266, 267, 268, 269, 270, 271, 272, 273, 274, 275, 276, 277, 278, 279, 280, 281, 282, 283, 284, 285, 286, 287, 288, 289, 290, 291, 292, 293, 294, 295, 296, 297, 298, 299, 300, 301, 302, 303, 304, 305, 306, 307, 308, 309, 310, 311, 312, 313, 314, 315, 316, 317, 318, 319, 320, 321, 322, 323, 324, 325, 326, 327, 328, 329, 330, 331, 332, 333, 334, 335, 336, 337, 338, 339, 340, 341, 342, 343, 344, 345, 346, 347, 348, 349, 350, 351, 352, 353, 354, 355, 356, 357, 358, 359, 360, 361, 362, 363, 364, 365, 366, 367, 368, 369, 370, 371, 372, 373, 374, 375, 376, 377, 378, 379, 380, 381, 382, 383, 384, 385, 386, 387, 388, 389, 390, 391, 392, 393, 394, 395, 396, 397, 398, 399, 400, 401, 402, 403, 404, 405, 406, 407, 408, 409, 410, 411, 412, 413, 414, 415, 416, 417, 418, 419, 420, 421, 422, 423, 424, 425, 426, 427, 428, 429, 430, 431, 432, 433, 434, 435, 436, 437, 438, 439, 440, 441, 442, 443, 444, 445, 446, 447, 448, 449, 450, 451, 452, 453, 454, 455, 456, 457, 458, 459, 460, 461, 462, 463, 464, 465, 466, 467, 468, 469, 470, 471, 472, 473, 474, 475, 476, 477, 478, 479, 480, 481, 482, 483, 484, 485, 486, 487, 488, 489, 490, 491, 492, 493, 494, 495, 496, 497, 498, 499, 500, 501, 502, 503, 504, 505, 506, 507, 508, 509, 510, 511, 512, 513, 514, 515, 516, 517, 518, 519, 520, 521, 522, 523, 524, 525, 526, 527, 528, 529, 530, 531, 532, 533, 534, 535, 536, 537, 538, 539, 540, 541, 542, 543, 544, 545, 546, 547, 548, 549, 550, 551, 552, 553, 554, 555, 556, 557, 558, 559, 560, 561, 562, 563, 564, 565, 566, 567, 568, 569, 570, 571, 572, 573, 574, 575, 576, 577, 578, 579, 580, 581],
      "AcquisitionTime": ["162324.740000", "162325.530000", "162326.317500", "162327.105000", "162327.892500", "162328.682500", "162329.470000", "162330.257500", "162331.045000", "162331.835000", "162332.622500", "162333.410000", "162334.197500", "162334.987500", "162335.775000", "162336.562500", "162337.350000", "162338.140000", "162338.927500", "162339.715000", "162340.505000", "162341.292500", "162342.080000", "162342.867500", "162343.657500", "162344.445000", "162345.232500", "162346.020000", "162346.810000", "162347.597500", "162348.385000", "162349.172500", "162349.962500", "162350.750000", "162351.537500", "162352.325000", "162353.115000", "162353.902500", "162354.690000", "162355.477500", "162356.267500", "162357.055000", "162357.842500", "162358.632500", "162359.420000", "162400.207500", "162400.995000", "162401.785000", "162402.572500", "162403.360000", "162404.147500", "162404.937500", "162405.725000", "162406.512500", "162407.300000", "162408.090000", "162408.877500", "162409.665000", "162410.452500", "162411.242500", "162412.030000", "162412.817500", "162413.605000", "162414.395000", "162415.182500", "162415.970000", "162416.760000", "162417.547500", "162418.335000", "162419.122500", "162419.912500", "162420.700000", "162421.487500", "162422.275000", "162423.065000", "162423.852500", "162424.640000", "162425.427500", "162426.217500", "162427.005000", "162427.792500", "162428.580000", "162429.370000", "162430.157500", "162430.945000", "162431.732500", "162432.522500", "162433.310000", "162434.097500", "162434.887500", "162435.675000", "162436.462500", "162437.250000", "162438.040000", "162438.827500", "162439.615000", "162440.402500", "162441.192500", "162441.980000", "162442.767500", "162443.555000", "162444.345000", "162445.132500", "162445.920000", "162446.707500", "162447.497500", "162448.285000", "162449.072500", "162449.860000", "162450.650000", "162451.437500", "162452.225000", "162453.015000", "162453.802500", "162454.590000", "162455.377500", "162456.167500", "162456.955000", "162457.742500", "162458.530000", "162459.320000", "162500.107500", "162500.895000", "162501.682500", "162502.472500", "162503.260000", "162504.047500", "162504.835000", "162505.625000", "162506.412500", "162507.200000", "162507.987500", "162508.777500", "162509.565000", "162510.352500", "162511.142500", "162511.930000", "162512.717500", "162513.505000", "162514.295000", "162515.082500", "162515.870000", "162516.657500", "162517.447500", "162518.235000", "162519.022500", "162519.810000", "162520.600000", "162521.387500", "162522.175000", "162522.962500", "162523.752500", "162524.540000", "162525.327500", "162526.115000", "162526.905000", "162527.692500", "162528.480000", "162529.270000", "162530.057500", "162530.845000", "162531.632500", "162532.422500", "162533.210000", "162533.997500", "162534.785000", "162535.575000", "162536.362500", "162537.150000", "162537.937500", "162538.727500", "162539.515000", "162540.302500", "162541.090000", "162541.880000", "162542.667500", "162543.455000", "162544.245000", "162545.032500", "162545.820000", "162546.607500", "162547.397500", "162548.185000", "162548.972500", "162549.760000", "162550.550000", "162551.337500", "162552.125000", "162552.912500", "162553.702500", "162554.490000", "162555.277500", "162556.065000", "162556.855000", "162557.642500", "162558.430000", "162559.217500", "162600.007500", "162600.795000", "162601.582500", "162602.372500", "162603.160000", "162603.947500", "162604.735000", "162605.525000", "162606.312500", "162607.100000", "162607.887500", "162608.677500", "162609.465000", "162610.252500", "162611.040000", "162611.830000", "162612.617500", "162613.405000", "162614.192500", "162614.982500", "162615.770000", "162616.557500", "162617.345000", "162618.135000", "162618.922500", "162619.710000", "162620.500000", "162621.287500", "162622.075000", "162622.862500", "162623.652500", "162624.440000", "162625.227500", "162626.015000", "162626.805000", "162627.592500", "162628.380000", "162629.167500", "162629.957500", "162630.745000", "162631.532500", "162632.320000", "162633.110000", "162633.897500", "162634.685000", "162635.472500", "162636.262500", "162637.050000", "162637.837500", "162638.627500", "162639.415000", "162640.202500", "162640.990000", "162641.780000", "162642.567500", "162643.355000", "162644.142500", "162644.932500", "162645.720000", "162646.507500", "162647.295000", "162648.085000", "162648.872500", "162649.660000", "162650.447500", "162651.237500", "162652.025000", "162652.812500", "162653.600000", "162654.390000", "162655.177500", "162655.965000", "162656.755000", "162657.542500", "162658.330000", "162659.117500", "162659.907500", "162700.695000", "162701.482500", "162702.270000", "162703.060000", "162703.847500", "162704.635000", "162705.422500", "162706.212500", "162707.000000", "162707.787500", "162708.575000", "162709.365000", "162710.152500", "162710.940000", "162711.727500", "162712.517500", "162713.305000", "162714.092500", "162714.882500", "162715.670000", "162716.457500", "162717.245000", "162718.035000", "162718.822500", "162719.610000", "162720.397500", "162721.187500", "162721.975000", "162722.762500", "162723.550000", "162724.340000", "162725.127500", "162725.915000", "162726.702500", "162727.492500", "162728.280000", "162729.067500", "162729.855000", "162730.645000", "162731.432500", "162732.220000", "162733.010000", "162733.797500", "162734.585000", "162735.372500", "162736.162500", "162736.950000", "162737.737500", "162738.525000", "162739.315000", "162740.102500", "162740.890000", "162741.677500", "162742.467500", "162743.255000", "162744.042500", "162744.830000", "162745.620000", "162746.407500", "162747.195000", "162747.982500", "162748.772500", "162749.560000", "162750.347500", "162751.137500", "162751.925000", "162752.712500", "162753.500000", "162754.290000", "162755.077500", "162755.865000", "162756.652500", "162757.442500", "162758.230000", "162759.017500", "162759.805000", "162800.595000", "162801.382500", "162802.170000", "162802.957500", "162803.747500", "162804.535000", "162805.322500", "162806.110000", "162806.900000", "162807.687500", "162808.475000", "162809.265000", "162810.052500", "162810.840000", "162811.627500", "162812.417500", "162813.205000", "162813.992500", "162814.780000", "162815.570000", "162816.357500", "162817.145000", "162817.932500", "162818.722500", "162819.510000", "162820.297500", "162821.085000", "162821.875000", "162822.662500", "162823.450000", "162824.237500", "162825.027500", "162825.815000", "162826.602500", "162827.392500", "162828.180000", "162828.967500", "162829.755000", "162830.545000", "162831.332500", "162832.120000", "162832.907500", "162833.697500", "162834.485000", "162835.272500", "162836.060000", "162836.850000", "162837.637500", "162838.425000", "162839.212500", "162840.002500", "162840.790000", "162841.577500", "162842.365000", "162843.155000", "162843.942500", "162844.730000", "162845.520000", "162846.307500", "162847.095000", "162847.882500", "162848.672500", "162849.460000", "162850.247500", "162851.035000", "162851.825000", "162852.612500", "162853.400000", "162854.187500", "162854.977500", "162855.765000", "162856.552500", "162857.340000", "162858.130000", "162858.917500", "162859.705000", "162900.495000", "162901.282500", "162902.070000", "162902.857500", "162903.647500", "162904.435000", "162905.222500", "162906.010000", "162906.800000", "162907.587500", "162908.375000", "162909.162500", "162909.952500", "162910.740000", "162911.527500", "162912.315000", "162913.105000", "162913.892500", "162914.680000", "162915.467500", "162916.257500", "162917.045000", "162917.832500", "162918.622500", "162919.410000", "162920.197500", "162920.985000", "162921.775000", "162922.562500", "162923.350000", "162924.137500", "162924.927500", "162925.715000", "162926.502500", "162927.290000", "162928.080000", "162928.867500", "162929.655000", "162930.442500", "162931.232500", "162932.020000", "162932.807500", "162933.595000", "162934.385000", "162935.172500", "162935.960000", "162936.750000", "162937.537500", "162938.325000", "162939.112500", "162939.902500", "162940.690000", "162941.477500", "162942.265000", "162943.055000", "162943.842500", "162944.630000", "162945.417500", "162946.207500", "162946.995000", "162947.782500", "162948.570000", "162949.360000", "162950.147500", "162950.935000", "162951.722500", "162952.512500", "162953.300000", "162954.087500", "162954.877500", "162955.665000", "162956.452500", "162957.240000", "162958.030000", "162958.817500", "162959.605000", "163000.392500", "163001.182500", "163001.970000", "163002.757500", "163003.545000", "163004.335000", "163005.122500", "163005.910000", "163006.697500", "163007.487500", "163008.275000", "163009.062500", "163009.850000", "163010.640000", "163011.427500", "163012.215000", "163013.005000", "163013.792500", "163014.580000", "163015.367500", "163016.157500", "163016.945000", "163017.732500", "163018.520000", "163019.310000", "163020.097500", "163020.885000", "163021.672500", "163022.462500", "163023.250000", "163024.037500", "163024.825000", "163025.615000", "163026.402500", "163027.190000", "163027.977500", "163028.767500", "163029.555000", "163030.342500", "163031.132500", "163031.920000", "163032.707500", "163033.495000", "163034.285000", "163035.072500", "163035.860000", "163036.647500", "163037.437500", "163038.225000", "163039.012500", "163039.800000", "163040.590000", "163041.377500", "163042.165000", "163042.952500", "163043.742500", "163044.530000", "163045.317500", "163046.105000", "163046.895000", "163047.682500", "163048.470000", "163049.260000", "163050.047500", "163050.835000", "163051.622500", "163052.412500", "163053.200000", "163053.987500", "163054.775000", "163055.565000", "163056.352500", "163057.140000", "163057.927500", "163058.717500", "163059.505000", "163100.292500", "163101.080000", "163101.870000"],
      "ContentTime": ["175756.718000", "175756.718000", "175756.718000", "175756.734000", "175756.734000", "175756.734000", "175756.734000", "175756.734000", "175856.703000", "175856.703000", "175856.703000", "175856.703000", "175856.703000", "175856.703000", "175856.703000", "175856.718000", "175856.718000", "175856.718000", "175856.718000", "175856.718000", "175856.718000", "175856.718000", "175856.734000", "175856.734000", "175856.734000", "175856.734000", "175856.734000", "175856.734000", "175856.734000", "175856.750000", "175856.750000", "175856.750000", "175856.750000", "175856.750000", "175856.750000", "175856.750000", "175856.765000", "175956.703000", "175956.703000", "175956.703000", "175956.703000", "175956.703000", "175956.703000", "175956.703000", "175956.718000", "175956.718000", "175956.718000", "175956.718000", "175956.718000", "175956.718000", "175956.718000", "175956.734000", "175956.734000", "175956.734000", "175956.734000", "175956.734000", "175956.734000", "175956.734000", "175956.750000", "175956.750000", "175956.750000", "175956.750000", "175956.750000", "175956.750000", "175956.750000", "180056.703000", "180056.703000", "180056.703000", "180056.703000", "180056.703000", "180056.703000", "180056.703000", "180056.718000", "180056.718000", "180056.718000", "180056.718000", "180056.718000", "180056.718000", "180056.718000", "180056.734000", "180056.734000", "180056.734000", "180056.734000", "180056.734000", "180056.734000", "180056.734000", "180056.750000", "180056.750000", "180056.750000", "180056.750000", "180056.750000", "180056.750000", "180056.750000", "180156.703000", "180156.703000", "180156.703000", "180156.703000", "180156.703000", "180156.703000", "180156.703000", "180156.718000", "180156.718000", "180156.718000", "180156.718000", "180156.718000", "180156.718000", "180156.718000", "180156.734000", "180156.734000", "180156.734000", "180156.734000", "180156.734000", "180156.734000", "180156.734000", "180156.750000", "180156.750000", "180156.750000", "180156.750000", "180156.750000", "180156.750000", "180156.750000", "180256.703000", "180256.703000", "180256.703000", "180256.703000", "180256.703000", "180256.703000", "180256.703000", "180256.718000", "180256.718000", "180256.718000", "180256.718000", "180256.718000", "180256.718000", "180256.718000", "180256.734000", "180256.734000", "180256.734000", "180256.734000", "180256.734000", "180256.734000", "180256.734000", "180256.750000", "180256.750000", "180256.750000", "180256.750000", "180256.750000", "180256.750000", "180256.750000", "180316.703000", "180316.703000", "180316.703000", "180316.703000", "180316.703000", "180316.703000", "180316.703000", "180316.718000", "180316.718000", "180316.718000", "180416.703000", "180416.703000", "180416.703000", "180416.703000", "180416.703000", "180416.703000", "180416.703000", "180416.718000", "180416.718000", "180416.718000", "180416.718000", "180416.718000", "180416.718000", "180416.734000", "180416.734000", "180416.734000", "180416.734000", "180416.734000", "180416.734000", "180416.734000", "180416.750000", "180416.750000", "180416.750000", "180416.750000", "180416.750000", "180416.750000", "180416.750000", "180416.765000", "180516.703000", "180516.703000", "180516.703000", "180516.703000", "180516.703000", "180516.703000", "180516.703000", "180516.718000", "180516.718000", "180516.718000", "180516.718000", "180516.718000", "180516.718000", "180516.718000", "180516.734000", "180516.734000", "180516.734000", "180516.734000", "180516.734000", "180516.734000", "180516.734000", "180516.750000", "180516.750000", "180516.750000", "180516.750000", "180516.750000", "180516.750000", "180516.765000", "180616.703000", "180616.703000", "180616.703000", "180616.703000", "180616.703000", "180616.703000", "180616.703000", "180616.718000", "180616.718000", "180616.718000", "180616.718000", "180616.718000", "180616.718000", "180616.718000", "180616.734000", "180616.734000", "180616.734000", "180616.734000", "180616.734000", "180616.734000", "180616.734000", "180616.750000", "180616.750000", "180616.750000", "180616.750000", "180616.750000", "180616.750000", "180616.750000", "180716.703000", "180716.703000", "180716.703000", "180716.703000", "180716.703000", "180716.703000", "180716.703000", "180716.718000", "180716.718000", "180716.718000", "180716.718000", "180716.718000", "180716.718000", "180716.718000", "180716.734000", "180716.734000", "180716.734000", "180716.734000", "180716.734000", "180716.734000", "180716.734000", "180716.750000", "180716.750000", "180716.750000", "180716.750000", "180716.750000", "180716.750000", "180716.750000", "180816.703000", "180816.703000", "180816.703000", "180816.703000", "180816.703000", "180816.703000", "180816.703000", "180816.718000", "180816.718000", "180816.718000", "180816.718000", "180816.718000", "180816.718000", "180816.718000", "180816.734000", "180816.734000", "180816.734000", "180816.734000", "180816.734000", "180816.750000", "180816.750000", "180816.750000", "180816.750000", "180816.750000", "180816.750000", "180816.750000", "180816.765000", "180816.765000", "180916.703000", "180916.703000", "180916.703000", "180916.703000", "180916.703000", "180916.703000", "180916.718000", "180916.718000", "180916.718000", "180916.718000", "180916.718000", "180916.718000", "180916.718000", "180916.734000", "180916.734000", "180916.734000", "180916.734000", "180916.734000", "180916.750000", "180916.750000", "180916.750000", "180916.750000", "180916.750000", "180916.750000", "180916.750000", "180916.765000", "180916.765000", "180916.765000", "181016.703000", "181016.703000", "181016.703000", "181016.703000", "181016.703000", "181016.703000", "181016.718000", "181016.718000", "181016.718000", "181016.718000", "181016.718000", "181016.718000", "181016.718000", "181016.734000", "181016.734000", "181016.734000", "181016.734000", "181016.734000", "181016.734000", "181016.734000", "181016.750000", "181016.750000", "181016.750000", "181016.750000", "181016.750000", "181016.750000", "181016.750000", "181016.765000", "181116.703000", "181116.703000", "181116.703000", "181116.703000", "181116.703000", "181116.703000", "181116.703000", "181116.718000", "181116.718000", "181116.718000", "181116.718000", "181116.718000", "181116.718000", "181116.718000", "181116.734000", "181116.734000", "181116.734000", "181116.734000", "181116.734000", "181116.734000", "181116.750000", "181116.750000", "181116.750000", "181116.750000", "181116.750000", "181116.750000", "181116.765000", "181116.765000", "181116.765000", "181216.703000", "181216.703000", "181216.703000", "181216.703000", "181216.703000", "181216.703000", "181216.703000", "181216.718000", "181216.718000", "181216.718000", "181216.718000", "181216.718000", "181216.718000", "181216.718000", "181216.734000", "181216.734000", "181216.734000", "181216.734000", "181216.734000", "181216.734000", "181216.734000", "181216.750000", "181216.750000", "181216.750000", "181216.750000", "181216.750000", "181216.750000", "181216.750000", "181316.703000", "181316.703000", "181316.703000", "181316.703000", "181316.703000", "181316.703000", "181316.703000", "181316.718000", "181316.718000", "181316.718000", "181316.718000", "181316.718000", "181316.718000", "181316.734000", "181316.734000", "181316.734000", "181316.734000", "181316.734000", "181316.734000", "181316.734000", "181316.750000", "181316.750000", "181316.750000", "181316.750000", "181316.750000", "181316.750000", "181316.750000", "181316.765000", "181336.703000", "181336.703000", "181336.703000", "181336.703000", "181336.703000", "181336.703000", "181336.703000", "181336.718000", "181336.718000", "181436.703000", "181436.703000", "181436.703000", "181436.703000", "181436.703000", "181436.703000", "181436.703000", "181436.718000", "181436.718000", "181436.718000", "181436.718000", "181436.718000", "181436.718000", "181436.718000", "181436.734000", "181436.734000", "181436.734000", "181436.734000", "181436.734000", "181436.734000", "181436.734000", "181436.750000", "181436.750000", "181436.750000", "181436.750000", "181436.765000", "181436.765000", "181436.765000", "181436.765000", "181536.703000", "181536.703000", "181536.703000", "181536.703000", "181536.703000", "181536.703000", "181536.703000", "181536.718000", "181536.718000", "181536.718000", "181536.718000", "181536.718000", "181536.718000", "181536.718000", "181536.734000", "181536.734000", "181536.734000", "181536.734000", "181536.734000", "181536.734000", "181536.734000", "181536.750000", "181536.750000", "181536.750000", "181536.750000", "181536.765000", "181536.765000", "181536.765000", "181636.703000", "181636.703000", "181636.703000", "181636.703000", "181636.703000", "181636.703000", "181636.703000", "181636.718000", "181636.718000", "181636.718000", "181636.718000", "181636.718000", "181636.718000", "181636.718000", "181636.734000", "181636.734000", "181636.734000", "181636.734000", "181636.734000", "181636.734000", "181636.734000", "181636.750000", "181636.750000", "181636.750000", "181636.750000", "181636.750000", "181636.750000", "181636.750000", "181736.703000", "181736.703000", "181736.703000", "181736.703000", "181736.703000", "181736.703000", "181736.718000", "181736.718000", "181736.718000", "181736.718000", "181736.718000", "181736.718000", "181736.734000", "181736.734000", "181736.734000", "181736.734000", "181736.734000", "181736.734000", "181736.734000", "181736.750000", "181736.750000", "181736.750000", "181736.750000", "181736.750000", "181736.765000", "181736.765000", "181736.765000", "181736.765000", "181815.968000", "181815.984000", "181815.984000", "181815.984000", "181815.984000", "181815.984000", "181815.984000", "181815.984000", "181816.000000", "181816.000000", "181816.000000", "181816.000000", "181816.000000", "181816.000000", "181816.015000", "181816.015000", "181816.015000", "181816.015000", "181816.015000"],
      "DataSetTrailingPadding": [
        "\u0000\u0000\u0000\u0000\u0000\u0000\u0000\u0000\u0000\u0000\u0000\u0000\u0000\u0000\u0000\u0000\u0000\u0000\u0000\u0000\u0000\u0000\u0000\u0000\u0000\u0000\u0000\u0000\u0000\u0000\u0000\u0000\u0000\u0000\u0000\u0000\u0000\u0000\u0000\u0000\u0000\u0000\u0000\u0000\u0000\u0000\u0000\u0000\u0000\u0000\u0000\u0000\u0000\u0000\u0000\u0000\u0000\u0000\u0000\u0000\u0000\u0000",
        "\u0000\u0000\u0000\u0000\u0000\u0000\u0000\u0000\u0000\u0000\u0000\u0000\u0000\u0000\u0000\u0000\u0000\u0000\u0000\u0000\u0000\u0000\u0000\u0000\u0000\u0000\u0000\u0000\u0000\u0000\u0000\u0000\u0000\u0000\u0000\u0000\u0000\u0000\u0000\u0000\u0000\u0000\u0000\u0000\u0000\u0000\u0000\u0000\u0000\u0000\u0000\u0000\u0000\u0000\u0000\u0000\u0000\u0000\u0000\u0000\u0000\u0000\u0000\u0000",
        "\u0000\u0000\u0000\u0000\u0000\u0000\u0000\u0000\u0000\u0000\u0000\u0000\u0000\u0000\u0000\u0000\u0000\u0000\u0000\u0000\u0000\u0000\u0000\u0000\u0000\u0000\u0000\u0000\u0000\u0000\u0000\u0000\u0000\u0000\u0000\u0000\u0000\u0000\u0000\u0000\u0000\u0000\u0000\u0000\u0000\u0000\u0000\u0000\u0000\u0000\u0000\u0000\u0000\u0000\u0000\u0000\u0000\u0000\u0000\u0000\u0000\u0000",
        "\u0000\u0000\u0000\u0000\u0000\u0000\u0000\u0000\u0000\u0000\u0000\u0000\u0000\u0000\u0000\u0000\u0000\u0000\u0000\u0000\u0000\u0000\u0000\u0000\u0000\u0000\u0000\u0000\u0000\u0000\u0000\u0000\u0000\u0000\u0000\u0000\u0000\u0000\u0000\u0000\u0000\u0000\u0000\u0000\u0000\u0000\u0000\u0000\u0000\u0000\u0000\u0000\u0000\u0000\u0000\u0000\u0000\u0000\u0000\u0000",
        "\u0000\u0000\u0000\u0000\u0000\u0000\u0000\u0000\u0000\u0000\u0000\u0000\u0000\u0000\u0000\u0000\u0000\u0000\u0000\u0000\u0000\u0000\u0000\u0000\u0000\u0000\u0000\u0000\u0000\u0000\u0000\u0000\u0000\u0000\u0000\u0000\u0000\u0000\u0000\u0000\u0000\u0000\u0000\u0000\u0000\u0000\u0000\u0000\u0000\u0000\u0000\u0000\u0000\u0000\u0000\u0000\u0000\u0000\u0000\u0000\u0000\u0000",
