{
  "AcquisitionMatrixPE": 104,
  "AcquisitionNumber": 1,
  "AcquisitionTime": "16:31:32.857500",
  "BandwidthPerPixelPhaseEncode": 13.935,
  "BaseResolution": 104,
  "CoilString": "C:HEA;HEP",
  "ConversionSoftware": "dcm2niix",
  "ConversionSoftwareVersion": "v1.0.20210317",
  "DerivedVendorReportedEchoSpacing": 0.000690017,
  "DeviceSerialNumber": "35450",
  "DwellTime": 2.5e-06,
  "EchoTime": 0.0348,
  "EffectiveEchoSpacing": 0.000690017,
  "FlipAngle": 55,
  "ImageComments": "Unaliased MB8/PE3",
  "ImageOrientationPatientDICOM": [0.999392, 0.000913672, -0.0348569, -2.24809e-08, 0.999657, 0.0262024],
  "ImageType": [
    "ORIGINAL",
    "PRIMARY",
    "M",
    "MB",
    "ND",
    "MOSAIC"
],
  "ImagingFrequency": 123.234,
  "InPlanePhaseEncodingDirectionDICOM": "COL",
  "InstitutionAddress": "Univeristy Ave. 197,Newark,North East,US,07102-1814",
  "InstitutionName": "RUBIC",
  "InstitutionalDepartmentName": "Department",
  "MRAcquisitionType": "2D",
  "MagneticFieldStrength": 3,
  "Manufacturer": "Siemens",
  "ManufacturersModelName": "TrioTim",
  "Modality": "MR",
  "MultibandAccelerationFactor": 8,
  "PartialFourier": 0.875,
  "PatientPosition": "HFS",
  "PercentPhaseFOV": 100,
  "PercentSampling": 100,
  "PhaseEncodingDirection": "j-",
  "PhaseEncodingSteps": 91,
  "PhaseResolution": 1,
  "PixelBandwidth": 1923,
  "ProcedureStepDescription": "Cole^Michael",
  "ProtocolName": "cmrr_mbep2d_bold_2mm_MB8_Task_8x",
  "PulseSequenceDetails": "%CustomerSeq%\\cmrr_mbep2d_bold",
  "ReceiveCoilName": "32Ch_Head",
  "ReconMatrixPE": 104,
  "RepetitionTime": 0.785,
  "SAR": 0.101925,
  "ScanOptions": "PFP\\FS",
  "ScanningSequence": "EP",
  "SequenceName": "epfid2d1_104",
  "SequenceVariant": "SK\\SS",
  "SeriesDescription": "cmrr_mbep2d_bold_2mm_MB8_Task_8x",
  "SeriesNumber": 25,
  "ShimSetting": [2118, -479, -7282, 508, 39, -90, -25, 7],
  "SliceThickness": 2,
  "SliceTiming": [0, 0.4375, 0.0875, 0.525, 0.175, 0.6125, 0.2625, 0.7, 0.35, 0, 0.4375, 0.0875, 0.525, 0.175, 0.6125, 0.2625, 0.7, 0.35, 0, 0.4375, 0.0875, 0.525, 0.175, 0.6125, 0.2625, 0.7, 0.35, 0, 0.4375, 0.0875, 0.525, 0.175, 0.6125, 0.2625, 0.7, 0.35, 0, 0.4375, 0.0875, 0.525, 0.175, 0.6125, 0.2625, 0.7, 0.35, 0, 0.4375, 0.0875, 0.525, 0.175, 0.6125, 0.2625, 0.7, 0.35, 0, 0.4375, 0.0875, 0.525, 0.175, 0.6125, 0.2625, 0.7, 0.35, 0, 0.4375, 0.0875, 0.525, 0.175, 0.6125, 0.2625, 0.7, 0.35],
  "SoftwareVersions": "syngo MR B19",
  "SpacingBetweenSlices": 2,
  "StationName": "MRC35450",
  "TaskName": "cpro",
  "TotalReadoutTime": 0.0710717,
  "TxRefAmp": 320.915,
  "dcmmeta_affine": [
    [-1.998783826828003, -4.496189021097052e-08, -0.06973776966333389, 103.71644592285156],
    [-0.0018273447640240192, 1.9993133544921875, 0.0523730143904686, -89.49043273925781],
    [-0.06971382349729538, -0.05240488424897194, 1.998097538948059, -82.93943786621094],
    [0.0, 0.0, 0.0, 1.0]
],
  "dcmmeta_reorient_transform": [
    [0.0, -1.0, 0.0, 103.0],
    [1.0, 0.0, 0.0, 0.0],
    [0.0, 0.0, 1.0, 0.0],
    [0.0, 0.0, 0.0, 1.0]
],
  "dcmmeta_shape": [104, 104, 72, 581],
  "dcmmeta_slice_dim": 2,
  "dcmmeta_version": 0.6,
  "global": {
    "const": {
      "AcquisitionMatrix": [104, 0, 0, 104],
      "AngioFlag": "N",
      "BitsAllocated": 16,
      "BitsStored": 12,
      "Columns": 936,
      "EchoNumbers": 1,
      "EchoTime": 34.8,
      "EchoTrainLength": 1,
      "FlipAngle": 55.0,
      "HighBit": 11,
      "ImageOrientationPatient": [0.99939189556644, 0.00091367238411, -0.0348569114939, -2.2480945e-08, 0.99965665706529, 0.02620244234897],
      "ImagePositionPatient": [-935.21048190906, -948.91335164193, -81.136622385695],
      "ImageType": [
        "ORIGINAL",
        "PRIMARY",
        "M",
        "MB",
        "ND",
        "MOSAIC"
],
      "ImagedNucleus": "1H",
      "ImagingFrequency": 123.23444,
      "InPlanePhaseEncodingDirection": "COL",
      "MRAcquisitionType": "2D",
      "MagneticFieldStrength": 3.0,
      "Manufacturer": "SIEMENS",
      "ManufacturerModelName": "TrioTim",
      "Modality": "MR",
      "NumberOfAverages": 1.0,
      "NumberOfPhaseEncodingSteps": 91,
      "PercentPhaseFieldOfView": 100.0,
      "PercentSampling": 100.0,
      "PerformedProcedureStepStartTime": "143528.906000",
      "PhotometricInterpretation": "MONOCHROME2",
      "PixelBandwidth": 1923.0,
      "PixelRepresentation": 0,
      "PixelSpacing": [2.0, 2.0],
      "ProtocolName": "cmrr_mbep2d_bold_2mm_MB8_Task_8x",
      "RepetitionTime": 785.0,
      "Rows": 936,
      "SAR": 0.10192484617951,
      "SamplesPerPixel": 1,
      "ScanOptions": [
        "PFP",
        "FS"
],
      "ScanningSequence": "EP",
      "SequenceName": "epfid2d1_104",
      "SequenceVariant": [
        "SK",
        "SS"
],
      "SeriesDescription": "cmrr_mbep2d_bold_2mm_MB8_Task_8x",
      "SeriesNumber": 25,
      "SeriesTime": "181844.062000",
      "SliceLocation": -88.820461143254,
      "SliceThickness": 2.0,
      "SmallestImagePixelValue": 0,
      "SoftwareVersions": "syngo MR B19",
      "SpacingBetweenSlices": 2.0000000176702,
      "SpecificCharacterSet": "ISO_IR 100",
      "StudyID": "1",
      "StudyTime": "143528.828000",
      "TransmitCoilName": "Body",
      "VariableFlipAngleFlag": "N",
      "WindowCenterWidthExplanation": "Algo1",
      "dBdt": 0.0},
    "slices": {}
  },
  "time": {
    "samples": {
      "AcquisitionNumber": [1, 2, 3, 4, 5, 6, 7, 8, 9, 10, 11, 12, 13, 14, 15, 16, 17, 18, 19, 20, 21, 22, 23, 24, 25, 26, 27, 28, 29, 30, 31, 32, 33, 34, 35, 36, 37, 38, 39, 40, 41, 42, 43, 44, 45, 46, 47, 48, 49, 50, 51, 52, 53, 54, 55, 56, 57, 58, 59, 60, 61, 62, 63, 64, 65, 66, 67, 68, 69, 70, 71, 72, 73, 74, 75, 76, 77, 78, 79, 80, 81, 82, 83, 84, 85, 86, 87, 88, 89, 90, 91, 92, 93, 94, 95, 96, 97, 98, 99, 100, 101, 102, 103, 104, 105, 106, 107, 108, 109, 110, 111, 112, 113, 114, 115, 116, 117, 118, 119, 120, 121, 122, 123, 124, 125, 126, 127, 128, 129, 130, 131, 132, 133, 134, 135, 136, 137, 138, 139, 140, 141, 142, 143, 144, 145, 146, 147, 148, 149, 150, 151, 152, 153, 154, 155, 156, 157, 158, 159, 160, 161, 162, 163, 164, 165, 166, 167, 168, 169, 170, 171, 172, 173, 174, 175, 176, 177, 178, 179, 180, 181, 182, 183, 184, 185, 186, 187, 188, 189, 190, 191, 192, 193, 194, 195, 196, 197, 198, 199, 200, 201, 202, 203, 204, 205, 206, 207, 208, 209, 210, 211, 212, 213, 214, 215, 216, 217, 218, 219, 220, 221, 222, 223, 224, 225, 226, 227, 228, 229, 230, 231, 232, 233, 234, 235, 236, 237, 238, 239, 240, 241, 242, 243, 244, 245, 246, 247, 248, 249, 250, 251, 252, 253, 254, 255, 256, 257, 258, 259, 260, 261, 262, 263, 264, 265, 266, 267, 268, 269, 270, 271, 272, 273, 274, 275, 276, 277, 278, 279, 280, 281, 282, 283, 284, 285, 286, 287, 288, 289, 290, 291, 292, 293, 294, 295, 296, 297, 298, 299, 300, 301, 302, 303, 304, 305, 306, 307, 308, 309, 310, 311, 312, 313, 314, 315, 316, 317, 318, 319, 320, 321, 322, 323, 324, 325, 326, 327, 328, 329, 330, 331, 332, 333, 334, 335, 336, 337, 338, 339, 340, 341, 342, 343, 344, 345, 346, 347, 348, 349, 350, 351, 352, 353, 354, 355, 356, 357, 358, 359, 360, 361, 362, 363, 364, 365, 366, 367, 368, 369, 370, 371, 372, 373, 374, 375, 376, 377, 378, 379, 380, 381, 382, 383, 384, 385, 386, 387, 388, 389, 390, 391, 392, 393, 394, 395, 396, 397, 398, 399, 400, 401, 402, 403, 404, 405, 406, 407, 408, 409, 410, 411, 412, 413, 414, 415, 416, 417, 418, 419, 420, 421, 422, 423, 424, 425, 426, 427, 428, 429, 430, 431, 432, 433, 434, 435, 436, 437, 438, 439, 440, 441, 442, 443, 444, 445, 446, 447, 448, 449, 450, 451, 452, 453, 454, 455, 456, 457, 458, 459, 460, 461, 462, 463, 464, 465, 466, 467, 468, 469, 470, 471, 472, 473, 474, 475, 476, 477, 478, 479, 480, 481, 482, 483, 484, 485, 486, 487, 488, 489, 490, 491, 492, 493, 494, 495, 496, 497, 498, 499, 500, 501, 502, 503, 504, 505, 506, 507, 508, 509, 510, 511, 512, 513, 514, 515, 516, 517, 518, 519, 520, 521, 522, 523, 524, 525, 526, 527, 528, 529, 530, 531, 532, 533, 534, 535, 536, 537, 538, 539, 540, 541, 542, 543, 544, 545, 546, 547, 548, 549, 550, 551, 552, 553, 554, 555, 556, 557, 558, 559, 560, 561, 562, 563, 564, 565, 566, 567, 568, 569, 570, 571, 572, 573, 574, 575, 576, 577, 578, 579, 580, 581],
      "AcquisitionTime": ["163132.857500", "163133.647500", "163134.435000", "163135.222500", "163136.010000", "163136.800000", "163137.587500", "163138.375000", "163139.162500", "163139.952500", "163140.740000", "163141.527500", "163142.315000", "163143.105000", "163143.892500", "163144.680000", "163145.470000", "163146.257500", "163147.045000", "163147.832500", "163148.622500", "163149.410000", "163150.197500", "163150.985000", "163151.775000", "163152.562500", "163153.350000", "163154.137500", "163154.927500", "163155.715000", "163156.502500", "163157.290000", "163158.080000", "163158.867500", "163159.655000", "163200.442500", "163201.232500", "163202.020000", "163202.807500", "163203.597500", "163204.385000", "163205.172500", "163205.960000", "163206.750000", "163207.537500", "163208.325000", "163209.112500", "163209.902500", "163210.690000", "163211.477500", "163212.265000", "163213.055000", "163213.842500", "163214.630000", "163215.417500", "163216.207500", "163216.995000", "163217.782500", "163218.570000", "163219.360000", "163220.147500", "163220.935000", "163221.725000", "163222.512500", "163223.300000", "163224.087500", "163224.877500", "163225.665000", "163226.452500", "163227.240000", "163228.030000", "163228.817500", "163229.605000", "163230.392500", "163231.182500", "163231.970000", "163232.757500", "163233.545000", "163234.335000", "163235.122500", "163235.910000", "163236.700000", "163237.487500", "163238.275000", "163239.062500", "163239.852500", "163240.640000", "163241.427500", "163242.215000", "163243.005000", "163243.792500", "163244.580000", "163245.367500", "163246.157500", "163246.945000", "163247.732500", "163248.520000", "163249.310000", "163250.097500", "163250.885000", "163251.672500", "163252.462500", "163253.250000", "163254.037500", "163254.827500", "163255.615000", "163256.402500", "163257.190000", "163257.980000", "163258.767500", "163259.555000", "163300.342500", "163301.132500", "163301.920000", "163302.707500", "163303.495000", "163304.285000", "163305.072500", "163305.860000", "163306.647500", "163307.437500", "163308.225000", "163309.012500", "163309.800000", "163310.590000", "163311.377500", "163312.165000", "163312.955000", "163313.742500", "163314.530000", "163315.317500", "163316.107500", "163316.895000", "163317.682500", "163318.470000", "163319.260000", "163320.047500", "163320.835000", "163321.622500", "163322.412500", "163323.200000", "163323.987500", "163324.775000", "163325.565000", "163326.352500", "163327.140000", "163327.927500", "163328.717500", "163329.505000", "163330.292500", "163331.082500", "163331.870000", "163332.657500", "163333.445000", "163334.235000", "163335.022500", "163335.810000", "163336.597500", "163337.387500", "163338.175000", "163338.962500", "163339.750000", "163340.540000", "163341.327500", "163342.115000", "163342.902500", "163343.692500", "163344.480000", "163345.267500", "163346.055000", "163346.845000", "163347.632500", "163348.420000", "163349.210000", "163349.997500", "163350.785000", "163351.572500", "163352.362500", "163353.150000", "163353.937500", "163354.725000", "163355.515000", "163356.302500", "163357.090000", "163357.877500", "163358.667500", "163359.455000", "163400.242500", "163401.030000", "163401.820000", "163402.607500", "163403.395000", "163404.182500", "163404.972500", "163405.760000", "163406.547500", "163407.337500", "163408.125000", "163408.912500", "163409.700000", "163410.490000", "163411.277500", "163412.065000", "163412.852500", "163413.642500", "163414.430000", "163415.217500", "163416.005000", "163416.795000", "163417.582500", "163418.370000", "163419.157500", "163419.947500", "163420.735000", "163421.522500", "163422.310000", "163423.100000", "163423.887500", "163424.675000", "163425.465000", "163426.252500", "163427.040000", "163427.827500", "163428.617500", "163429.405000", "163430.192500", "163430.980000", "163431.770000", "163432.557500", "163433.345000", "163434.132500", "163434.922500", "163435.710000", "163436.497500", "163437.285000", "163438.075000", "163438.862500", "163439.650000", "163440.437500", "163441.227500", "163442.015000", "163442.802500", "163443.592500", "163444.380000", "163445.167500", "163445.955000", "163446.745000", "163447.532500", "163448.320000", "163449.107500", "163449.897500", "163450.685000", "163451.472500", "163452.260000", "163453.050000", "163453.837500", "163454.625000", "163455.412500", "163456.202500", "163456.990000", "163457.777500", "163458.565000", "163459.355000", "163500.142500", "163500.930000", "163501.720000", "163502.507500", "163503.295000", "163504.082500", "163504.872500", "163505.660000", "163506.447500", "163507.235000", "163508.025000", "163508.812500", "163509.600000", "163510.387500", "163511.177500", "163511.965000", "163512.752500", "163513.540000", "163514.330000", "163515.117500", "163515.905000", "163516.692500", "163517.482500", "163518.270000", "163519.057500", "163519.847500", "163520.635000", "163521.422500", "163522.210000", "163523.000000", "163523.787500", "163524.575000", "163525.362500", "163526.152500", "163526.940000", "163527.727500", "163528.515000", "163529.305000", "163530.092500", "163530.880000", "163531.667500", "163532.457500", "163533.245000", "163534.032500", "163534.820000", "163535.610000", "163536.397500", "163537.185000", "163537.975000", "163538.762500", "163539.550000", "163540.337500", "163541.127500", "163541.915000", "163542.702500", "163543.490000", "163544.280000", "163545.067500", "163545.855000", "163546.642500", "163547.432500", "163548.220000", "163549.007500", "163549.795000", "163550.585000", "163551.372500", "163552.160000", "163552.950000", "163553.737500", "163554.525000", "163555.312500", "163556.102500", "163556.890000", "163557.677500", "163558.465000", "163559.255000", "163600.042500", "163600.830000", "163601.617500", "163602.407500", "163603.195000", "163603.982500", "163604.770000", "163605.560000", "163606.347500", "163607.135000", "163607.922500", "163608.712500", "163609.500000", "163610.287500", "163611.077500", "163611.865000", "163612.652500", "163613.440000", "163614.230000", "163615.017500", "163615.805000", "163616.592500", "163617.382500", "163618.170000", "163618.957500", "163619.745000", "163620.535000", "163621.322500", "163622.110000", "163622.897500", "163623.687500", "163624.475000", "163625.262500", "163626.050000", "163626.840000", "163627.627500", "163628.415000", "163629.205000", "163629.992500", "163630.780000", "163631.567500", "163632.357500", "163633.145000", "163633.932500", "163634.720000", "163635.510000", "163636.297500", "163637.085000", "163637.872500", "163638.662500", "163639.450000", "163640.237500", "163641.025000", "163641.815000", "163642.602500", "163643.390000", "163644.177500", "163644.967500", "163645.755000", "163646.542500", "163647.332500", "163648.120000", "163648.907500", "163649.695000", "163650.485000", "163651.272500", "163652.060000", "163652.847500", "163653.637500", "163654.425000", "163655.212500", "163656.000000", "163656.790000", "163657.577500", "163658.365000", "163659.152500", "163659.942500", "163700.730000", "163701.517500", "163702.305000", "163703.095000", "163703.882500", "163704.670000", "163705.460000", "163706.247500", "163707.035000", "163707.822500", "163708.612500", "163709.400000", "163710.187500", "163710.975000", "163711.765000", "163712.552500", "163713.340000", "163714.127500", "163714.917500", "163715.705000", "163716.492500", "163717.280000", "163718.070000", "163718.857500", "163719.645000", "163720.432500", "163721.222500", "163722.010000", "163722.797500", "163723.587500", "163724.375000", "163725.162500", "163725.950000", "163726.740000", "163727.527500", "163728.315000", "163729.102500", "163729.892500", "163730.680000", "163731.467500", "163732.255000", "163733.045000", "163733.832500", "163734.620000", "163735.407500", "163736.197500", "163736.985000", "163737.772500", "163738.560000", "163739.350000", "163740.137500", "163740.925000", "163741.715000", "163742.502500", "163743.290000", "163744.077500", "163744.867500", "163745.655000", "163746.442500", "163747.230000", "163748.020000", "163748.807500", "163749.595000", "163750.382500", "163751.172500", "163751.960000", "163752.747500", "163753.535000", "163754.325000", "163755.112500", "163755.900000", "163756.687500", "163757.477500", "163758.265000", "163759.052500", "163759.842500", "163800.630000", "163801.417500", "163802.205000", "163802.995000", "163803.782500", "163804.570000", "163805.357500", "163806.147500", "163806.935000", "163807.722500", "163808.510000", "163809.300000", "163810.087500", "163810.875000", "163811.662500", "163812.452500", "163813.240000", "163814.027500", "163814.815000", "163815.605000", "163816.392500", "163817.180000", "163817.970000", "163818.757500", "163819.545000", "163820.332500", "163821.122500", "163821.910000", "163822.697500", "163823.485000", "163824.275000", "163825.062500", "163825.850000", "163826.637500", "163827.427500", "163828.215000", "163829.002500", "163829.790000", "163830.580000", "163831.367500", "163832.155000", "163832.942500", "163833.732500", "163834.520000", "163835.307500", "163836.097500", "163836.885000", "163837.672500", "163838.460000", "163839.250000", "163840.037500", "163840.825000", "163841.612500", "163842.402500", "163843.190000", "163843.977500", "163844.765000", "163845.555000", "163846.342500", "163847.130000", "163847.917500", "163848.707500", "163849.495000", "163850.282500", "163851.070000", "163851.860000", "163852.647500", "163853.435000", "163854.225000", "163855.012500", "163855.800000", "163856.587500", "163857.377500", "163858.165000", "163858.952500", "163859.740000", "163900.530000", "163901.317500", "163902.105000", "163902.892500", "163903.682500", "163904.470000", "163905.257500", "163906.045000", "163906.835000", "163907.622500", "163908.410000", "163909.200000", "163909.987500"],
      "ContentTime": ["181844.062000", "181844.062000", "181844.062000", "181844.062000", "181844.078000", "181944.046000", "181944.046000", "181944.046000", "181944.046000", "181944.046000", "181944.046000", "181944.046000", "181944.062000", "181944.062000", "181944.062000", "181944.062000", "181944.062000", "181944.062000", "181944.078000", "181944.078000", "181944.078000", "181944.078000", "181944.078000", "181944.078000", "181944.078000", "181944.093000", "181944.093000", "181944.093000", "181944.093000", "181944.093000", "181944.093000", "181944.093000", "181944.109000", "181944.109000", "182044.046000", "182044.046000", "182044.046000", "182044.046000", "182044.062000", "182044.062000", "182044.062000", "182044.062000", "182044.062000", "182044.078000", "182044.078000", "182044.078000", "182044.078000", "182044.078000", "182044.078000", "182044.078000", "182044.093000", "182044.093000", "182044.093000", "182044.093000", "182044.093000", "182044.093000", "182044.093000", "182044.109000", "182044.109000", "182044.109000", "182044.109000", "182044.109000", "182124.046000", "182124.046000", "182124.046000", "182124.046000", "182124.046000", "182124.046000", "182124.046000", "182124.062000", "182124.062000", "182124.062000", "182124.062000", "182124.062000", "182124.062000", "182124.062000", "182124.078000", "182124.078000", "182124.078000", "182124.078000", "182124.078000", "182224.046000", "182224.046000", "182224.046000", "182224.046000", "182224.046000", "182224.046000", "182224.062000", "182224.062000", "182224.062000", "182224.062000", "182224.062000", "182224.062000", "182224.062000", "182224.062000", "182224.078000", "182224.078000", "182224.078000", "182224.078000", "182224.078000", "182224.078000", "182224.078000", "182224.093000", "182224.093000", "182224.093000", "182224.093000", "182224.093000", "182224.093000", "182224.093000", "182324.046000", "182324.046000", "182324.046000", "182324.046000", "182324.062000", "182324.062000", "182324.062000", "182324.062000", "182324.062000", "182324.062000", "182324.062000", "182324.078000", "182324.078000", "182324.078000", "182324.078000", "182324.078000", "182324.078000", "182324.078000", "182324.093000", "182324.093000", "182324.093000", "182324.093000", "182324.093000", "182324.093000", "182324.109000", "182324.109000", "182324.109000", "182324.109000", "182424.046000", "182424.046000", "182424.046000", "182424.046000", "182424.046000", "182424.046000", "182424.046000", "182424.062000", "182424.062000", "182424.062000", "182424.062000", "182424.062000", "182424.062000", "182424.062000", "182424.078000", "182424.078000", "182424.078000", "182424.078000", "182424.078000", "182424.078000", "182424.078000", "182424.093000", "182424.093000", "182424.093000", "182424.093000", "182424.093000", "182424.093000", "182424.093000", "182424.109000", "182524.046000", "182524.046000", "182524.046000", "182524.046000", "182524.046000", "182524.046000", "182524.046000", "182524.062000", "182524.062000", "182524.062000", "182524.062000", "182524.062000", "182524.062000", "182524.078000", "182524.078000", "182524.078000", "182524.078000", "182524.078000", "182524.078000", "182524.078000", "182524.078000", "182524.093000", "182524.093000", "182524.093000", "182524.093000", "182524.093000", "182524.109000", "182524.109000", "182624.046000", "182624.046000", "182624.046000", "182624.046000", "182624.046000", "182624.046000", "182624.046000", "182624.062000", "182624.062000", "182624.062000", "182624.062000", "182624.062000", "182624.062000", "182624.062000", "182624.078000", "182624.078000", "182624.078000", "182624.078000", "182624.093000", "182624.093000", "182624.093000", "182624.093000", "182624.093000", "182624.093000", "182624.093000", "182624.109000", "182624.109000", "182624.109000", "182724.046000", "182724.046000", "182724.046000", "182724.046000", "182724.046000", "182724.046000", "182724.062000", "182724.062000", "182724.062000", "182724.062000", "182724.062000", "182724.062000", "182724.062000", "182724.078000", "182724.078000", "182724.078000", "182724.078000", "182724.078000", "182724.078000", "182724.078000", "182724.093000", "182724.093000", "182724.093000", "182724.093000", "182724.093000", "182724.109000", "182724.109000", "182724.109000", "182824.046000", "182824.046000", "182824.046000", "182824.046000", "182824.046000", "182824.046000", "182824.062000", "182824.062000", "182824.062000", "182824.062000", "182824.062000", "182824.062000", "182824.062000", "182824.078000", "182824.078000", "182824.078000", "182824.078000", "182824.078000", "182824.078000", "182824.078000", "182824.093000", "182824.093000", "182824.093000", "182824.093000", "182824.093000", "182824.093000", "182824.093000", "182824.109000", "182824.109000", "182924.046000", "182924.046000", "182924.046000", "182924.046000", "182924.046000", "182924.046000", "182924.062000", "182924.062000", "182924.062000", "182924.062000", "182924.062000", "182924.062000", "182924.062000", "182924.078000", "182924.078000", "182924.078000", "182924.078000", "182924.078000", "182924.078000", "182924.078000", "182924.093000", "182924.093000", "182924.093000", "182924.093000", "182924.093000", "182924.093000", "182924.093000", "182924.109000", "183024.046000", "183024.046000", "183024.046000", "183024.046000", "183024.046000", "183024.046000", "183024.062000", "183024.062000", "183024.062000", "183024.062000", "183024.062000", "183024.062000", "183024.062000", "183024.078000", "183024.078000", "183024.078000", "183024.078000", "183024.078000", "183024.078000", "183024.093000", "183024.093000", "183024.093000", "183024.093000", "183024.093000", "183024.093000", "183024.093000", "183024.109000", "183024.109000", "183124.046000", "183124.046000", "183124.046000", "183124.046000", "183124.046000", "183124.046000", "183124.062000", "183124.062000", "183124.062000", "183124.062000", "183124.062000", "183124.062000", "183124.062000", "183124.078000", "183124.078000", "183124.078000", "183124.078000", "183124.078000", "183124.093000", "183124.093000", "183124.093000", "183124.093000", "183124.093000", "183124.093000", "183124.093000", "183124.109000", "183124.109000", "183124.109000", "183124.109000", "183224.046000", "183224.046000", "183224.046000", "183224.046000", "183224.046000", "183224.046000", "183224.046000", "183224.062000", "183224.062000", "183224.062000", "183224.062000", "183224.062000", "183224.062000", "183224.078000", "183224.078000", "183224.078000", "183224.078000", "183224.078000", "183224.078000", "183224.078000", "183224.093000", "183224.093000", "183224.093000", "183224.093000", "183224.093000", "183224.093000", "183224.093000", "183224.109000", "183324.046000", "183324.046000", "183324.046000", "183324.046000", "183324.046000", "183324.046000", "183324.062000", "183324.062000", "183324.062000", "183324.062000", "183324.062000", "183324.062000", "183324.062000", "183324.078000", "183324.078000", "183324.078000", "183324.078000", "183324.078000", "183324.078000", "183324.078000", "183324.093000", "183324.093000", "183324.093000", "183324.093000", "183324.093000", "183324.093000", "183324.093000", "183324.109000", "183424.046000", "183424.046000", "183424.046000", "183424.046000", "183424.046000", "183424.046000", "183424.062000", "183424.062000", "183424.062000", "183424.062000", "183424.062000", "183424.062000", "183424.062000", "183424.078000", "183424.078000", "183424.078000", "183424.078000", "183424.078000", "183424.078000", "183424.078000", "183424.093000", "183424.093000", "183424.093000", "183424.093000", "183424.093000", "183424.093000", "183424.109000", "183424.109000", "183424.109000", "183524.046000", "183524.046000", "183524.046000", "183524.046000", "183524.046000", "183524.046000", "183524.046000", "183524.062000", "183524.062000", "183524.062000", "183524.062000", "183524.062000", "183524.062000", "183524.062000", "183524.078000", "183524.078000", "183524.078000", "183524.078000", "183524.078000", "183524.093000", "183524.093000", "183524.093000", "183524.093000", "183524.093000", "183524.109000", "183524.109000", "183524.109000", "183524.109000", "183624.046000", "183624.046000", "183624.046000", "183624.046000", "183624.046000", "183624.046000", "183624.062000", "183624.062000", "183624.062000", "183624.062000", "183624.062000", "183624.062000", "183624.062000", "183624.078000", "183624.078000", "183624.078000", "183624.078000", "183624.078000", "183624.078000", "183624.078000", "183624.093000", "183624.093000", "183624.093000", "183624.093000", "183624.093000", "183624.093000", "183624.093000", "183624.109000", "183724.046000", "183724.046000", "183724.046000", "183724.046000", "183724.046000", "183724.046000", "183724.062000", "183724.062000", "183724.062000", "183724.062000", "183724.062000", "183724.062000", "183724.062000", "183724.078000", "183724.078000", "183724.078000", "183724.078000", "183724.078000", "183724.078000", "183724.078000", "183724.093000", "183724.093000", "183724.093000", "183724.093000", "183724.093000", "183724.093000", "183724.093000", "183724.109000", "183824.046000", "183824.046000", "183824.046000", "183824.046000", "183824.046000", "183824.046000", "183824.062000", "183824.062000", "183824.062000", "183824.062000", "183824.062000", "183824.062000", "183824.078000", "183824.078000", "183824.078000", "183824.078000", "183824.078000", "183824.078000", "183824.078000", "183824.093000", "183824.093000", "183824.093000", "183824.093000", "183824.093000", "183824.093000", "183824.093000", "183824.109000", "183824.109000", "183904.015000", "183904.015000", "183904.031000", "183904.031000", "183904.031000", "183904.031000", "183904.031000", "183904.031000", "183904.031000", "183904.046000", "183904.046000", "183904.046000", "183904.046000", "183904.046000", "183904.046000", "183904.062000", "183904.062000", "183904.062000", "183904.062000", "183904.062000"],
      "DataSetTrailingPadding": [
        "\u0000\u0000\u0000\u0000\u0000\u0000\u0000\u0000\u0000\u0000\u0000\u0000\u0000\u0000\u0000\u0000\u0000\u0000\u0000\u0000\u0000\u0000\u0000\u0000\u0000\u0000\u0000\u0000\u0000\u0000\u0000\u0000\u0000\u0000\u0000\u0000\u0000\u0000\u0000\u0000\u0000\u0000\u0000\u0000\u0000\u0000\u0000\u0000\u0000\u0000\u0000\u0000\u0000\u0000\u0000\u0000\u0000\u0000\u0000\u0000\u0000\u0000",
        "\u0000\u0000\u0000\u0000\u0000\u0000\u0000\u0000\u0000\u0000\u0000\u0000\u0000\u0000\u0000\u0000\u0000\u0000\u0000\u0000\u0000\u0000\u0000\u0000\u0000\u0000\u0000\u0000\u0000\u0000\u0000\u0000\u0000\u0000\u0000\u0000\u0000\u0000\u0000\u0000\u0000\u0000\u0000\u0000\u0000\u0000\u0000\u0000\u0000\u0000\u0000\u0000\u0000\u0000\u0000\u0000\u0000\u0000\u0000\u0000",
        "\u0000\u0000\u0000\u0000\u0000\u0000\u0000\u0000\u0000\u0000\u0000\u0000\u0000\u0000\u0000\u0000\u0000\u0000\u0000\u0000\u0000\u0000\u0000\u0000\u0000\u0000\u0000\u0000\u0000\u0000\u0000\u0000\u0000\u0000\u0000\u0000\u0000\u0000\u0000\u0000\u0000\u0000\u0000\u0000\u0000\u0000\u0000\u0000\u0000\u0000\u0000\u0000\u0000\u0000\u0000\u0000\u0000\u0000\u0000\u0000\u0000\u0000",
        "\u0000\u0000\u0000\u0000\u0000\u0000\u0000\u0000\u0000\u0000\u0000\u0000\u0000\u0000\u0000\u0000\u0000\u0000\u0000\u0000\u0000\u0000\u0000\u0000\u0000\u0000\u0000\u0000\u0000\u0000\u0000\u0000\u0000\u0000\u0000\u0000\u0000\u0000\u0000\u0000\u0000\u0000\u0000\u0000\u0000\u0000\u0000\u0000\u0000\u0000\u0000\u0000\u0000\u0000\u0000\u0000\u0000\u0000\u0000\u0000",
        "\u0000\u0000\u0000\u0000\u0000\u0000\u0000\u0000\u0000\u0000\u0000\u0000\u0000\u0000\u0000\u0000\u0000\u0000\u0000\u0000\u0000\u0000\u0000\u0000\u0000\u0000\u0000\u0000\u0000\u0000\u0000\u0000\u0000\u0000\u0000\u0000\u0000\u0000\u0000\u0000\u0000\u0000\u0000\u0000\u0000\u0000\u0000\u0000\u0000\u0000\u0000\u0000\u0000\u0000\u0000\u0000\u0000\u0000\u0000\u0000\u0000\u0000",
