{
  "AcquisitionMatrixPE": 104,
  "AcquisitionNumber": 1,
  "AcquisitionTime": "11:34:31.722500",
  "BandwidthPerPixelPhaseEncode": 13.935,
  "BaseResolution": 104,
  "CoilString": "C:HEA;HEP",
  "ConversionSoftware": "dcm2niix",
  "ConversionSoftwareVersion": "v1.0.20210317",
  "DerivedVendorReportedEchoSpacing": 0.000690017,
  "DeviceSerialNumber": "35450",
  "DwellTime": 2.5e-06,
  "EchoTime": 0.0348,
  "EffectiveEchoSpacing": 0.000690017,
  "FlipAngle": 55,
  "ImageComments": "Unaliased MB8/PE3 (remote)",
  "ImageOrientationPatientDICOM": [0.999904, 0.0022351, 0.0136479, -1.0298e-08, 0.986854, -0.161616],
  "ImageType": [
    "ORIGINAL",
    "PRIMARY",
    "M",
    "MB",
    "ND",
    "MOSAIC"
],
  "ImagingFrequency": 123.234,
  "InPlanePhaseEncodingDirectionDICOM": "COL",
  "InstitutionAddress": "Univeristy Ave. 197,Newark,North East,US,07102-1814",
  "InstitutionName": "RUBIC",
  "InstitutionalDepartmentName": "Department",
  "MRAcquisitionType": "2D",
  "MagneticFieldStrength": 3,
  "Manufacturer": "Siemens",
  "ManufacturersModelName": "TrioTim",
  "Modality": "MR",
  "MultibandAccelerationFactor": 8,
  "PartialFourier": 0.875,
  "PatientPosition": "HFS",
  "PercentPhaseFOV": 100,
  "PercentSampling": 100,
  "PhaseEncodingDirection": "j-",
  "PhaseEncodingSteps": 91,
  "PhaseResolution": 1,
  "PixelBandwidth": 1923,
  "ProcedureStepDescription": "Cole^Michael",
  "ProtocolName": "cmrr_mbep2d_bold_2mm_MB8_Task_8x",
  "PulseSequenceDetails": "%CustomerSeq%\\cmrr_mbep2d_bold",
  "ReceiveCoilName": "32Ch_Head",
  "ReconMatrixPE": 104,
  "RepetitionTime": 0.785,
  "SAR": 0.115616,
  "ScanOptions": "PFP\\FS",
  "ScanningSequence": "EP",
  "SequenceName": "epfid2d1_104",
  "SequenceVariant": "SK\\SS",
  "SeriesDescription": "cmrr_mbep2d_bold_2mm_MB8_Task_8x",
  "SeriesNumber": 13,
  "ShimSetting": [2110, -406, -7359, 429, 99, 124, -18, 5],
  "SliceThickness": 2,
  "SliceTiming": [0, 0.4375, 0.0875, 0.525, 0.175, 0.6125, 0.2625, 0.7, 0.35, 0, 0.4375, 0.0875, 0.525, 0.175, 0.6125, 0.2625, 0.7, 0.35, 0, 0.4375, 0.0875, 0.525, 0.175, 0.6125, 0.2625, 0.7, 0.35, 0, 0.4375, 0.0875, 0.525, 0.175, 0.6125, 0.2625, 0.7, 0.35, 0, 0.4375, 0.0875, 0.525, 0.175, 0.6125, 0.2625, 0.7, 0.35, 0, 0.4375, 0.0875, 0.525, 0.175, 0.6125, 0.2625, 0.7, 0.35, 0, 0.4375, 0.0875, 0.525, 0.175, 0.6125, 0.2625, 0.7, 0.35, 0, 0.4375, 0.0875, 0.525, 0.175, 0.6125, 0.2625, 0.7, 0.35],
  "SoftwareVersions": "syngo MR B19",
  "SpacingBetweenSlices": 2,
  "StationName": "MRC35450",
  "TaskName": "cpro",
  "TotalReadoutTime": 0.0710717,
  "TxRefAmp": 334.775,
  "dcmmeta_affine": [
    [-1.9998087882995605, -2.0596045757770298e-08, 0.027659334242343903, 101.6412582397461],
    [-0.004470206797122955, 1.9737075567245483, -0.3232007324695587, -79.22986602783203],
    [0.027295714244246483, 0.32323166728019714, 1.9735187292099, -112.90418243408203],
    [0.0, 0.0, 0.0, 1.0]
],
  "dcmmeta_reorient_transform": [
    [0.0, -1.0, 0.0, 103.0],
    [1.0, 0.0, 0.0, 0.0],
    [0.0, 0.0, 1.0, 0.0],
    [0.0, 0.0, 0.0, 1.0]
],
  "dcmmeta_shape": [104, 104, 72, 581],
  "dcmmeta_slice_dim": 2,
  "dcmmeta_version": 0.6,
  "global": {
    "const": {
      "AcquisitionMatrix": [104, 0, 0, 104],
      "AngioFlag": "N",
      "BitsAllocated": 16,
      "BitsStored": 12,
      "Columns": 936,
      "EchoNumbers": 1,
      "EchoTime": 34.8,
      "EchoTrainLength": 1,
      "FlipAngle": 55.0,
      "HighBit": 11,
      "ImageOrientationPatient": [0.99990436557854, 0.0022351033078, 0.01364785734732, -1.0298023e-08, 0.98685374991, -0.1616158293255],
      "ImagePositionPatient": [-933.56167945966, -946.98393251152, 43.498029400964],
      "ImageType": [
        "ORIGINAL",
        "PRIMARY",
        "M",
        "MB",
        "ND",
        "MOSAIC"
],
      "ImagedNucleus": "1H",
      "ImagingFrequency": 123.234459,
      "InPlanePhaseEncodingDirection": "COL",
      "MRAcquisitionType": "2D",
      "MagneticFieldStrength": 3.0,
      "Manufacturer": "SIEMENS",
      "ManufacturerModelName": "TrioTim",
      "Modality": "MR",
      "NumberOfAverages": 1.0,
      "NumberOfPhaseEncodingSteps": 91,
      "PercentPhaseFieldOfView": 100.0,
      "PercentSampling": 100.0,
      "PerformedProcedureStepStartTime": "100711.671000",
      "PhotometricInterpretation": "MONOCHROME2",
      "PixelBandwidth": 1923.0,
      "PixelRepresentation": 0,
      "PixelSpacing": [2.0, 2.0],
      "ProtocolName": "cmrr_mbep2d_bold_2mm_MB8_Task_8x",
      "RepetitionTime": 785.0,
      "Rows": 936,
      "SAR": 0.11561582538756,
      "SamplesPerPixel": 1,
      "ScanOptions": [
        "PFP",
        "FS"
],
      "ScanningSequence": "EP",
      "SequenceName": "epfid2d1_104",
      "SequenceVariant": [
        "SK",
        "SS"
],
      "SeriesDescription": "cmrr_mbep2d_bold_2mm_MB8_Task_8x",
      "SeriesNumber": 13,
      "SeriesTime": "113500.968000",
      "SliceLocation": -97.200021243538,
      "SliceThickness": 2.0,
      "SmallestImagePixelValue": 0,
      "SoftwareVersions": "syngo MR B19",
      "SpacingBetweenSlices": 2.0000000034643,
      "SpecificCharacterSet": "ISO_IR 100",
      "StudyID": "1",
      "StudyTime": "100711.546000",
      "TransmitCoilName": "Body",
      "VariableFlipAngleFlag": "N",
      "WindowCenterWidthExplanation": "Algo1",
      "dBdt": 0.0},
    "slices": {}
  },
  "time": {
    "samples": {
      "AcquisitionNumber": [1, 2, 3, 4, 5, 6, 7, 8, 9, 10, 11, 12, 13, 14, 15, 16, 17, 18, 19, 20, 21, 22, 23, 24, 25, 26, 27, 28, 29, 30, 31, 32, 33, 34, 35, 36, 37, 38, 39, 40, 41, 42, 43, 44, 45, 46, 47, 48, 49, 50, 51, 52, 53, 54, 55, 56, 57, 58, 59, 60, 61, 62, 63, 64, 65, 66, 67, 68, 69, 70, 71, 72, 73, 74, 75, 76, 77, 78, 79, 80, 81, 82, 83, 84, 85, 86, 87, 88, 89, 90, 91, 92, 93, 94, 95, 96, 97, 98, 99, 100, 101, 102, 103, 104, 105, 106, 107, 108, 109, 110, 111, 112, 113, 114, 115, 116, 117, 118, 119, 120, 121, 122, 123, 124, 125, 126, 127, 128, 129, 130, 131, 132, 133, 134, 135, 136, 137, 138, 139, 140, 141, 142, 143, 144, 145, 146, 147, 148, 149, 150, 151, 152, 153, 154, 155, 156, 157, 158, 159, 160, 161, 162, 163, 164, 165, 166, 167, 168, 169, 170, 171, 172, 173, 174, 175, 176, 177, 178, 179, 180, 181, 182, 183, 184, 185, 186, 187, 188, 189, 190, 191, 192, 193, 194, 195, 196, 197, 198, 199, 200, 201, 202, 203, 204, 205, 206, 207, 208, 209, 210, 211, 212, 213, 214, 215, 216, 217, 218, 219, 220, 221, 222, 223, 224, 225, 226, 227, 228, 229, 230, 231, 232, 233, 234, 235, 236, 237, 238, 239, 240, 241, 242, 243, 244, 245, 246, 247, 248, 249, 250, 251, 252, 253, 254, 255, 256, 257, 258, 259, 260, 261, 262, 263, 264, 265, 266, 267, 268, 269, 270, 271, 272, 273, 274, 275, 276, 277, 278, 279, 280, 281, 282, 283, 284, 285, 286, 287, 288, 289, 290, 291, 292, 293, 294, 295, 296, 297, 298, 299, 300, 301, 302, 303, 304, 305, 306, 307, 308, 309, 310, 311, 312, 313, 314, 315, 316, 317, 318, 319, 320, 321, 322, 323, 324, 325, 326, 327, 328, 329, 330, 331, 332, 333, 334, 335, 336, 337, 338, 339, 340, 341, 342, 343, 344, 345, 346, 347, 348, 349, 350, 351, 352, 353, 354, 355, 356, 357, 358, 359, 360, 361, 362, 363, 364, 365, 366, 367, 368, 369, 370, 371, 372, 373, 374, 375, 376, 377, 378, 379, 380, 381, 382, 383, 384, 385, 386, 387, 388, 389, 390, 391, 392, 393, 394, 395, 396, 397, 398, 399, 400, 401, 402, 403, 404, 405, 406, 407, 408, 409, 410, 411, 412, 413, 414, 415, 416, 417, 418, 419, 420, 421, 422, 423, 424, 425, 426, 427, 428, 429, 430, 431, 432, 433, 434, 435, 436, 437, 438, 439, 440, 441, 442, 443, 444, 445, 446, 447, 448, 449, 450, 451, 452, 453, 454, 455, 456, 457, 458, 459, 460, 461, 462, 463, 464, 465, 466, 467, 468, 469, 470, 471, 472, 473, 474, 475, 476, 477, 478, 479, 480, 481, 482, 483, 484, 485, 486, 487, 488, 489, 490, 491, 492, 493, 494, 495, 496, 497, 498, 499, 500, 501, 502, 503, 504, 505, 506, 507, 508, 509, 510, 511, 512, 513, 514, 515, 516, 517, 518, 519, 520, 521, 522, 523, 524, 525, 526, 527, 528, 529, 530, 531, 532, 533, 534, 535, 536, 537, 538, 539, 540, 541, 542, 543, 544, 545, 546, 547, 548, 549, 550, 551, 552, 553, 554, 555, 556, 557, 558, 559, 560, 561, 562, 563, 564, 565, 566, 567, 568, 569, 570, 571, 572, 573, 574, 575, 576, 577, 578, 579, 580, 581],
      "AcquisitionTime": ["113431.722500", "113432.510000", "113433.300000", "113434.087500", "113434.875000", "113435.662500", "113436.452500", "113437.240000", "113438.027500", "113438.815000", "113439.605000", "113440.392500", "113441.180000", "113441.967500", "113442.757500", "113443.545000", "113444.332500", "113445.120000", "113445.910000", "113446.697500", "113447.485000", "113448.275000", "113449.062500", "113449.850000", "113450.637500", "113451.427500", "113452.215000", "113453.002500", "113453.790000", "113454.580000", "113455.367500", "113456.155000", "113456.942500", "113457.732500", "113458.520000", "113459.307500", "113500.095000", "113500.885000", "113501.672500", "113502.460000", "113503.247500", "113504.037500", "113504.825000", "113505.612500", "113506.402500", "113507.190000", "113507.977500", "113508.765000", "113509.555000", "113510.342500", "113511.130000", "113511.917500", "113512.707500", "113513.495000", "113514.282500", "113515.070000", "113515.860000", "113516.647500", "113517.435000", "113518.222500", "113519.012500", "113519.800000", "113520.587500", "113521.375000", "113522.165000", "113522.952500", "113523.740000", "113524.530000", "113525.317500", "113526.105000", "113526.892500", "113527.682500", "113528.470000", "113529.257500", "113530.045000", "113530.835000", "113531.622500", "113532.410000", "113533.197500", "113533.987500", "113534.775000", "113535.562500", "113536.350000", "113537.140000", "113537.927500", "113538.715000", "113539.502500", "113540.292500", "113541.080000", "113541.867500", "113542.657500", "113543.445000", "113544.232500", "113545.020000", "113545.810000", "113546.597500", "113547.385000", "113548.172500", "113548.962500", "113549.750000", "113550.537500", "113551.325000", "113552.115000", "113552.902500", "113553.690000", "113554.477500", "113555.267500", "113556.055000", "113556.842500", "113557.630000", "113558.420000", "113559.207500", "113559.995000", "113600.785000", "113601.572500", "113602.360000", "113603.147500", "113603.937500", "113604.725000", "113605.512500", "113606.300000", "113607.090000", "113607.877500", "113608.665000", "113609.452500", "113610.242500", "113611.030000", "113611.817500", "113612.605000", "113613.395000", "113614.182500", "113614.970000", "113615.757500", "113616.547500", "113617.335000", "113618.122500", "113618.912500", "113619.700000", "113620.487500", "113621.275000", "113622.065000", "113622.852500", "113623.640000", "113624.427500", "113625.217500", "113626.005000", "113626.792500", "113627.580000", "113628.370000", "113629.157500", "113629.945000", "113630.732500", "113631.522500", "113632.310000", "113633.097500", "113633.885000", "113634.675000", "113635.462500", "113636.250000", "113637.040000", "113637.827500", "113638.615000", "113639.402500", "113640.192500", "113640.980000", "113641.767500", "113642.555000", "113643.345000", "113644.132500", "113644.920000", "113645.707500", "113646.497500", "113647.285000", "113648.072500", "113648.860000", "113649.650000", "113650.437500", "113651.225000", "113652.012500", "113652.802500", "113653.590000", "113654.377500", "113655.167500", "113655.955000", "113656.742500", "113657.530000", "113658.320000", "113659.107500", "113659.895000", "113700.682500", "113701.472500", "113702.260000", "113703.047500", "113703.835000", "113704.625000", "113705.412500", "113706.200000", "113706.987500", "113707.777500", "113708.565000", "113709.352500", "113710.140000", "113710.930000", "113711.717500", "113712.505000", "113713.295000", "113714.082500", "113714.870000", "113715.657500", "113716.447500", "113717.235000", "113718.022500", "113718.810000", "113719.600000", "113720.387500", "113721.175000", "113721.962500", "113722.752500", "113723.540000", "113724.327500", "113725.115000", "113725.905000", "113726.692500", "113727.480000", "113728.267500", "113729.057500", "113729.845000", "113730.632500", "113731.422500", "113732.210000", "113732.997500", "113733.785000", "113734.575000", "113735.362500", "113736.150000", "113736.937500", "113737.727500", "113738.515000", "113739.302500", "113740.090000", "113740.880000", "113741.667500", "113742.455000", "113743.242500", "113744.032500", "113744.820000", "113745.607500", "113746.395000", "113747.185000", "113747.972500", "113748.760000", "113749.550000", "113750.337500", "113751.125000", "113751.912500", "113752.702500", "113753.490000", "113754.277500", "113755.065000", "113755.855000", "113756.642500", "113757.430000", "113758.217500", "113759.007500", "113759.795000", "113800.582500", "113801.370000", "113802.160000", "113802.947500", "113803.735000", "113804.525000", "113805.312500", "113806.100000", "113806.887500", "113807.677500", "113808.465000", "113809.252500", "113810.040000", "113810.830000", "113811.617500", "113812.405000", "113813.192500", "113813.982500", "113814.770000", "113815.557500", "113816.345000", "113817.135000", "113817.922500", "113818.710000", "113819.497500", "113820.287500", "113821.075000", "113821.862500", "113822.652500", "113823.440000", "113824.227500", "113825.015000", "113825.805000", "113826.592500", "113827.380000", "113828.167500", "113828.957500", "113829.745000", "113830.532500", "113831.320000", "113832.110000", "113832.897500", "113833.685000", "113834.472500", "113835.262500", "113836.050000", "113836.837500", "113837.625000", "113838.415000", "113839.202500", "113839.990000", "113840.780000", "113841.567500", "113842.355000", "113843.142500", "113843.932500", "113844.720000", "113845.507500", "113846.295000", "113847.085000", "113847.872500", "113848.660000", "113849.447500", "113850.237500", "113851.025000", "113851.812500", "113852.600000", "113853.390000", "113854.177500", "113854.965000", "113855.752500", "113856.542500", "113857.330000", "113858.117500", "113858.907500", "113859.695000", "113900.482500", "113901.270000", "113902.060000", "113902.847500", "113903.635000", "113904.422500", "113905.212500", "113906.000000", "113906.787500", "113907.575000", "113908.365000", "113909.152500", "113909.940000", "113910.727500", "113911.517500", "113912.305000", "113913.092500", "113913.880000", "113914.670000", "113915.457500", "113916.245000", "113917.035000", "113917.822500", "113918.610000", "113919.397500", "113920.187500", "113920.975000", "113921.762500", "113922.550000", "113923.340000", "113924.127500", "113924.915000", "113925.702500", "113926.492500", "113927.280000", "113928.067500", "113928.855000", "113929.645000", "113930.432500", "113931.220000", "113932.007500", "113932.797500", "113933.585000", "113934.372500", "113935.162500", "113935.950000", "113936.737500", "113937.525000", "113938.315000", "113939.102500", "113939.890000", "113940.677500", "113941.467500", "113942.255000", "113943.042500", "113943.830000", "113944.620000", "113945.407500", "113946.195000", "113946.982500", "113947.772500", "113948.560000", "113949.347500", "113950.135000", "113950.925000", "113951.712500", "113952.500000", "113953.290000", "113954.077500", "113954.865000", "113955.652500", "113956.442500", "113957.230000", "113958.017500", "113958.805000", "113959.595000", "114000.382500", "114001.170000", "114001.957500", "114002.747500", "114003.535000", "114004.322500", "114005.110000", "114005.900000", "114006.687500", "114007.475000", "114008.262500", "114009.052500", "114009.840000", "114010.627500", "114011.417500", "114012.205000", "114012.992500", "114013.780000", "114014.570000", "114015.357500", "114016.145000", "114016.932500", "114017.722500", "114018.510000", "114019.297500", "114020.085000", "114020.875000", "114021.662500", "114022.450000", "114023.237500", "114024.027500", "114024.815000", "114025.602500", "114026.390000", "114027.180000", "114027.967500", "114028.755000", "114029.545000", "114030.332500", "114031.120000", "114031.907500", "114032.697500", "114033.485000", "114034.272500", "114035.060000", "114035.850000", "114036.637500", "114037.425000", "114038.212500", "114039.002500", "114039.790000", "114040.577500", "114041.365000", "114042.155000", "114042.942500", "114043.730000", "114044.517500", "114045.307500", "114046.095000", "114046.882500", "114047.672500", "114048.460000", "114049.247500", "114050.035000", "114050.825000", "114051.612500", "114052.400000", "114053.187500", "114053.977500", "114054.765000", "114055.552500", "114056.340000", "114057.130000", "114057.917500", "114058.705000", "114059.492500", "114100.282500", "114101.070000", "114101.857500", "114102.645000", "114103.435000", "114104.222500", "114105.010000", "114105.800000", "114106.587500", "114107.375000", "114108.162500", "114108.952500", "114109.740000", "114110.527500", "114111.315000", "114112.105000", "114112.892500", "114113.680000", "114114.467500", "114115.257500", "114116.045000", "114116.832500", "114117.620000", "114118.410000", "114119.197500", "114119.985000", "114120.775000", "114121.562500", "114122.350000", "114123.137500", "114123.927500", "114124.715000", "114125.502500", "114126.290000", "114127.080000", "114127.867500", "114128.655000", "114129.442500", "114130.232500", "114131.020000", "114131.807500", "114132.595000", "114133.385000", "114134.172500", "114134.960000", "114135.747500", "114136.537500", "114137.325000", "114138.112500", "114138.902500", "114139.690000", "114140.477500", "114141.265000", "114142.055000", "114142.842500", "114143.630000", "114144.417500", "114145.207500", "114145.995000", "114146.782500", "114147.570000", "114148.360000", "114149.147500", "114149.935000", "114150.722500", "114151.512500", "114152.300000", "114153.087500", "114153.875000", "114154.665000", "114155.452500", "114156.240000", "114157.030000", "114157.817500", "114158.605000", "114159.392500", "114200.182500", "114200.970000", "114201.757500", "114202.545000", "114203.335000", "114204.122500", "114204.910000", "114205.697500", "114206.487500", "114207.275000", "114208.062500", "114208.850000"],
      "ContentTime": ["113500.968000", "113500.968000", "113500.968000", "113500.968000", "113500.968000", "113500.984000", "113500.984000", "113500.984000", "113500.984000", "113500.984000", "113500.984000", "113500.984000", "113501.000000", "113501.000000", "113501.000000", "113501.000000", "113501.000000", "113501.000000", "113501.015000", "113501.015000", "113501.015000", "113501.015000", "113501.015000", "113501.015000", "113501.031000", "113501.031000", "113501.031000", "113501.031000", "113501.031000", "113501.031000", "113501.031000", "113501.046000", "113501.046000", "113501.046000", "113520.937000", "113520.937000", "113520.937000", "113520.937000", "113520.953000", "113520.953000", "113520.953000", "113520.953000", "113520.953000", "113520.968000", "113520.968000", "113520.968000", "113520.968000", "113520.968000", "113520.968000", "113520.968000", "113520.984000", "113520.984000", "113520.984000", "113520.984000", "113520.984000", "113520.984000", "113520.984000", "113521.000000", "113521.000000", "113521.000000", "113540.937000", "113540.937000", "113540.937000", "113540.937000", "113540.953000", "113540.953000", "113540.953000", "113540.953000", "113540.953000", "113540.968000", "113540.968000", "113540.968000", "113540.968000", "113540.968000", "113540.968000", "113540.968000", "113540.984000", "113540.984000", "113540.984000", "113540.984000", "113540.984000", "113540.984000", "113540.984000", "113541.000000", "113541.000000", "113600.937000", "113600.937000", "113600.937000", "113600.937000", "113600.953000", "113600.953000", "113600.953000", "113600.953000", "113600.953000", "113600.953000", "113600.953000", "113600.953000", "113600.968000", "113600.968000", "113600.968000", "113600.968000", "113600.968000", "113600.968000", "113600.968000", "113600.984000", "113600.984000", "113600.984000", "113600.984000", "113600.984000", "113601.000000", "113601.000000", "113620.937000", "113620.937000", "113620.937000", "113620.937000", "113620.953000", "113620.953000", "113620.953000", "113620.953000", "113620.953000", "113620.968000", "113620.968000", "113620.968000", "113620.968000", "113620.968000", "113620.968000", "113620.968000", "113620.984000", "113620.984000", "113620.984000", "113620.984000", "113620.984000", "113620.984000", "113620.984000", "113620.984000", "113621.000000", "113640.937000", "113640.937000", "113640.937000", "113640.937000", "113640.953000", "113640.953000", "113640.953000", "113640.953000", "113640.953000", "113640.953000", "113640.953000", "113640.953000", "113640.968000", "113640.968000", "113640.968000", "113640.968000", "113640.968000", "113640.968000", "113640.968000", "113640.984000", "113640.984000", "113640.984000", "113640.984000", "113640.984000", "113641.000000", "113641.000000", "113700.937000", "113700.937000", "113700.937000", "113700.937000", "113700.953000", "113700.953000", "113700.953000", "113700.953000", "113700.953000", "113700.953000", "113700.953000", "113700.953000", "113700.968000", "113700.968000", "113700.968000", "113700.968000", "113700.968000", "113700.968000", "113700.968000", "113700.984000", "113700.984000", "113700.984000", "113700.984000", "113700.984000", "113700.984000", "113720.937000", "113720.937000", "113720.937000", "113720.937000", "113720.953000", "113720.953000", "113720.953000", "113720.953000", "113720.953000", "113720.953000", "113720.953000", "113720.953000", "113720.968000", "113720.968000", "113720.968000", "113720.968000", "113720.968000", "113720.968000", "113720.968000", "113720.984000", "113720.984000", "113720.984000", "113720.984000", "113720.984000", "113720.984000", "113720.984000", "113740.937000", "113740.937000", "113740.937000", "113740.937000", "113740.953000", "113740.953000", "113740.953000", "113740.953000", "113740.953000", "113740.953000", "113740.953000", "113740.953000", "113740.968000", "113740.968000", "113740.968000", "113740.968000", "113740.968000", "113740.984000", "113740.984000", "113740.984000", "113740.984000", "113740.984000", "113740.984000", "113740.984000", "113741.000000", "113800.937000", "113800.937000", "113800.937000", "113800.937000", "113800.953000", "113800.953000", "113800.953000", "113800.953000", "113800.953000", "113800.953000", "113800.953000", "113800.968000", "113800.968000", "113800.968000", "113800.968000", "113800.968000", "113800.968000", "113800.984000", "113800.984000", "113800.984000", "113800.984000", "113800.984000", "113800.984000", "113800.984000", "113800.984000", "113801.000000", "113820.937000", "113820.937000", "113820.937000", "113820.937000", "113820.953000", "113820.953000", "113820.953000", "113820.953000", "113820.953000", "113820.953000", "113820.953000", "113820.968000", "113820.968000", "113820.968000", "113820.968000", "113820.968000", "113820.984000", "113820.984000", "113820.984000", "113820.984000", "113820.984000", "113820.984000", "113820.984000", "113820.984000", "113821.000000", "113840.937000", "113840.937000", "113840.937000", "113840.937000", "113840.953000", "113840.953000", "113840.953000", "113840.953000", "113840.953000", "113840.953000", "113840.953000", "113840.968000", "113840.968000", "113840.968000", "113840.968000", "113840.968000", "113840.968000", "113840.968000", "113840.968000", "113840.984000", "113840.984000", "113840.984000", "113840.984000", "113840.984000", "113840.984000", "113840.984000", "113900.937000", "113900.937000", "113900.937000", "113900.937000", "113900.953000", "113900.953000", "113900.953000", "113900.953000", "113900.953000", "113900.953000", "113900.968000", "113900.968000", "113900.968000", "113900.968000", "113900.968000", "113900.968000", "113900.968000", "113900.984000", "113900.984000", "113900.984000", "113900.984000", "113900.984000", "113901.000000", "113901.000000", "113901.000000", "113920.937000", "113920.937000", "113920.937000", "113920.937000", "113920.953000", "113920.953000", "113920.953000", "113920.953000", "113920.953000", "113920.953000", "113920.953000", "113920.968000", "113920.968000", "113920.968000", "113920.968000", "113920.968000", "113920.968000", "113920.968000", "113920.968000", "113920.984000", "113920.984000", "113920.984000", "113920.984000", "113920.984000", "113920.984000", "113921.000000", "113940.937000", "113940.937000", "113940.937000", "113940.937000", "113940.953000", "113940.953000", "113940.953000", "113940.953000", "113940.953000", "113940.953000", "113940.953000", "113940.968000", "113940.968000", "113940.968000", "113940.968000", "113940.968000", "113940.968000", "113940.968000", "113940.968000", "113940.984000", "113940.984000", "113940.984000", "113940.984000", "113940.984000", "113940.984000", "114000.937000", "114000.937000", "114000.937000", "114000.953000", "114000.953000", "114000.953000", "114000.953000", "114000.953000", "114000.953000", "114000.968000", "114000.968000", "114000.968000", "114000.968000", "114000.968000", "114000.968000", "114000.968000", "114000.984000", "114000.984000", "114000.984000", "114000.984000", "114000.984000", "114001.000000", "114001.000000", "114001.000000", "114001.000000", "114001.000000", "114020.937000", "114020.937000", "114020.937000", "114020.937000", "114020.953000", "114020.953000", "114020.953000", "114020.953000", "114020.953000", "114020.953000", "114020.953000", "114020.968000", "114020.968000", "114020.968000", "114020.968000", "114020.968000", "114020.968000", "114020.968000", "114020.984000", "114020.984000", "114020.984000", "114020.984000", "114020.984000", "114020.984000", "114020.984000", "114040.937000", "114040.937000", "114040.937000", "114040.937000", "114040.953000", "114040.953000", "114040.953000", "114040.953000", "114040.953000", "114040.953000", "114040.968000", "114040.968000", "114040.968000", "114040.968000", "114040.968000", "114040.968000", "114040.984000", "114040.984000", "114040.984000", "114040.984000", "114040.984000", "114040.984000", "114040.984000", "114041.000000", "114041.000000", "114100.937000", "114100.937000", "114100.937000", "114100.937000", "114100.953000", "114100.953000", "114100.953000", "114100.953000", "114100.953000", "114100.953000", "114100.953000", "114100.953000", "114100.968000", "114100.968000", "114100.968000", "114100.968000", "114100.968000", "114100.968000", "114100.968000", "114100.984000", "114100.984000", "114100.984000", "114100.984000", "114100.984000", "114100.984000", "114100.984000", "114120.937000", "114120.937000", "114120.937000", "114120.937000", "114120.953000", "114120.953000", "114120.953000", "114120.953000", "114120.968000", "114120.968000", "114120.968000", "114120.968000", "114120.968000", "114120.968000", "114120.968000", "114120.984000", "114120.984000", "114120.984000", "114120.984000", "114120.984000", "114120.984000", "114120.984000", "114121.000000", "114121.000000", "114121.000000", "114140.937000", "114140.937000", "114140.937000", "114140.937000", "114140.953000", "114140.953000", "114140.953000", "114140.953000", "114140.953000", "114140.953000", "114140.953000", "114140.968000", "114140.968000", "114140.968000", "114140.968000", "114140.968000", "114140.968000", "114140.968000", "114140.968000", "114140.984000", "114140.984000", "114140.984000", "114140.984000", "114140.984000", "114140.984000", "114140.984000", "114200.937000", "114200.937000", "114200.937000", "114200.937000", "114200.953000", "114200.953000", "114200.953000", "114200.953000", "114200.953000", "114200.953000", "114200.953000", "114200.968000", "114200.968000", "114200.968000", "114200.968000", "114200.968000", "114200.968000", "114200.984000", "114200.984000", "114200.984000", "114200.984000", "114200.984000", "114200.984000", "114201.000000", "114201.000000", "114209.671000", "114209.671000", "114209.687000", "114209.687000", "114209.687000", "114209.687000", "114209.687000", "114209.687000", "114209.687000", "114209.703000", "114209.703000", "114209.703000"],
