{
  "AcquisitionMatrixPE": 104,
  "AcquisitionNumber": 1,
  "AcquisitionTime": "13:29:10.722500",
  "BandwidthPerPixelPhaseEncode": 13.935,
  "BaseResolution": 104,
  "CoilString": "C:HEA;HEP",
  "ConversionSoftware": "dcm2niix",
  "ConversionSoftwareVersion": "v1.0.20210317",
  "DerivedVendorReportedEchoSpacing": 0.000690017,
  "DeviceSerialNumber": "35450",
  "DwellTime": 2.5e-06,
  "EchoTime": 0.0348,
  "EffectiveEchoSpacing": 0.000690017,
  "FlipAngle": 55,
  "ImageComments": "Unaliased MB8/PE3 (remote)",
  "ImageOrientationPatientDICOM": [1, 0, 0, 0, 0.999701, -0.0244322],
  "ImageType": [
    "ORIGINAL",
    "PRIMARY",
    "M",
    "MB",
    "ND",
    "MOSAIC"
],
  "ImagingFrequency": 123.234,
  "InPlanePhaseEncodingDirectionDICOM": "COL",
  "InstitutionAddress": "Univeristy Ave. 197,Newark,North East,US,07102-1814",
  "InstitutionName": "RUBIC",
  "InstitutionalDepartmentName": "Department",
  "MRAcquisitionType": "2D",
  "MagneticFieldStrength": 3,
  "Manufacturer": "Siemens",
  "ManufacturersModelName": "TrioTim",
  "Modality": "MR",
  "MultibandAccelerationFactor": 8,
  "PartialFourier": 0.875,
  "PatientPosition": "HFS",
  "PercentPhaseFOV": 100,
  "PercentSampling": 100,
  "PhaseEncodingDirection": "j-",
  "PhaseEncodingSteps": 91,
  "PhaseResolution": 1,
  "PixelBandwidth": 1923,
  "ProcedureStepDescription": "Cole^Michael",
  "ProtocolName": "cmrr_mbep2d_bold_2mm_MB8_Task_8x",
  "PulseSequenceDetails": "%CustomerSeq%\\cmrr_mbep2d_bold",
  "ReceiveCoilName": "32Ch_Head",
  "ReconMatrixPE": 104,
  "RepetitionTime": 0.785,
  "SAR": 0.144675,
  "ScanOptions": "PFP\\FS",
  "ScanningSequence": "EP",
  "SequenceName": "epfid2d1_104",
  "SequenceVariant": "SK\\SS",
  "SeriesDescription": "cmrr_mbep2d_bold_2mm_MB8_Task_8x",
  "SeriesNumber": 23,
  "ShimSetting": [2129, -488, -7255, 449, 26, -445, 44, 3],
  "SliceThickness": 2,
  "SliceTiming": [0, 0.4375, 0.0875, 0.525, 0.175, 0.6125, 0.2625, 0.7, 0.35, 0, 0.4375, 0.0875, 0.525, 0.175, 0.6125, 0.2625, 0.7, 0.35, 0, 0.4375, 0.0875, 0.525, 0.175, 0.6125, 0.2625, 0.7, 0.35, 0, 0.4375, 0.0875, 0.525, 0.175, 0.6125, 0.2625, 0.7, 0.35, 0, 0.4375, 0.0875, 0.525, 0.175, 0.6125, 0.2625, 0.7, 0.35, 0, 0.4375, 0.0875, 0.525, 0.175, 0.6125, 0.2625, 0.7, 0.35, 0, 0.4375, 0.0875, 0.525, 0.175, 0.6125, 0.2625, 0.7, 0.35, 0, 0.4375, 0.0875, 0.525, 0.175, 0.6125, 0.2625, 0.7, 0.35],
  "SoftwareVersions": "syngo MR B19",
  "SpacingBetweenSlices": 2,
  "StationName": "MRC35450",
  "TaskName": "cpro",
  "TotalReadoutTime": 0.0710717,
  "TxRefAmp": 342.655,
  "dcmmeta_affine": [
    [-2.0, 0.0, 0.0, 106.03389739990234],
    [0.0, 1.9994029998779297, -0.04886435344815254, -84.52958679199219],
    [0.0, 0.04886435344815254, 1.9994029998779297, -92.61527252197266],
    [0.0, 0.0, 0.0, 1.0]
],
  "dcmmeta_reorient_transform": [
    [0.0, -1.0, 0.0, 103.0],
    [1.0, 0.0, 0.0, 0.0],
    [0.0, 0.0, 1.0, 0.0],
    [0.0, 0.0, 0.0, 1.0]
],
  "dcmmeta_shape": [104, 104, 72, 581],
  "dcmmeta_slice_dim": 2,
  "dcmmeta_version": 0.6,
  "global": {
    "const": {
      "AcquisitionMatrix": [104, 0, 0, 104],
      "AngioFlag": "N",
      "BitsAllocated": 16,
      "BitsStored": 12,
      "Columns": 936,
      "EchoNumbers": 1,
      "EchoTime": 34.8,
      "EchoTrainLength": 1,
      "FlipAngle": 55.0,
      "HighBit": 11,
      "ImageOrientationPatient": [1.0, 0.0, 0.0, 0.0, 0.99970148981559, -0.0244321767449],
      "ImagePositionPatient": [-938.03389835358, -953.16056257652, -67.254674400279],
      "ImageType": [
        "ORIGINAL",
        "PRIMARY",
        "M",
        "MB",
        "ND",
        "MOSAIC"
],
      "ImagedNucleus": "1H",
      "ImagingFrequency": 123.234436,
      "InPlanePhaseEncodingDirection": "COL",
      "MRAcquisitionType": "2D",
      "MagneticFieldStrength": 3.0,
      "Manufacturer": "SIEMENS",
      "ManufacturerModelName": "TrioTim",
      "Modality": "MR",
      "NumberOfAverages": 1.0,
      "NumberOfPhaseEncodingSteps": 91,
      "PercentPhaseFieldOfView": 100.0,
      "PercentSampling": 100.0,
      "PerformedProcedureStepStartTime": "120023.203000",
      "PhotometricInterpretation": "MONOCHROME2",
      "PixelBandwidth": 1923.0,
      "PixelRepresentation": 0,
      "PixelSpacing": [2.0, 2.0],
      "ProtocolName": "cmrr_mbep2d_bold_2mm_MB8_Task_8x",
      "RepetitionTime": 785.0,
      "Rows": 936,
      "SAR": 0.14467457270026,
      "SamplesPerPixel": 1,
      "ScanOptions": [
        "PFP",
        "FS"
],
      "ScanningSequence": "EP",
      "SequenceName": "epfid2d1_104",
      "SequenceVariant": [
        "SK",
        "SS"
],
      "SeriesDescription": "cmrr_mbep2d_bold_2mm_MB8_Task_8x",
      "SeriesNumber": 23,
      "SeriesTime": "132929.781000",
      "SliceLocation": -90.52238552615,
      "SliceThickness": 2.0,
      "SmallestImagePixelValue": 0,
      "SoftwareVersions": "syngo MR B19",
      "SpacingBetweenSlices": 1.9999999936567,
      "SpecificCharacterSet": "ISO_IR 100",
      "StudyID": "1",
      "StudyTime": "120023.078000",
      "TransmitCoilName": "Body",
      "VariableFlipAngleFlag": "N",
      "WindowCenterWidthExplanation": "Algo1",
      "dBdt": 0.0},
    "slices": {}
  },
  "time": {
    "samples": {
      "AcquisitionNumber": [1, 2, 3, 4, 5, 6, 7, 8, 9, 10, 11, 12, 13, 14, 15, 16, 17, 18, 19, 20, 21, 22, 23, 24, 25, 26, 27, 28, 29, 30, 31, 32, 33, 34, 35, 36, 37, 38, 39, 40, 41, 42, 43, 44, 45, 46, 47, 48, 49, 50, 51, 52, 53, 54, 55, 56, 57, 58, 59, 60, 61, 62, 63, 64, 65, 66, 67, 68, 69, 70, 71, 72, 73, 74, 75, 76, 77, 78, 79, 80, 81, 82, 83, 84, 85, 86, 87, 88, 89, 90, 91, 92, 93, 94, 95, 96, 97, 98, 99, 100, 101, 102, 103, 104, 105, 106, 107, 108, 109, 110, 111, 112, 113, 114, 115, 116, 117, 118, 119, 120, 121, 122, 123, 124, 125, 126, 127, 128, 129, 130, 131, 132, 133, 134, 135, 136, 137, 138, 139, 140, 141, 142, 143, 144, 145, 146, 147, 148, 149, 150, 151, 152, 153, 154, 155, 156, 157, 158, 159, 160, 161, 162, 163, 164, 165, 166, 167, 168, 169, 170, 171, 172, 173, 174, 175, 176, 177, 178, 179, 180, 181, 182, 183, 184, 185, 186, 187, 188, 189, 190, 191, 192, 193, 194, 195, 196, 197, 198, 199, 200, 201, 202, 203, 204, 205, 206, 207, 208, 209, 210, 211, 212, 213, 214, 215, 216, 217, 218, 219, 220, 221, 222, 223, 224, 225, 226, 227, 228, 229, 230, 231, 232, 233, 234, 235, 236, 237, 238, 239, 240, 241, 242, 243, 244, 245, 246, 247, 248, 249, 250, 251, 252, 253, 254, 255, 256, 257, 258, 259, 260, 261, 262, 263, 264, 265, 266, 267, 268, 269, 270, 271, 272, 273, 274, 275, 276, 277, 278, 279, 280, 281, 282, 283, 284, 285, 286, 287, 288, 289, 290, 291, 292, 293, 294, 295, 296, 297, 298, 299, 300, 301, 302, 303, 304, 305, 306, 307, 308, 309, 310, 311, 312, 313, 314, 315, 316, 317, 318, 319, 320, 321, 322, 323, 324, 325, 326, 327, 328, 329, 330, 331, 332, 333, 334, 335, 336, 337, 338, 339, 340, 341, 342, 343, 344, 345, 346, 347, 348, 349, 350, 351, 352, 353, 354, 355, 356, 357, 358, 359, 360, 361, 362, 363, 364, 365, 366, 367, 368, 369, 370, 371, 372, 373, 374, 375, 376, 377, 378, 379, 380, 381, 382, 383, 384, 385, 386, 387, 388, 389, 390, 391, 392, 393, 394, 395, 396, 397, 398, 399, 400, 401, 402, 403, 404, 405, 406, 407, 408, 409, 410, 411, 412, 413, 414, 415, 416, 417, 418, 419, 420, 421, 422, 423, 424, 425, 426, 427, 428, 429, 430, 431, 432, 433, 434, 435, 436, 437, 438, 439, 440, 441, 442, 443, 444, 445, 446, 447, 448, 449, 450, 451, 452, 453, 454, 455, 456, 457, 458, 459, 460, 461, 462, 463, 464, 465, 466, 467, 468, 469, 470, 471, 472, 473, 474, 475, 476, 477, 478, 479, 480, 481, 482, 483, 484, 485, 486, 487, 488, 489, 490, 491, 492, 493, 494, 495, 496, 497, 498, 499, 500, 501, 502, 503, 504, 505, 506, 507, 508, 509, 510, 511, 512, 513, 514, 515, 516, 517, 518, 519, 520, 521, 522, 523, 524, 525, 526, 527, 528, 529, 530, 531, 532, 533, 534, 535, 536, 537, 538, 539, 540, 541, 542, 543, 544, 545, 546, 547, 548, 549, 550, 551, 552, 553, 554, 555, 556, 557, 558, 559, 560, 561, 562, 563, 564, 565, 566, 567, 568, 569, 570, 571, 572, 573, 574, 575, 576, 577, 578, 579, 580, 581],
      "AcquisitionTime": ["132910.722500", "132911.512500", "132912.300000", "132913.087500", "132913.875000", "132914.665000", "132915.452500", "132916.240000", "132917.027500", "132917.817500", "132918.605000", "132919.392500", "132920.180000", "132920.970000", "132921.757500", "132922.545000", "132923.332500", "132924.122500", "132924.910000", "132925.697500", "132926.485000", "132927.275000", "132928.062500", "132928.850000", "132929.640000", "132930.427500", "132931.215000", "132932.002500", "132932.792500", "132933.580000", "132934.367500", "132935.155000", "132935.945000", "132936.732500", "132937.520000", "132938.307500", "132939.097500", "132939.885000", "132940.672500", "132941.460000", "132942.250000", "132943.037500", "132943.825000", "132944.612500", "132945.402500", "132946.190000", "132946.977500", "132947.767500", "132948.555000", "132949.342500", "132950.130000", "132950.920000", "132951.707500", "132952.495000", "132953.282500", "132954.072500", "132954.860000", "132955.647500", "132956.435000", "132957.225000", "132958.012500", "132958.800000", "132959.587500", "133000.377500", "133001.165000", "133001.952500", "133002.740000", "133003.530000", "133004.317500", "133005.105000", "133005.895000", "133006.682500", "133007.470000", "133008.257500", "133009.047500", "133009.835000", "133010.622500", "133011.410000", "133012.200000", "133012.987500", "133013.775000", "133014.562500", "133015.352500", "133016.140000", "133016.927500", "133017.715000", "133018.505000", "133019.292500", "133020.080000", "133020.867500", "133021.657500", "133022.445000", "133023.232500", "133024.022500", "133024.810000", "133025.597500", "133026.385000", "133027.175000", "133027.962500", "133028.750000", "133029.537500", "133030.327500", "133031.115000", "133031.902500", "133032.690000", "133033.480000", "133034.267500", "133035.055000", "133035.842500", "133036.632500", "133037.420000", "133038.207500", "133038.995000", "133039.785000", "133040.572500", "133041.360000", "133042.150000", "133042.937500", "133043.725000", "133044.512500", "133045.302500", "133046.090000", "133046.877500", "133047.665000", "133048.455000", "133049.242500", "133050.030000", "133050.817500", "133051.607500", "133052.395000", "133053.182500", "133053.970000", "133054.760000", "133055.547500", "133056.335000", "133057.125000", "133057.912500", "133058.700000", "133059.487500", "133100.277500", "133101.065000", "133101.852500", "133102.640000", "133103.430000", "133104.217500", "133105.005000", "133105.792500", "133106.582500", "133107.370000", "133108.157500", "133108.945000", "133109.735000", "133110.522500", "133111.310000", "133112.097500", "133112.887500", "133113.675000", "133114.462500", "133115.252500", "133116.040000", "133116.827500", "133117.615000", "133118.405000", "133119.192500", "133119.980000", "133120.767500", "133121.557500", "133122.345000", "133123.132500", "133123.920000", "133124.710000", "133125.497500", "133126.285000", "133127.072500", "133127.862500", "133128.650000", "133129.437500", "133130.225000", "133131.015000", "133131.802500", "133132.590000", "133133.380000", "133134.167500", "133134.955000", "133135.742500", "133136.532500", "133137.320000", "133138.107500", "133138.895000", "133139.685000", "133140.472500", "133141.260000", "133142.047500", "133142.837500", "133143.625000", "133144.412500", "133145.200000", "133145.990000", "133146.777500", "133147.565000", "133148.352500", "133149.142500", "133149.930000", "133150.717500", "133151.507500", "133152.295000", "133153.082500", "133153.870000", "133154.660000", "133155.447500", "133156.235000", "133157.022500", "133157.812500", "133158.600000", "133159.387500", "133200.175000", "133200.965000", "133201.752500", "133202.540000", "133203.327500", "133204.117500", "133204.905000", "133205.692500", "133206.480000", "133207.270000", "133208.057500", "133208.845000", "133209.635000", "133210.422500", "133211.210000", "133211.997500", "133212.787500", "133213.575000", "133214.362500", "133215.150000", "133215.940000", "133216.727500", "133217.515000", "133218.302500", "133219.092500", "133219.880000", "133220.667500", "133221.455000", "133222.245000", "133223.032500", "133223.820000", "133224.607500", "133225.397500", "133226.185000", "133226.972500", "133227.762500", "133228.550000", "133229.337500", "133230.125000", "133230.915000", "133231.702500", "133232.490000", "133233.277500", "133234.067500", "133234.855000", "133235.642500", "133236.430000", "133237.220000", "133238.007500", "133238.795000", "133239.582500", "133240.372500", "133241.160000", "133241.947500", "133242.735000", "133243.525000", "133244.312500", "133245.100000", "133245.890000", "133246.677500", "133247.465000", "133248.252500", "133249.042500", "133249.830000", "133250.617500", "133251.405000", "133252.195000", "133252.982500", "133253.770000", "133254.557500", "133255.347500", "133256.135000", "133256.922500", "133257.710000", "133258.500000", "133259.287500", "133300.075000", "133300.862500", "133301.652500", "133302.440000", "133303.227500", "133304.017500", "133304.805000", "133305.592500", "133306.380000", "133307.170000", "133307.957500", "133308.745000", "133309.532500", "133310.322500", "133311.110000", "133311.897500", "133312.685000", "133313.475000", "133314.262500", "133315.050000", "133315.837500", "133316.627500", "133317.415000", "133318.202500", "133318.990000", "133319.780000", "133320.567500", "133321.355000", "133322.145000", "133322.932500", "133323.720000", "133324.507500", "133325.297500", "133326.085000", "133326.872500", "133327.660000", "133328.450000", "133329.237500", "133330.025000", "133330.812500", "133331.602500", "133332.390000", "133333.177500", "133333.965000", "133334.755000", "133335.542500", "133336.330000", "133337.117500", "133337.907500", "133338.695000", "133339.482500", "133340.272500", "133341.060000", "133341.847500", "133342.635000", "133343.425000", "133344.212500", "133345.000000", "133345.787500", "133346.577500", "133347.365000", "133348.152500", "133348.940000", "133349.730000", "133350.517500", "133351.305000", "133352.092500", "133352.882500", "133353.670000", "133354.457500", "133355.245000", "133356.035000", "133356.822500", "133357.610000", "133358.400000", "133359.187500", "133359.975000", "133400.762500", "133401.552500", "133402.340000", "133403.127500", "133403.915000", "133404.705000", "133405.492500", "133406.280000", "133407.067500", "133407.857500", "133408.645000", "133409.432500", "133410.220000", "133411.010000", "133411.797500", "133412.585000", "133413.375000", "133414.162500", "133414.950000", "133415.737500", "133416.527500", "133417.315000", "133418.102500", "133418.890000", "133419.680000", "133420.467500", "133421.255000", "133422.042500", "133422.832500", "133423.620000", "133424.407500", "133425.195000", "133425.985000", "133426.772500", "133427.560000", "133428.347500", "133429.137500", "133429.925000", "133430.712500", "133431.502500", "133432.290000", "133433.077500", "133433.865000", "133434.655000", "133435.442500", "133436.230000", "133437.017500", "133437.807500", "133438.595000", "133439.382500", "133440.170000", "133440.960000", "133441.747500", "133442.535000", "133443.322500", "133444.112500", "133444.900000", "133445.687500", "133446.475000", "133447.265000", "133448.052500", "133448.840000", "133449.630000", "133450.417500", "133451.205000", "133451.992500", "133452.782500", "133453.570000", "133454.357500", "133455.145000", "133455.935000", "133456.722500", "133457.510000", "133458.297500", "133459.087500", "133459.875000", "133500.662500", "133501.450000", "133502.240000", "133503.027500", "133503.815000", "133504.602500", "133505.392500", "133506.180000", "133506.967500", "133507.757500", "133508.545000", "133509.332500", "133510.120000", "133510.910000", "133511.697500", "133512.485000", "133513.272500", "133514.062500", "133514.850000", "133515.637500", "133516.425000", "133517.215000", "133518.002500", "133518.790000", "133519.577500", "133520.367500", "133521.155000", "133521.942500", "133522.730000", "133523.520000", "133524.307500", "133525.095000", "133525.885000", "133526.672500", "133527.460000", "133528.247500", "133529.037500", "133529.825000", "133530.612500", "133531.400000", "133532.190000", "133532.977500", "133533.765000", "133534.552500", "133535.342500", "133536.130000", "133536.917500", "133537.705000", "133538.495000", "133539.282500", "133540.070000", "133540.857500", "133541.647500", "133542.435000", "133543.222500", "133544.012500", "133544.800000", "133545.587500", "133546.375000", "133547.165000", "133547.952500", "133548.740000", "133549.527500", "133550.317500", "133551.105000", "133551.892500", "133552.680000", "133553.470000", "133554.257500", "133555.045000", "133555.832500", "133556.622500", "133557.410000", "133558.197500", "133558.985000", "133559.775000", "133600.562500", "133601.350000", "133602.140000", "133602.927500", "133603.715000", "133604.502500", "133605.292500", "133606.080000", "133606.867500", "133607.655000", "133608.445000", "133609.232500", "133610.020000", "133610.807500", "133611.597500", "133612.385000", "133613.172500", "133613.960000", "133614.750000", "133615.537500", "133616.325000", "133617.112500", "133617.902500", "133618.690000", "133619.477500", "133620.267500", "133621.055000", "133621.842500", "133622.630000", "133623.420000", "133624.207500", "133624.995000", "133625.782500", "133626.572500", "133627.360000", "133628.147500", "133628.935000", "133629.725000", "133630.512500", "133631.300000", "133632.087500", "133632.877500", "133633.665000", "133634.452500", "133635.240000", "133636.030000", "133636.817500", "133637.605000", "133638.395000", "133639.182500", "133639.970000", "133640.757500", "133641.547500", "133642.335000", "133643.122500", "133643.910000", "133644.700000", "133645.487500", "133646.275000", "133647.062500", "133647.852500"],
      "ContentTime": ["132929.781000", "132929.796000", "132929.796000", "132929.796000", "132929.796000", "132929.796000", "132929.796000", "132929.796000", "132929.812000", "132929.812000", "132929.812000", "132929.812000", "132929.812000", "132929.812000", "132929.812000", "132929.828000", "132929.828000", "132929.828000", "132929.828000", "132929.828000", "132929.828000", "132929.828000", "132949.765000", "132949.765000", "132949.765000", "132949.765000", "132949.765000", "132949.765000", "132949.781000", "132949.781000", "132949.781000", "132949.781000", "132949.781000", "132949.781000", "132949.796000", "132949.796000", "132949.796000", "132949.796000", "132949.796000", "132949.812000", "132949.812000", "132949.812000", "132949.812000", "132949.812000", "132949.828000", "132949.828000", "132949.828000", "133009.765000", "133009.765000", "133009.765000", "133009.765000", "133009.765000", "133009.765000", "133009.781000", "133009.781000", "133009.781000", "133009.781000", "133009.781000", "133009.781000", "133009.796000", "133009.796000", "133009.796000", "133009.796000", "133009.796000", "133009.796000", "133009.796000", "133009.812000", "133009.812000", "133009.812000", "133009.812000", "133009.812000", "133009.812000", "133009.828000", "133029.765000", "133029.765000", "133029.765000", "133029.765000", "133029.765000", "133029.765000", "133029.781000", "133029.781000", "133029.781000", "133029.781000", "133029.781000", "133029.781000", "133029.781000", "133029.796000", "133029.796000", "133029.796000", "133029.796000", "133029.796000", "133029.796000", "133029.796000", "133029.812000", "133029.812000", "133029.812000", "133029.812000", "133029.812000", "133049.765000", "133049.765000", "133049.765000", "133049.765000", "133049.765000", "133049.765000", "133049.781000", "133049.781000", "133049.781000", "133049.781000", "133049.781000", "133049.781000", "133049.781000", "133049.796000", "133049.796000", "133049.796000", "133049.796000", "133049.796000", "133049.812000", "133049.812000", "133049.812000", "133049.812000", "133049.812000", "133049.812000", "133049.828000", "133049.828000", "133109.765000", "133109.765000", "133109.765000", "133109.765000", "133109.765000", "133109.781000", "133109.781000", "133109.781000", "133109.781000", "133109.781000", "133109.781000", "133109.781000", "133109.796000", "133109.796000", "133109.796000", "133109.796000", "133109.796000", "133109.796000", "133109.796000", "133109.812000", "133109.812000", "133109.812000", "133109.812000", "133109.812000", "133109.828000", "133129.765000", "133129.765000", "133129.765000", "133129.765000", "133129.765000", "133129.765000", "133129.781000", "133129.781000", "133129.781000", "133129.781000", "133129.781000", "133129.781000", "133129.781000", "133129.796000", "133129.796000", "133129.796000", "133129.796000", "133129.796000", "133129.796000", "133129.812000", "133129.812000", "133129.812000", "133129.812000", "133129.812000", "133129.812000", "133129.812000", "133149.765000", "133149.765000", "133149.765000", "133149.765000", "133149.781000", "133149.781000", "133149.781000", "133149.781000", "133149.781000", "133149.781000", "133149.796000", "133149.796000", "133149.796000", "133149.796000", "133149.796000", "133149.796000", "133149.796000", "133149.812000", "133149.812000", "133149.812000", "133149.812000", "133149.812000", "133149.812000", "133149.812000", "133149.828000", "133209.765000", "133209.765000", "133209.765000", "133209.765000", "133209.765000", "133209.765000", "133209.781000", "133209.781000", "133209.781000", "133209.781000", "133209.781000", "133209.781000", "133209.796000", "133209.796000", "133209.796000", "133209.796000", "133209.796000", "133209.796000", "133209.796000", "133209.812000", "133209.812000", "133209.812000", "133209.812000", "133209.812000", "133209.828000", "133209.828000", "133229.765000", "133229.765000", "133229.765000", "133229.765000", "133229.765000", "133229.765000", "133229.781000", "133229.781000", "133229.781000", "133229.781000", "133229.781000", "133229.781000", "133229.796000", "133229.796000", "133229.796000", "133229.796000", "133229.796000", "133229.796000", "133229.812000", "133229.812000", "133229.812000", "133229.812000", "133229.812000", "133229.812000", "133229.812000", "133249.765000", "133249.765000", "133249.765000", "133249.765000", "133249.765000", "133249.765000", "133249.781000", "133249.781000", "133249.781000", "133249.781000", "133249.796000", "133249.796000", "133249.796000", "133249.796000", "133249.796000", "133249.796000", "133249.812000", "133249.812000", "133249.812000", "133249.812000", "133249.812000", "133249.812000", "133249.812000", "133249.828000", "133249.828000", "133249.828000", "133309.765000", "133309.765000", "133309.765000", "133309.781000", "133309.781000", "133309.781000", "133309.781000", "133309.796000", "133309.796000", "133309.796000", "133309.796000", "133309.796000", "133309.796000", "133309.812000", "133309.812000", "133309.812000", "133309.812000", "133309.812000", "133309.812000", "133309.812000", "133309.828000", "133309.828000", "133309.828000", "133309.828000", "133309.828000", "133329.765000", "133329.765000", "133329.765000", "133329.765000", "133329.765000", "133329.765000", "133329.781000", "133329.781000", "133329.781000", "133329.781000", "133329.781000", "133329.781000", "133329.796000", "133329.796000", "133329.796000", "133329.796000", "133329.796000", "133329.796000", "133329.796000", "133329.812000", "133329.812000", "133329.812000", "133329.812000", "133329.812000", "133329.812000", "133329.812000", "133349.765000", "133349.765000", "133349.765000", "133349.765000", "133349.765000", "133349.765000", "133349.781000", "133349.781000", "133349.781000", "133349.781000", "133349.781000", "133349.781000", "133349.796000", "133349.796000", "133349.796000", "133349.796000", "133349.796000", "133349.796000", "133349.796000", "133349.812000", "133349.812000", "133349.812000", "133349.812000", "133349.812000", "133349.812000", "133409.765000", "133409.765000", "133409.765000", "133409.765000", "133409.765000", "133409.781000", "133409.781000", "133409.781000", "133409.781000", "133409.781000", "133409.781000", "133409.796000", "133409.796000", "133409.796000", "133409.796000", "133409.796000", "133409.796000", "133409.812000", "133409.812000", "133409.812000", "133409.812000", "133409.812000", "133409.812000", "133409.812000", "133409.828000", "133409.828000", "133429.765000", "133429.765000", "133429.765000", "133429.765000", "133429.765000", "133429.781000", "133429.781000", "133429.781000", "133429.781000", "133429.781000", "133429.781000", "133429.796000", "133429.796000", "133429.796000", "133429.796000", "133429.796000", "133429.796000", "133429.796000", "133429.812000", "133429.812000", "133429.812000", "133429.812000", "133429.812000", "133429.812000", "133429.812000", "133449.765000", "133449.765000", "133449.765000", "133449.765000", "133449.765000", "133449.765000", "133449.781000", "133449.781000", "133449.781000", "133449.781000", "133449.781000", "133449.781000", "133449.796000", "133449.796000", "133449.796000", "133449.796000", "133449.796000", "133449.796000", "133449.796000", "133449.812000", "133449.812000", "133449.812000", "133449.812000", "133449.812000", "133449.812000", "133449.812000", "133509.765000", "133509.765000", "133509.765000", "133509.765000", "133509.765000", "133509.765000", "133509.781000", "133509.781000", "133509.781000", "133509.781000", "133509.781000", "133509.781000", "133509.796000", "133509.796000", "133509.796000", "133509.796000", "133509.796000", "133509.796000", "133509.796000", "133509.812000", "133509.812000", "133509.812000", "133509.812000", "133509.812000", "133509.828000", "133529.765000", "133529.765000", "133529.765000", "133529.765000", "133529.765000", "133529.765000", "133529.781000", "133529.781000", "133529.781000", "133529.781000", "133529.796000", "133529.796000", "133529.796000", "133529.796000", "133529.796000", "133529.796000", "133529.796000", "133529.812000", "133529.812000", "133529.812000", "133529.812000", "133529.812000", "133529.812000", "133529.828000", "133529.828000", "133529.828000", "133549.765000", "133549.765000", "133549.765000", "133549.765000", "133549.765000", "133549.765000", "133549.781000", "133549.781000", "133549.781000", "133549.781000", "133549.781000", "133549.781000", "133549.781000", "133549.796000", "133549.796000", "133549.796000", "133549.796000", "133549.796000", "133549.796000", "133549.796000", "133549.812000", "133549.812000", "133549.812000", "133549.812000", "133549.828000", "133609.765000", "133609.765000", "133609.765000", "133609.765000", "133609.781000", "133609.781000", "133609.781000", "133609.781000", "133609.781000", "133609.781000", "133609.781000", "133609.796000", "133609.796000", "133609.796000", "133609.796000", "133609.796000", "133609.796000", "133609.812000", "133609.812000", "133609.812000", "133609.812000", "133609.812000", "133609.812000", "133609.828000", "133609.828000", "133629.765000", "133629.765000", "133629.765000", "133629.765000", "133629.765000", "133629.765000", "133629.781000", "133629.781000", "133629.781000", "133629.781000", "133629.781000", "133629.781000", "133629.796000", "133629.796000", "133629.796000", "133629.796000", "133629.796000", "133629.796000", "133629.796000", "133629.812000", "133629.812000", "133629.812000", "133629.812000", "133629.812000", "133629.812000", "133629.828000", "133648.328000", "133648.328000", "133648.328000", "133648.328000", "133648.328000", "133648.328000", "133648.343000", "133648.343000", "133648.343000", "133648.343000", "133648.343000", "133648.343000", "133648.343000", "133648.359000", "133648.359000", "133648.359000", "133648.359000", "133648.359000", "133648.359000", "133648.375000", "133648.375000", "133648.375000", "133648.375000", "133648.375000"],
      "DataSetTrailingPadding": [
        "\u0000\u0000\u0000\u0000\u0000\u0000\u0000\u0000\u0000\u0000\u0000\u0000\u0000\u0000\u0000\u0000\u0000\u0000\u0000\u0000\u0000\u0000\u0000\u0000\u0000\u0000\u0000\u0000\u0000\u0000\u0000\u0000\u0000\u0000\u0000\u0000\u0000\u0000\u0000\u0000\u0000\u0000\u0000\u0000\u0000\u0000\u0000\u0000\u0000\u0000\u0000\u0000\u0000\u0000\u0000\u0000\u0000\u0000\u0000\u0000\u0000\u0000\u0000\u0000\u0000\u0000\u0000\u0000\u0000\u0000\u0000\u0000\u0000\u0000\u0000\u0000\u0000\u0000\u0000\u0000\u0000\u0000\u0000\u0000\u0000\u0000\u0000\u0000\u0000\u0000\u0000\u0000\u0000\u0000\u0000\u0000\u0000\u0000\u0000\u0000\u0000\u0000\u0000\u0000\u0000\u0000\u0000\u0000\u0000\u0000\u0000\u0000\u0000\u0000\u0000\u0000\u0000\u0000\u0000\u0000\u0000\u0000\u0000\u0000\u0000\u0000\u0000\u0000\u0000\u0000\u0000\u0000\u0000\u0000\u0000\u0000\u0000\u0000\u0000\u0000\u0000\u0000\u0000\u0000\u0000\u0000\u0000\u0000\u0000\u0000",
        "\u0000\u0000\u0000\u0000\u0000\u0000\u0000\u0000\u0000\u0000\u0000\u0000\u0000\u0000\u0000\u0000\u0000\u0000\u0000\u0000\u0000\u0000\u0000\u0000\u0000\u0000\u0000\u0000\u0000\u0000\u0000\u0000\u0000\u0000\u0000\u0000\u0000\u0000\u0000\u0000\u0000\u0000\u0000\u0000\u0000\u0000\u0000\u0000\u0000\u0000\u0000\u0000\u0000\u0000\u0000\u0000\u0000\u0000\u0000\u0000\u0000\u0000\u0000\u0000\u0000\u0000\u0000\u0000\u0000\u0000\u0000\u0000\u0000\u0000\u0000\u0000\u0000\u0000\u0000\u0000\u0000\u0000\u0000\u0000\u0000\u0000\u0000\u0000\u0000\u0000\u0000\u0000\u0000\u0000\u0000\u0000\u0000\u0000\u0000\u0000\u0000\u0000\u0000\u0000\u0000\u0000\u0000\u0000\u0000\u0000\u0000\u0000\u0000\u0000\u0000\u0000\u0000\u0000\u0000\u0000\u0000\u0000\u0000\u0000\u0000\u0000\u0000\u0000\u0000\u0000\u0000\u0000\u0000\u0000\u0000\u0000\u0000\u0000\u0000\u0000\u0000\u0000\u0000\u0000\u0000\u0000\u0000\u0000\u0000\u0000\u0000\u0000",
