{
  "AcquisitionMatrixPE": 104,
  "AcquisitionNumber": 1,
  "AcquisitionTime": "12:20:12.407500",
  "BandwidthPerPixelPhaseEncode": 13.935,
  "BaseResolution": 104,
  "CoilString": "C:HEA;HEP",
  "ConversionSoftware": "dcm2niix",
  "ConversionSoftwareVersion": "v1.0.20210317",
  "DerivedVendorReportedEchoSpacing": 0.000690017,
  "DeviceSerialNumber": "35450",
  "DwellTime": 2.5e-06,
  "EchoTime": 0.0348,
  "EffectiveEchoSpacing": 0.000690017,
  "FlipAngle": 55,
  "ImageComments": "Unaliased MB8/PE3 (remote)",
  "ImageOrientationPatientDICOM": [1, 0, 0, 0, 0.999701, -0.0244322],
  "ImageType": [
    "ORIGINAL",
    "PRIMARY",
    "M",
    "MB",
    "ND",
    "MOSAIC"
],
  "ImagingFrequency": 123.234,
  "InPlanePhaseEncodingDirectionDICOM": "COL",
  "InstitutionAddress": "Univeristy Ave. 197,Newark,North East,US,07102-1814",
  "InstitutionName": "RUBIC",
  "InstitutionalDepartmentName": "Department",
  "MRAcquisitionType": "2D",
  "MagneticFieldStrength": 3,
  "Manufacturer": "Siemens",
  "ManufacturersModelName": "TrioTim",
  "Modality": "MR",
  "MultibandAccelerationFactor": 8,
  "PartialFourier": 0.875,
  "PatientPosition": "HFS",
  "PercentPhaseFOV": 100,
  "PercentSampling": 100,
  "PhaseEncodingDirection": "j-",
  "PhaseEncodingSteps": 91,
  "PhaseResolution": 1,
  "PixelBandwidth": 1923,
  "ProcedureStepDescription": "Cole^Michael",
  "ProtocolName": "cmrr_mbep2d_bold_2mm_MB8_Rest",
  "PulseSequenceDetails": "%CustomerSeq%\\cmrr_mbep2d_bold",
  "ReceiveCoilName": "32Ch_Head",
  "ReconMatrixPE": 104,
  "RepetitionTime": 0.785,
  "SAR": 0.15493,
  "ScanOptions": "PFP\\FS",
  "ScanningSequence": "EP",
  "SequenceName": "epfid2d1_104",
  "SequenceVariant": "SK\\SS",
  "SeriesDescription": "cmrr_mbep2d_bold_2mm_MB8_Rest",
  "SeriesNumber": 9,
  "ShimSetting": [2129, -488, -7255, 449, 26, -445, 44, 3],
  "SliceThickness": 2,
  "SliceTiming": [0, 0.4375, 0.0875, 0.525, 0.175, 0.6125, 0.2625, 0.7, 0.35, 0, 0.4375, 0.0875, 0.525, 0.175, 0.6125, 0.2625, 0.7, 0.35, 0, 0.4375, 0.0875, 0.525, 0.175, 0.6125, 0.2625, 0.7, 0.35, 0, 0.4375, 0.0875, 0.525, 0.175, 0.6125, 0.2625, 0.7, 0.35, 0, 0.4375, 0.0875, 0.525, 0.175, 0.6125, 0.2625, 0.7, 0.35, 0, 0.4375, 0.0875, 0.525, 0.175, 0.6125, 0.2625, 0.7, 0.35, 0, 0.4375, 0.0875, 0.525, 0.175, 0.6125, 0.2625, 0.7, 0.35, 0, 0.4375, 0.0875, 0.525, 0.175, 0.6125, 0.2625, 0.7, 0.35],
  "SoftwareVersions": "syngo MR B19",
  "SpacingBetweenSlices": 2,
  "StationName": "MRC35450",
  "TaskName": "rest",
  "TotalReadoutTime": 0.0710717,
  "TxRefAmp": 342.655,
  "dcmmeta_affine": [
    [-2.0, 0.0, 0.0, 106.03389739990234],
    [0.0, 1.9994029998779297, -0.04886435344815254, -84.52958679199219],
    [0.0, 0.04886435344815254, 1.9994029998779297, -92.61527252197266],
    [0.0, 0.0, 0.0, 1.0]
],
  "dcmmeta_reorient_transform": [
    [0.0, -1.0, 0.0, 103.0],
    [1.0, 0.0, 0.0, 0.0],
    [0.0, 0.0, 1.0, 0.0],
    [0.0, 0.0, 0.0, 1.0]
],
  "dcmmeta_shape": [104, 104, 72, 1070],
  "dcmmeta_slice_dim": 2,
  "dcmmeta_version": 0.6,
  "global": {
    "const": {
      "AcquisitionMatrix": [104, 0, 0, 104],
      "AngioFlag": "N",
      "BitsAllocated": 16,
      "BitsStored": 12,
      "Columns": 936,
      "EchoNumbers": 1,
      "EchoTime": 34.8,
      "EchoTrainLength": 1,
      "FlipAngle": 55.0,
      "HighBit": 11,
      "ImageOrientationPatient": [1.0, 0.0, 0.0, 0.0, 0.99970148981559, -0.0244321767449],
      "ImagePositionPatient": [-938.03389835358, -953.16056257652, -67.254674400279],
      "ImageType": [
        "ORIGINAL",
        "PRIMARY",
        "M",
        "MB",
        "ND",
        "MOSAIC"
],
      "ImagedNucleus": "1H",
      "ImagingFrequency": 123.234375,
      "InPlanePhaseEncodingDirection": "COL",
      "MRAcquisitionType": "2D",
      "MagneticFieldStrength": 3.0,
      "Manufacturer": "SIEMENS",
      "ManufacturerModelName": "TrioTim",
      "Modality": "MR",
      "NumberOfAverages": 1.0,
      "NumberOfPhaseEncodingSteps": 91,
      "PercentPhaseFieldOfView": 100.0,
      "PercentSampling": 100.0,
      "PerformedProcedureStepStartTime": "120023.203000",
      "PhotometricInterpretation": "MONOCHROME2",
      "PixelBandwidth": 1923.0,
      "PixelRepresentation": 0,
      "PixelSpacing": [2.0, 2.0],
      "ProtocolName": "cmrr_mbep2d_bold_2mm_MB8_Rest",
      "RepetitionTime": 785.0,
      "Rows": 936,
      "SAR": 0.15493032510893,
      "SamplesPerPixel": 1,
      "ScanOptions": [
        "PFP",
        "FS"
],
      "ScanningSequence": "EP",
      "SequenceName": "epfid2d1_104",
      "SequenceVariant": [
        "SK",
        "SS"
],
      "SeriesDescription": "cmrr_mbep2d_bold_2mm_MB8_Rest",
      "SeriesNumber": 9,
      "SeriesTime": "122029.796000",
      "SliceLocation": -90.52238552615,
      "SliceThickness": 2.0,
      "SmallestImagePixelValue": 0,
      "SoftwareVersions": "syngo MR B19",
      "SpacingBetweenSlices": 1.9999999936567,
      "SpecificCharacterSet": "ISO_IR 100",
      "StudyID": "1",
      "StudyTime": "120023.078000",
      "TransmitCoilName": "Body",
      "VariableFlipAngleFlag": "N",
      "WindowCenterWidthExplanation": "Algo1",
      "dBdt": 0.0},
    "slices": {}
  },
  "time": {
    "samples": {
      "AcquisitionNumber": [1, 2, 3, 4, 5, 6, 7, 8, 9, 10, 11, 12, 13, 14, 15, 16, 17, 18, 19, 20, 21, 22, 23, 24, 25, 26, 27, 28, 29, 30, 31, 32, 33, 34, 35, 36, 37, 38, 39, 40, 41, 42, 43, 44, 45, 46, 47, 48, 49, 50, 51, 52, 53, 54, 55, 56, 57, 58, 59, 60, 61, 62, 63, 64, 65, 66, 67, 68, 69, 70, 71, 72, 73, 74, 75, 76, 77, 78, 79, 80, 81, 82, 83, 84, 85, 86, 87, 88, 89, 90, 91, 92, 93, 94, 95, 96, 97, 98, 99, 100, 101, 102, 103, 104, 105, 106, 107, 108, 109, 110, 111, 112, 113, 114, 115, 116, 117, 118, 119, 120, 121, 122, 123, 124, 125, 126, 127, 128, 129, 130, 131, 132, 133, 134, 135, 136, 137, 138, 139, 140, 141, 142, 143, 144, 145, 146, 147, 148, 149, 150, 151, 152, 153, 154, 155, 156, 157, 158, 159, 160, 161, 162, 163, 164, 165, 166, 167, 168, 169, 170, 171, 172, 173, 174, 175, 176, 177, 178, 179, 180, 181, 182, 183, 184, 185, 186, 187, 188, 189, 190, 191, 192, 193, 194, 195, 196, 197, 198, 199, 200, 201, 202, 203, 204, 205, 206, 207, 208, 209, 210, 211, 212, 213, 214, 215, 216, 217, 218, 219, 220, 221, 222, 223, 224, 225, 226, 227, 228, 229, 230, 231, 232, 233, 234, 235, 236, 237, 238, 239, 240, 241, 242, 243, 244, 245, 246, 247, 248, 249, 250, 251, 252, 253, 254, 255, 256, 257, 258, 259, 260, 261, 262, 263, 264, 265, 266, 267, 268, 269, 270, 271, 272, 273, 274, 275, 276, 277, 278, 279, 280, 281, 282, 283, 284, 285, 286, 287, 288, 289, 290, 291, 292, 293, 294, 295, 296, 297, 298, 299, 300, 301, 302, 303, 304, 305, 306, 307, 308, 309, 310, 311, 312, 313, 314, 315, 316, 317, 318, 319, 320, 321, 322, 323, 324, 325, 326, 327, 328, 329, 330, 331, 332, 333, 334, 335, 336, 337, 338, 339, 340, 341, 342, 343, 344, 345, 346, 347, 348, 349, 350, 351, 352, 353, 354, 355, 356, 357, 358, 359, 360, 361, 362, 363, 364, 365, 366, 367, 368, 369, 370, 371, 372, 373, 374, 375, 376, 377, 378, 379, 380, 381, 382, 383, 384, 385, 386, 387, 388, 389, 390, 391, 392, 393, 394, 395, 396, 397, 398, 399, 400, 401, 402, 403, 404, 405, 406, 407, 408, 409, 410, 411, 412, 413, 414, 415, 416, 417, 418, 419, 420, 421, 422, 423, 424, 425, 426, 427, 428, 429, 430, 431, 432, 433, 434, 435, 436, 437, 438, 439, 440, 441, 442, 443, 444, 445, 446, 447, 448, 449, 450, 451, 452, 453, 454, 455, 456, 457, 458, 459, 460, 461, 462, 463, 464, 465, 466, 467, 468, 469, 470, 471, 472, 473, 474, 475, 476, 477, 478, 479, 480, 481, 482, 483, 484, 485, 486, 487, 488, 489, 490, 491, 492, 493, 494, 495, 496, 497, 498, 499, 500, 501, 502, 503, 504, 505, 506, 507, 508, 509, 510, 511, 512, 513, 514, 515, 516, 517, 518, 519, 520, 521, 522, 523, 524, 525, 526, 527, 528, 529, 530, 531, 532, 533, 534, 535, 536, 537, 538, 539, 540, 541, 542, 543, 544, 545, 546, 547, 548, 549, 550, 551, 552, 553, 554, 555, 556, 557, 558, 559, 560, 561, 562, 563, 564, 565, 566, 567, 568, 569, 570, 571, 572, 573, 574, 575, 576, 577, 578, 579, 580, 581, 582, 583, 584, 585, 586, 587, 588, 589, 590, 591, 592, 593, 594, 595, 596, 597, 598, 599, 600, 601, 602, 603, 604, 605, 606, 607, 608, 609, 610, 611, 612, 613, 614, 615, 616, 617, 618, 619, 620, 621, 622, 623, 624, 625, 626, 627, 628, 629, 630, 631, 632, 633, 634, 635, 636, 637, 638, 639, 640, 641, 642, 643, 644, 645, 646, 647, 648, 649, 650, 651, 652, 653, 654, 655, 656, 657, 658, 659, 660, 661, 662, 663, 664, 665, 666, 667, 668, 669, 670, 671, 672, 673, 674, 675, 676, 677, 678, 679, 680, 681, 682, 683, 684, 685, 686, 687, 688, 689, 690, 691, 692, 693, 694, 695, 696, 697, 698, 699, 700, 701, 702, 703, 704, 705, 706, 707, 708, 709, 710, 711, 712, 713, 714, 715, 716, 717, 718, 719, 720, 721, 722, 723, 724, 725, 726, 727, 728, 729, 730, 731, 732, 733, 734, 735, 736, 737, 738, 739, 740, 741, 742, 743, 744, 745, 746, 747, 748, 749, 750, 751, 752, 753, 754, 755, 756, 757, 758, 759, 760, 761, 762, 763, 764, 765, 766, 767, 768, 769, 770, 771, 772, 773, 774, 775, 776, 777, 778, 779, 780, 781, 782, 783, 784, 785, 786, 787, 788, 789, 790, 791, 792, 793, 794, 795, 796, 797, 798, 799, 800, 801, 802, 803, 804, 805, 806, 807, 808, 809, 810, 811, 812, 813, 814, 815, 816, 817, 818, 819, 820, 821, 822, 823, 824, 825, 826, 827, 828, 829, 830, 831, 832, 833, 834, 835, 836, 837, 838, 839, 840, 841, 842, 843, 844, 845, 846, 847, 848, 849, 850, 851, 852, 853, 854, 855, 856, 857, 858, 859, 860, 861, 862, 863, 864, 865, 866, 867, 868, 869, 870, 871, 872, 873, 874, 875, 876, 877, 878, 879, 880, 881, 882, 883, 884, 885, 886, 887, 888, 889, 890, 891, 892, 893, 894, 895, 896, 897, 898, 899, 900, 901, 902, 903, 904, 905, 906, 907, 908, 909, 910, 911, 912, 913, 914, 915, 916, 917, 918, 919, 920, 921, 922, 923, 924, 925, 926, 927, 928, 929, 930, 931, 932, 933, 934, 935, 936, 937, 938, 939, 940, 941, 942, 943, 944, 945, 946, 947, 948, 949, 950, 951, 952, 953, 954, 955, 956, 957, 958, 959, 960, 961, 962, 963, 964, 965, 966, 967, 968, 969, 970, 971, 972, 973, 974, 975, 976, 977, 978, 979, 980, 981, 982, 983, 984, 985, 986, 987, 988, 989, 990, 991, 992, 993, 994, 995, 996, 997, 998, 999, 1000, 1001, 1002, 1003, 1004, 1005, 1006, 1007, 1008, 1009, 1010, 1011, 1012, 1013, 1014, 1015, 1016, 1017, 1018, 1019, 1020, 1021, 1022, 1023, 1024, 1025, 1026, 1027, 1028, 1029, 1030, 1031, 1032, 1033, 1034, 1035, 1036, 1037, 1038, 1039, 1040, 1041, 1042, 1043, 1044, 1045, 1046, 1047, 1048, 1049, 1050, 1051, 1052, 1053, 1054, 1055, 1056, 1057, 1058, 1059, 1060, 1061, 1062, 1063, 1064, 1065, 1066, 1067, 1068, 1069, 1070],
      "AcquisitionTime": ["122012.407500", "122013.195000", "122013.982500", "122014.770000", "122015.560000", "122016.347500", "122017.135000", "122017.922500", "122018.712500", "122019.500000", "122020.287500", "122021.075000", "122021.865000", "122022.652500", "122023.440000", "122024.227500", "122025.017500", "122025.805000", "122026.592500", "122027.382500", "122028.170000", "122028.957500", "122029.745000", "122030.535000", "122031.322500", "122032.110000", "122032.897500", "122033.687500", "122034.475000", "122035.262500", "122036.050000", "122036.840000", "122037.627500", "122038.415000", "122039.202500", "122039.992500", "122040.780000", "122041.567500", "122042.355000", "122043.145000", "122043.932500", "122044.720000", "122045.510000", "122046.297500", "122047.085000", "122047.872500", "122048.662500", "122049.450000", "122050.237500", "122051.025000", "122051.815000", "122052.602500", "122053.390000", "122054.177500", "122054.967500", "122055.755000", "122056.542500", "122057.330000", "122058.120000", "122058.907500", "122059.695000", "122100.482500", "122101.272500", "122102.060000", "122102.847500", "122103.637500", "122104.425000", "122105.212500", "122106.000000", "122106.790000", "122107.577500", "122108.365000", "122109.152500", "122109.942500", "122110.730000", "122111.517500", "122112.305000", "122113.095000", "122113.882500", "122114.670000", "122115.457500", "122116.247500", "122117.035000", "122117.822500", "122118.612500", "122119.400000", "122120.187500", "122120.975000", "122121.765000", "122122.552500", "122123.340000", "122124.127500", "122124.917500", "122125.705000", "122126.492500", "122127.280000", "122128.070000", "122128.857500", "122129.645000", "122130.432500", "122131.222500", "122132.010000", "122132.797500", "122133.585000", "122134.375000", "122135.162500", "122135.950000", "122136.740000", "122137.527500", "122138.315000", "122139.102500", "122139.892500", "122140.680000", "122141.467500", "122142.255000", "122143.045000", "122143.832500", "122144.620000", "122145.407500", "122146.197500", "122146.985000", "122147.772500", "122148.560000", "122149.350000", "122150.137500", "122150.925000", "122151.712500", "122152.502500", "122153.290000", "122154.077500", "122154.867500", "122155.655000", "122156.442500", "122157.230000", "122158.020000", "122158.807500", "122159.595000", "122200.382500", "122201.172500", "122201.960000", "122202.747500", "122203.535000", "122204.325000", "122205.112500", "122205.900000", "122206.687500", "122207.477500", "122208.265000", "122209.052500", "122209.840000", "122210.630000", "122211.417500", "122212.205000", "122212.995000", "122213.782500", "122214.570000", "122215.357500", "122216.147500", "122216.935000", "122217.722500", "122218.510000", "122219.300000", "122220.087500", "122220.875000", "122221.662500", "122222.452500", "122223.240000", "122224.027500", "122224.815000", "122225.605000", "122226.392500", "122227.180000", "122227.967500", "122228.757500", "122229.545000", "122230.332500", "122231.122500", "122231.910000", "122232.697500", "122233.485000", "122234.275000", "122235.062500", "122235.850000", "122236.637500", "122237.427500", "122238.215000", "122239.002500", "122239.790000", "122240.580000", "122241.367500", "122242.155000", "122242.942500", "122243.732500", "122244.520000", "122245.307500", "122246.095000", "122246.885000", "122247.672500", "122248.460000", "122249.250000", "122250.037500", "122250.825000", "122251.612500", "122252.402500", "122253.190000", "122253.977500", "122254.765000", "122255.555000", "122256.342500", "122257.130000", "122257.917500", "122258.707500", "122259.495000", "122300.282500", "122301.070000", "122301.860000", "122302.647500", "122303.435000", "122304.222500", "122305.012500", "122305.800000", "122306.587500", "122307.377500", "122308.165000", "122308.952500", "122309.740000", "122310.530000", "122311.317500", "122312.105000", "122312.892500", "122313.682500", "122314.470000", "122315.257500", "122316.045000", "122316.835000", "122317.622500", "122318.410000", "122319.197500", "122319.987500", "122320.775000", "122321.562500", "122322.350000", "122323.140000", "122323.927500", "122324.715000", "122325.505000", "122326.292500", "122327.080000", "122327.867500", "122328.657500", "122329.445000", "122330.232500", "122331.020000", "122331.810000", "122332.597500", "122333.385000", "122334.172500", "122334.962500", "122335.750000", "122336.537500", "122337.325000", "122338.115000", "122338.902500", "122339.690000", "122340.477500", "122341.267500", "122342.055000", "122342.842500", "122343.632500", "122344.420000", "122345.207500", "122345.995000", "122346.785000", "122347.572500", "122348.360000", "122349.147500", "122349.937500", "122350.725000", "122351.512500", "122352.300000", "122353.090000", "122353.877500", "122354.665000", "122355.452500", "122356.242500", "122357.030000", "122357.817500", "122358.605000", "122359.395000", "122400.182500", "122400.970000", "122401.760000", "122402.547500", "122403.335000", "122404.122500", "122404.912500", "122405.700000", "122406.487500", "122407.275000", "122408.065000", "122408.852500", "122409.640000", "122410.427500", "122411.217500", "122412.005000", "122412.792500", "122413.580000", "122414.370000", "122415.157500", "122415.945000", "122416.732500", "122417.522500", "122418.310000", "122419.097500", "122419.887500", "122420.675000", "122421.462500", "122422.250000", "122423.040000", "122423.827500", "122424.615000", "122425.402500", "122426.192500", "122426.980000", "122427.767500", "122428.555000", "122429.345000", "122430.132500", "122430.920000", "122431.707500", "122432.497500", "122433.285000", "122434.072500", "122434.862500", "122435.650000", "122436.437500", "122437.225000", "122438.015000", "122438.802500", "122439.590000", "122440.377500", "122441.167500", "122441.955000", "122442.742500", "122443.530000", "122444.320000", "122445.107500", "122445.895000", "122446.682500", "122447.472500", "122448.260000", "122449.047500", "122449.835000", "122450.625000", "122451.412500", "122452.200000", "122452.990000", "122453.777500", "122454.565000", "122455.352500", "122456.142500", "122456.930000", "122457.717500", "122458.505000", "122459.295000", "122500.082500", "122500.870000", "122501.657500", "122502.447500", "122503.235000", "122504.022500", "122504.810000", "122505.600000", "122506.387500", "122507.175000", "122507.962500", "122508.752500", "122509.540000", "122510.327500", "122511.117500", "122511.905000", "122512.692500", "122513.480000", "122514.270000", "122515.057500", "122515.845000", "122516.632500", "122517.422500", "122518.210000", "122518.997500", "122519.785000", "122520.575000", "122521.362500", "122522.150000", "122522.937500", "122523.727500", "122524.515000", "122525.302500", "122526.090000", "122526.880000", "122527.667500", "122528.455000", "122529.245000", "122530.032500", "122530.820000", "122531.607500", "122532.397500", "122533.185000", "122533.972500", "122534.760000", "122535.550000", "122536.337500", "122537.125000", "122537.912500", "122538.702500", "122539.490000", "122540.277500", "122541.065000", "122541.855000", "122542.642500", "122543.430000", "122544.217500", "122545.007500", "122545.795000", "122546.582500", "122547.372500", "122548.160000", "122548.947500", "122549.735000", "122550.525000", "122551.312500", "122552.100000", "122552.887500", "122553.677500", "122554.465000", "122555.252500", "122556.040000", "122556.830000", "122557.617500", "122558.405000", "122559.192500", "122559.982500", "122600.770000", "122601.557500", "122602.345000", "122603.135000", "122603.922500", "122604.710000", "122605.500000", "122606.287500", "122607.075000", "122607.862500", "122608.652500", "122609.440000", "122610.227500", "122611.015000", "122611.805000", "122612.592500", "122613.380000", "122614.167500", "122614.957500", "122615.745000", "122616.532500", "122617.320000", "122618.110000", "122618.897500", "122619.685000", "122620.472500", "122621.262500", "122622.050000", "122622.837500", "122623.627500", "122624.415000", "122625.202500", "122625.990000", "122626.780000", "122627.567500", "122628.355000", "122629.142500", "122629.932500", "122630.720000", "122631.507500", "122632.295000", "122633.085000", "122633.872500", "122634.660000", "122635.447500", "122636.237500", "122637.025000", "122637.812500", "122638.600000", "122639.390000", "122640.177500", "122640.965000", "122641.755000", "122642.542500", "122643.330000", "122644.117500", "122644.907500", "122645.695000", "122646.482500", "122647.270000", "122648.060000", "122648.847500", "122649.635000", "122650.422500", "122651.212500", "122652.000000", "122652.787500", "122653.575000", "122654.365000", "122655.152500", "122655.940000", "122656.727500", "122657.517500", "122658.305000", "122659.092500", "122659.882500", "122700.670000", "122701.457500", "122702.245000", "122703.035000", "122703.822500", "122704.610000", "122705.397500", "122706.187500", "122706.975000", "122707.762500", "122708.550000", "122709.340000", "122710.127500", "122710.915000", "122711.702500", "122712.492500", "122713.280000", "122714.067500", "122714.855000", "122715.645000", "122716.432500", "122717.220000", "122718.010000", "122718.797500", "122719.585000", "122720.372500", "122721.162500", "122721.950000", "122722.737500", "122723.525000", "122724.315000", "122725.102500", "122725.890000", "122726.677500", "122727.467500", "122728.255000", "122729.042500", "122729.830000", "122730.620000", "122731.407500", "122732.195000", "122732.982500", "122733.772500", "122734.560000", "122735.347500", "122736.137500", "122736.925000", "122737.712500", "122738.500000", "122739.290000", "122740.077500", "122740.865000", "122741.652500", "122742.442500", "122743.230000", "122744.017500", "122744.805000", "122745.595000", "122746.382500", "122747.170000", "122747.957500", "122748.747500", "122749.535000", "122750.322500", "122751.112500", "122751.900000", "122752.687500", "122753.475000", "122754.265000", "122755.052500", "122755.840000", "122756.627500", "122757.417500", "122758.205000", "122758.992500", "122759.780000", "122800.570000", "122801.357500", "122802.145000", "122802.932500", "122803.722500", "122804.510000", "122805.297500", "122806.085000", "122806.875000", "122807.662500", "122808.450000", "122809.240000", "122810.027500", "122810.815000", "122811.602500", "122812.392500", "122813.180000", "122813.967500", "122814.755000", "122815.545000", "122816.332500", "122817.120000", "122817.907500", "122818.697500", "122819.485000", "122820.272500", "122821.060000", "122821.850000", "122822.637500", "122823.425000", "122824.212500", "122825.002500", "122825.790000", "122826.577500", "122827.367500", "122828.155000", "122828.942500", "122829.730000", "122830.520000", "122831.307500", "122832.095000", "122832.882500", "122833.672500", "122834.460000", "122835.247500", "122836.035000", "122836.825000", "122837.612500", "122838.400000", "122839.187500", "122839.977500", "122840.765000", "122841.552500", "122842.340000", "122843.130000", "122843.917500", "122844.705000", "122845.495000", "122846.282500", "122847.070000", "122847.857500", "122848.647500", "122849.435000", "122850.222500", "122851.010000", "122851.800000", "122852.587500", "122853.375000", "122854.162500", "122854.952500", "122855.740000", "122856.527500", "122857.315000", "122858.105000", "122858.892500", "122859.680000", "122900.467500", "122901.257500", "122902.045000", "122902.832500", "122903.622500", "122904.410000", "122905.197500", "122905.985000", "122906.775000", "122907.562500", "122908.350000", "122909.137500", "122909.927500", "122910.715000", "122911.502500", "122912.290000", "122913.080000", "122913.867500", "122914.655000", "122915.442500", "122916.232500", "122917.020000", "122917.807500", "122918.595000", "122919.385000", "122920.172500", "122920.960000", "122921.750000", "122922.537500", "122923.325000", "122924.112500", "122924.902500", "122925.690000", "122926.477500", "122927.265000", "122928.055000", "122928.842500", "122929.630000", "122930.417500", "122931.207500", "122931.995000", "122932.782500", "122933.570000", "122934.360000", "122935.147500", "122935.935000", "122936.722500", "122937.512500", "122938.300000", "122939.087500", "122939.877500", "122940.665000", "122941.452500", "122942.240000", "122943.030000", "122943.817500", "122944.605000", "122945.392500", "122946.182500", "122946.970000", "122947.757500", "122948.545000", "122949.335000", "122950.122500", "122950.910000", "122951.697500", "122952.487500", "122953.275000", "122954.062500", "122954.850000", "122955.640000", "122956.427500", "122957.215000", "122958.005000", "122958.792500", "122959.580000", "123000.367500", "123001.157500", "123001.945000", "123002.732500", "123003.520000", "123004.310000", "123005.097500", "123005.885000", "123006.672500", "123007.462500", "123008.250000", "123009.037500", "123009.825000", "123010.615000", "123011.402500", "123012.190000", "123012.977500", "123013.767500", "123014.555000", "123015.342500", "123016.132500", "123016.920000", "123017.707500", "123018.495000", "123019.285000", "123020.072500", "123020.860000", "123021.647500", "123022.437500", "123023.225000", "123024.012500", "123024.800000", "123025.590000", "123026.377500", "123027.165000", "123027.952500", "123028.742500", "123029.530000", "123030.317500", "123031.105000", "123031.895000", "123032.682500", "123033.470000", "123034.260000", "123035.047500", "123035.835000", "123036.622500", "123037.412500", "123038.200000", "123038.987500", "123039.775000", "123040.565000", "123041.352500", "123042.140000", "123042.927500", "123043.717500", "123044.505000", "123045.292500", "123046.080000", "123046.870000", "123047.657500", "123048.445000", "123049.232500", "123050.022500", "123050.810000", "123051.597500", "123052.387500", "123053.175000", "123053.962500", "123054.750000", "123055.540000", "123056.327500", "123057.115000", "123057.902500", "123058.692500", "123059.480000", "123100.267500", "123101.055000", "123101.845000", "123102.632500", "123103.420000", "123104.207500", "123104.997500", "123105.785000", "123106.572500", "123107.362500", "123108.150000", "123108.937500", "123109.725000", "123110.515000", "123111.302500", "123112.090000", "123112.877500", "123113.667500", "123114.455000", "123115.242500", "123116.030000", "123116.820000", "123117.607500", "123118.395000", "123119.182500", "123119.972500", "123120.760000", "123121.547500", "123122.335000", "123123.125000", "123123.912500", "123124.700000", "123125.490000", "123126.277500", "123127.065000", "123127.852500", "123128.642500", "123129.430000", "123130.217500", "123131.005000", "123131.795000", "123132.582500", "123133.370000", "123134.157500", "123134.947500", "123135.735000", "123136.522500", "123137.310000", "123138.100000", "123138.887500", "123139.675000", "123140.462500", "123141.252500", "123142.040000", "123142.827500", "123143.617500", "123144.405000", "123145.192500", "123145.980000", "123146.770000", "123147.557500", "123148.345000", "123149.132500", "123149.922500", "123150.710000", "123151.497500", "123152.285000", "123153.075000", "123153.862500", "123154.650000", "123155.437500", "123156.227500", "123157.015000", "123157.802500", "123158.590000", "123159.380000", "123200.167500", "123200.955000", "123201.745000", "123202.532500", "123203.320000", "123204.107500", "123204.897500", "123205.685000", "123206.472500", "123207.260000", "123208.050000", "123208.837500", "123209.625000", "123210.412500", "123211.202500", "123211.990000", "123212.777500", "123213.565000", "123214.355000", "123215.142500", "123215.930000", "123216.717500", "123217.507500", "123218.295000", "123219.082500", "123219.872500", "123220.660000", "123221.447500", "123222.235000", "123223.025000", "123223.812500", "123224.600000", "123225.387500", "123226.177500", "123226.965000", "123227.752500", "123228.540000", "123229.330000", "123230.117500", "123230.905000", "123231.692500", "123232.482500", "123233.270000", "123234.057500", "123234.845000", "123235.635000", "123236.422500", "123237.210000", "123238.000000", "123238.787500", "123239.575000", "123240.362500", "123241.152500", "123241.940000", "123242.727500", "123243.515000", "123244.305000", "123245.092500", "123245.880000", "123246.667500", "123247.457500", "123248.245000", "123249.032500", "123249.820000", "123250.610000", "123251.397500", "123252.185000", "123252.972500", "123253.762500", "123254.550000", "123255.337500", "123256.127500", "123256.915000", "123257.702500", "123258.490000", "123259.280000", "123300.067500", "123300.855000", "123301.642500", "123302.432500", "123303.220000", "123304.007500", "123304.795000", "123305.585000", "123306.372500", "123307.160000", "123307.947500", "123308.737500", "123309.525000", "123310.312500", "123311.100000", "123311.890000", "123312.677500", "123313.465000", "123314.255000", "123315.042500", "123315.830000", "123316.617500", "123317.407500", "123318.195000", "123318.982500", "123319.770000", "123320.560000", "123321.347500", "123322.135000", "123322.922500", "123323.712500", "123324.500000", "123325.287500", "123326.075000", "123326.865000", "123327.652500", "123328.440000", "123329.227500", "123330.017500", "123330.805000", "123331.592500", "123332.382500", "123333.170000", "123333.957500", "123334.745000", "123335.535000", "123336.322500", "123337.110000", "123337.897500", "123338.687500", "123339.475000", "123340.262500", "123341.050000", "123341.840000", "123342.627500", "123343.415000", "123344.202500", "123344.992500", "123345.780000", "123346.567500", "123347.355000", "123348.145000", "123348.932500", "123349.720000", "123350.510000", "123351.297500", "123352.085000", "123352.872500", "123353.662500", "123354.450000", "123355.237500", "123356.025000", "123356.815000", "123357.602500", "123358.390000", "123359.177500", "123359.967500", "123400.755000", "123401.542500", "123402.330000", "123403.120000", "123403.907500", "123404.695000", "123405.482500", "123406.272500", "123407.060000", "123407.847500", "123408.637500", "123409.425000", "123410.212500", "123411.000000", "123411.790000", "123412.577500", "123413.365000", "123414.152500", "123414.942500"],
