{
  "AcquisitionMatrixPE": 104,
  "AcquisitionNumber": 1,
  "AcquisitionTime": "11:50:31.725000",
  "BandwidthPerPixelPhaseEncode": 13.935,
  "BaseResolution": 104,
  "CoilString": "C:HEA;HEP",
  "ConversionSoftware": "dcm2niix",
  "ConversionSoftwareVersion": "v1.0.20210317",
  "DerivedVendorReportedEchoSpacing": 0.000690017,
  "DeviceSerialNumber": "35450",
  "DwellTime": 2.5e-06,
  "EchoTime": 0.0348,
  "EffectiveEchoSpacing": 0.000690017,
  "FlipAngle": 55,
  "ImageComments": "Unaliased MB8/PE3 (remote)",
  "ImageOrientationPatientDICOM": [0.999904, 0.0022351, 0.0136479, -1.0298e-08, 0.986854, -0.161616],
  "ImageType": [
    "ORIGINAL",
    "PRIMARY",
    "M",
    "MB",
    "ND",
    "MOSAIC"
],
  "ImagingFrequency": 123.234,
  "InPlanePhaseEncodingDirectionDICOM": "COL",
  "InstitutionAddress": "Univeristy Ave. 197,Newark,North East,US,07102-1814",
  "InstitutionName": "RUBIC",
  "InstitutionalDepartmentName": "Department",
  "MRAcquisitionType": "2D",
  "MagneticFieldStrength": 3,
  "Manufacturer": "Siemens",
  "ManufacturersModelName": "TrioTim",
  "Modality": "MR",
  "MultibandAccelerationFactor": 8,
  "PartialFourier": 0.875,
  "PatientPosition": "HFS",
  "PercentPhaseFOV": 100,
  "PercentSampling": 100,
  "PhaseEncodingDirection": "j-",
  "PhaseEncodingSteps": 91,
  "PhaseResolution": 1,
  "PixelBandwidth": 1923,
  "ProcedureStepDescription": "Cole^Michael",
  "ProtocolName": "cmrr_mbep2d_bold_2mm_MB8_Task_8x",
  "PulseSequenceDetails": "%CustomerSeq%\\cmrr_mbep2d_bold",
  "ReceiveCoilName": "32Ch_Head",
  "ReconMatrixPE": 104,
  "RepetitionTime": 0.785,
  "SAR": 0.116021,
  "ScanOptions": "PFP\\FS",
  "ScanningSequence": "EP",
  "SequenceName": "epfid2d1_104",
  "SequenceVariant": "SK\\SS",
  "SeriesDescription": "cmrr_mbep2d_bold_2mm_MB8_Task_8x",
  "SeriesNumber": 17,
  "ShimSetting": [2110, -406, -7359, 429, 99, 124, -18, 5],
  "SliceThickness": 2,
  "SliceTiming": [0, 0.4375, 0.0875, 0.525, 0.175, 0.6125, 0.2625, 0.7, 0.35, 0, 0.4375, 0.0875, 0.525, 0.175, 0.6125, 0.2625, 0.7, 0.35, 0, 0.4375, 0.0875, 0.525, 0.175, 0.6125, 0.2625, 0.7, 0.35, 0, 0.4375, 0.0875, 0.525, 0.175, 0.6125, 0.2625, 0.7, 0.35, 0, 0.4375, 0.0875, 0.525, 0.175, 0.6125, 0.2625, 0.7, 0.35, 0, 0.4375, 0.0875, 0.525, 0.175, 0.6125, 0.2625, 0.7, 0.35, 0, 0.4375, 0.0875, 0.525, 0.175, 0.6125, 0.2625, 0.7, 0.35, 0, 0.4375, 0.0875, 0.525, 0.175, 0.6125, 0.2625, 0.7, 0.35],
  "SoftwareVersions": "syngo MR B19",
  "SpacingBetweenSlices": 2,
  "StationName": "MRC35450",
  "TaskName": "cpro",
  "TotalReadoutTime": 0.0710717,
  "TxRefAmp": 334.775,
  "dcmmeta_affine": [
    [-1.9998087882995605, -2.0596045757770298e-08, 0.027659334242343903, 101.6412582397461],
    [-0.004470206797122955, 1.9737075567245483, -0.3232007324695587, -79.22986602783203],
    [0.027295714244246483, 0.32323166728019714, 1.9735187292099, -112.90418243408203],
    [0.0, 0.0, 0.0, 1.0]
],
  "dcmmeta_reorient_transform": [
    [0.0, -1.0, 0.0, 103.0],
    [1.0, 0.0, 0.0, 0.0],
    [0.0, 0.0, 1.0, 0.0],
    [0.0, 0.0, 0.0, 1.0]
],
  "dcmmeta_shape": [104, 104, 72, 581],
  "dcmmeta_slice_dim": 2,
  "dcmmeta_version": 0.6,
  "global": {
    "const": {
      "AcquisitionMatrix": [104, 0, 0, 104],
      "AngioFlag": "N",
      "BitsAllocated": 16,
      "BitsStored": 12,
      "Columns": 936,
      "EchoNumbers": 1,
      "EchoTime": 34.8,
      "EchoTrainLength": 1,
      "FlipAngle": 55.0,
      "HighBit": 11,
      "ImageOrientationPatient": [0.99990436557854, 0.0022351033078, 0.01364785734732, -1.0298023e-08, 0.98685374991, -0.1616158293255],
      "ImagePositionPatient": [-933.56167945966, -946.98393251152, 43.498029400964],
      "ImageType": [
        "ORIGINAL",
        "PRIMARY",
        "M",
        "MB",
        "ND",
        "MOSAIC"
],
      "ImagedNucleus": "1H",
      "ImagingFrequency": 123.234459,
      "InPlanePhaseEncodingDirection": "COL",
      "MRAcquisitionType": "2D",
      "MagneticFieldStrength": 3.0,
      "Manufacturer": "SIEMENS",
      "ManufacturerModelName": "TrioTim",
      "Modality": "MR",
      "NumberOfAverages": 1.0,
      "NumberOfPhaseEncodingSteps": 91,
      "PercentPhaseFieldOfView": 100.0,
      "PercentSampling": 100.0,
      "PerformedProcedureStepStartTime": "100711.671000",
      "PhotometricInterpretation": "MONOCHROME2",
      "PixelBandwidth": 1923.0,
      "PixelRepresentation": 0,
      "PixelSpacing": [2.0, 2.0],
      "ProtocolName": "cmrr_mbep2d_bold_2mm_MB8_Task_8x",
      "RepetitionTime": 785.0,
      "Rows": 936,
      "SAR": 0.11602102247236,
      "SamplesPerPixel": 1,
      "ScanOptions": [
        "PFP",
        "FS"
],
      "ScanningSequence": "EP",
      "SequenceName": "epfid2d1_104",
      "SequenceVariant": [
        "SK",
        "SS"
],
      "SeriesDescription": "cmrr_mbep2d_bold_2mm_MB8_Task_8x",
      "SeriesNumber": 17,
      "SeriesTime": "115054.515000",
      "SliceLocation": -97.200021243538,
      "SliceThickness": 2.0,
      "SmallestImagePixelValue": 0,
      "SoftwareVersions": "syngo MR B19",
      "SpacingBetweenSlices": 2.0000000034643,
      "SpecificCharacterSet": "ISO_IR 100",
      "StudyID": "1",
      "StudyTime": "100711.546000",
      "TransmitCoilName": "Body",
      "VariableFlipAngleFlag": "N",
      "WindowCenterWidthExplanation": "Algo1",
      "dBdt": 0.0},
    "slices": {}
  },
  "time": {
    "samples": {
      "AcquisitionNumber": [1, 2, 3, 4, 5, 6, 7, 8, 9, 10, 11, 12, 13, 14, 15, 16, 17, 18, 19, 20, 21, 22, 23, 24, 25, 26, 27, 28, 29, 30, 31, 32, 33, 34, 35, 36, 37, 38, 39, 40, 41, 42, 43, 44, 45, 46, 47, 48, 49, 50, 51, 52, 53, 54, 55, 56, 57, 58, 59, 60, 61, 62, 63, 64, 65, 66, 67, 68, 69, 70, 71, 72, 73, 74, 75, 76, 77, 78, 79, 80, 81, 82, 83, 84, 85, 86, 87, 88, 89, 90, 91, 92, 93, 94, 95, 96, 97, 98, 99, 100, 101, 102, 103, 104, 105, 106, 107, 108, 109, 110, 111, 112, 113, 114, 115, 116, 117, 118, 119, 120, 121, 122, 123, 124, 125, 126, 127, 128, 129, 130, 131, 132, 133, 134, 135, 136, 137, 138, 139, 140, 141, 142, 143, 144, 145, 146, 147, 148, 149, 150, 151, 152, 153, 154, 155, 156, 157, 158, 159, 160, 161, 162, 163, 164, 165, 166, 167, 168, 169, 170, 171, 172, 173, 174, 175, 176, 177, 178, 179, 180, 181, 182, 183, 184, 185, 186, 187, 188, 189, 190, 191, 192, 193, 194, 195, 196, 197, 198, 199, 200, 201, 202, 203, 204, 205, 206, 207, 208, 209, 210, 211, 212, 213, 214, 215, 216, 217, 218, 219, 220, 221, 222, 223, 224, 225, 226, 227, 228, 229, 230, 231, 232, 233, 234, 235, 236, 237, 238, 239, 240, 241, 242, 243, 244, 245, 246, 247, 248, 249, 250, 251, 252, 253, 254, 255, 256, 257, 258, 259, 260, 261, 262, 263, 264, 265, 266, 267, 268, 269, 270, 271, 272, 273, 274, 275, 276, 277, 278, 279, 280, 281, 282, 283, 284, 285, 286, 287, 288, 289, 290, 291, 292, 293, 294, 295, 296, 297, 298, 299, 300, 301, 302, 303, 304, 305, 306, 307, 308, 309, 310, 311, 312, 313, 314, 315, 316, 317, 318, 319, 320, 321, 322, 323, 324, 325, 326, 327, 328, 329, 330, 331, 332, 333, 334, 335, 336, 337, 338, 339, 340, 341, 342, 343, 344, 345, 346, 347, 348, 349, 350, 351, 352, 353, 354, 355, 356, 357, 358, 359, 360, 361, 362, 363, 364, 365, 366, 367, 368, 369, 370, 371, 372, 373, 374, 375, 376, 377, 378, 379, 380, 381, 382, 383, 384, 385, 386, 387, 388, 389, 390, 391, 392, 393, 394, 395, 396, 397, 398, 399, 400, 401, 402, 403, 404, 405, 406, 407, 408, 409, 410, 411, 412, 413, 414, 415, 416, 417, 418, 419, 420, 421, 422, 423, 424, 425, 426, 427, 428, 429, 430, 431, 432, 433, 434, 435, 436, 437, 438, 439, 440, 441, 442, 443, 444, 445, 446, 447, 448, 449, 450, 451, 452, 453, 454, 455, 456, 457, 458, 459, 460, 461, 462, 463, 464, 465, 466, 467, 468, 469, 470, 471, 472, 473, 474, 475, 476, 477, 478, 479, 480, 481, 482, 483, 484, 485, 486, 487, 488, 489, 490, 491, 492, 493, 494, 495, 496, 497, 498, 499, 500, 501, 502, 503, 504, 505, 506, 507, 508, 509, 510, 511, 512, 513, 514, 515, 516, 517, 518, 519, 520, 521, 522, 523, 524, 525, 526, 527, 528, 529, 530, 531, 532, 533, 534, 535, 536, 537, 538, 539, 540, 541, 542, 543, 544, 545, 546, 547, 548, 549, 550, 551, 552, 553, 554, 555, 556, 557, 558, 559, 560, 561, 562, 563, 564, 565, 566, 567, 568, 569, 570, 571, 572, 573, 574, 575, 576, 577, 578, 579, 580, 581],
      "AcquisitionTime": ["115031.725000", "115032.512500", "115033.300000", "115034.087500", "115034.877500", "115035.665000", "115036.452500", "115037.242500", "115038.030000", "115038.817500", "115039.605000", "115040.395000", "115041.182500", "115041.970000", "115042.757500", "115043.547500", "115044.335000", "115045.122500", "115045.910000", "115046.700000", "115047.487500", "115048.275000", "115049.062500", "115049.852500", "115050.640000", "115051.427500", "115052.215000", "115053.005000", "115053.792500", "115054.580000", "115055.370000", "115056.157500", "115056.945000", "115057.732500", "115058.522500", "115059.310000", "115100.097500", "115100.885000", "115101.675000", "115102.462500", "115103.250000", "115104.037500", "115104.827500", "115105.615000", "115106.402500", "115107.190000", "115107.980000", "115108.767500", "115109.555000", "115110.342500", "115111.132500", "115111.920000", "115112.707500", "115113.497500", "115114.285000", "115115.072500", "115115.860000", "115116.650000", "115117.437500", "115118.225000", "115119.012500", "115119.802500", "115120.590000", "115121.377500", "115122.165000", "115122.955000", "115123.742500", "115124.530000", "115125.317500", "115126.107500", "115126.895000", "115127.682500", "115128.470000", "115129.260000", "115130.047500", "115130.835000", "115131.625000", "115132.412500", "115133.200000", "115133.987500", "115134.777500", "115135.565000", "115136.352500", "115137.140000", "115137.930000", "115138.717500", "115139.505000", "115140.292500", "115141.082500", "115141.870000", "115142.657500", "115143.445000", "115144.235000", "115145.022500", "115145.810000", "115146.600000", "115147.387500", "115148.175000", "115148.962500", "115149.752500", "115150.540000", "115151.327500", "115152.115000", "115152.905000", "115153.692500", "115154.480000", "115155.267500", "115156.057500", "115156.845000", "115157.632500", "115158.420000", "115159.210000", "115159.997500", "115200.785000", "115201.572500", "115202.362500", "115203.150000", "115203.937500", "115204.727500", "115205.515000", "115206.302500", "115207.090000", "115207.880000", "115208.667500", "115209.455000", "115210.242500", "115211.032500", "115211.820000", "115212.607500", "115213.395000", "115214.185000", "115214.972500", "115215.760000", "115216.547500", "115217.337500", "115218.125000", "115218.912500", "115219.700000", "115220.490000", "115221.277500", "115222.065000", "115222.855000", "115223.642500", "115224.430000", "115225.217500", "115226.007500", "115226.795000", "115227.582500", "115228.370000", "115229.160000", "115229.947500", "115230.735000", "115231.522500", "115232.312500", "115233.100000", "115233.887500", "115234.675000", "115235.465000", "115236.252500", "115237.040000", "115237.827500", "115238.617500", "115239.405000", "115240.192500", "115240.982500", "115241.770000", "115242.557500", "115243.345000", "115244.135000", "115244.922500", "115245.710000", "115246.497500", "115247.287500", "115248.075000", "115248.862500", "115249.650000", "115250.440000", "115251.227500", "115252.015000", "115252.802500", "115253.592500", "115254.380000", "115255.167500", "115255.955000", "115256.745000", "115257.532500", "115258.320000", "115259.110000", "115259.897500", "115300.685000", "115301.472500", "115302.262500", "115303.050000", "115303.837500", "115304.625000", "115305.415000", "115306.202500", "115306.990000", "115307.777500", "115308.567500", "115309.355000", "115310.142500", "115310.930000", "115311.720000", "115312.507500", "115313.295000", "115314.082500", "115314.872500", "115315.660000", "115316.447500", "115317.237500", "115318.025000", "115318.812500", "115319.600000", "115320.390000", "115321.177500", "115321.965000", "115322.752500", "115323.542500", "115324.330000", "115325.117500", "115325.905000", "115326.695000", "115327.482500", "115328.270000", "115329.057500", "115329.847500", "115330.635000", "115331.422500", "115332.210000", "115333.000000", "115333.787500", "115334.575000", "115335.365000", "115336.152500", "115336.940000", "115337.727500", "115338.517500", "115339.305000", "115340.092500", "115340.880000", "115341.670000", "115342.457500", "115343.245000", "115344.032500", "115344.822500", "115345.610000", "115346.397500", "115347.185000", "115347.975000", "115348.762500", "115349.550000", "115350.337500", "115351.127500", "115351.915000", "115352.702500", "115353.492500", "115354.280000", "115355.067500", "115355.855000", "115356.645000", "115357.432500", "115358.220000", "115359.007500", "115359.797500", "115400.585000", "115401.372500", "115402.160000", "115402.950000", "115403.737500", "115404.525000", "115405.312500", "115406.102500", "115406.890000", "115407.677500", "115408.465000", "115409.255000", "115410.042500", "115410.830000", "115411.620000", "115412.407500", "115413.195000", "115413.982500", "115414.772500", "115415.560000", "115416.347500", "115417.135000", "115417.925000", "115418.712500", "115419.500000", "115420.287500", "115421.077500", "115421.865000", "115422.652500", "115423.440000", "115424.230000", "115425.017500", "115425.805000", "115426.592500", "115427.382500", "115428.170000", "115428.957500", "115429.747500", "115430.535000", "115431.322500", "115432.110000", "115432.900000", "115433.687500", "115434.475000", "115435.262500", "115436.052500", "115436.840000", "115437.627500", "115438.415000", "115439.205000", "115439.992500", "115440.780000", "115441.567500", "115442.357500", "115443.145000", "115443.932500", "115444.720000", "115445.510000", "115446.297500", "115447.085000", "115447.875000", "115448.662500", "115449.450000", "115450.237500", "115451.027500", "115451.815000", "115452.602500", "115453.390000", "115454.180000", "115454.967500", "115455.755000", "115456.542500", "115457.332500", "115458.120000", "115458.907500", "115459.695000", "115500.485000", "115501.272500", "115502.060000", "115502.850000", "115503.637500", "115504.425000", "115505.212500", "115506.002500", "115506.790000", "115507.577500", "115508.365000", "115509.155000", "115509.942500", "115510.730000", "115511.517500", "115512.307500", "115513.095000", "115513.882500", "115514.670000", "115515.460000", "115516.247500", "115517.035000", "115517.822500", "115518.612500", "115519.400000", "115520.187500", "115520.977500", "115521.765000", "115522.552500", "115523.340000", "115524.130000", "115524.917500", "115525.705000", "115526.492500", "115527.282500", "115528.070000", "115528.857500", "115529.645000", "115530.435000", "115531.222500", "115532.010000", "115532.797500", "115533.587500", "115534.375000", "115535.162500", "115535.950000", "115536.740000", "115537.527500", "115538.315000", "115539.105000", "115539.892500", "115540.680000", "115541.467500", "115542.257500", "115543.045000", "115543.832500", "115544.620000", "115545.410000", "115546.197500", "115546.985000", "115547.772500", "115548.562500", "115549.350000", "115550.137500", "115550.925000", "115551.715000", "115552.502500", "115553.290000", "115554.077500", "115554.867500", "115555.655000", "115556.442500", "115557.232500", "115558.020000", "115558.807500", "115559.595000", "115600.385000", "115601.172500", "115601.960000", "115602.747500", "115603.537500", "115604.325000", "115605.112500", "115605.900000", "115606.690000", "115607.477500", "115608.265000", "115609.052500", "115609.842500", "115610.630000", "115611.417500", "115612.205000", "115612.995000", "115613.782500", "115614.570000", "115615.360000", "115616.147500", "115616.935000", "115617.722500", "115618.512500", "115619.300000", "115620.087500", "115620.875000", "115621.665000", "115622.452500", "115623.240000", "115624.027500", "115624.817500", "115625.605000", "115626.392500", "115627.180000", "115627.970000", "115628.757500", "115629.545000", "115630.332500", "115631.122500", "115631.910000", "115632.697500", "115633.487500", "115634.275000", "115635.062500", "115635.850000", "115636.640000", "115637.427500", "115638.215000", "115639.002500", "115639.792500", "115640.580000", "115641.367500", "115642.155000", "115642.945000", "115643.732500", "115644.520000", "115645.307500", "115646.097500", "115646.885000", "115647.672500", "115648.460000", "115649.250000", "115650.037500", "115650.825000", "115651.615000", "115652.402500", "115653.190000", "115653.977500", "115654.767500", "115655.555000", "115656.342500", "115657.130000", "115657.920000", "115658.707500", "115659.495000", "115700.282500", "115701.072500", "115701.860000", "115702.647500", "115703.435000", "115704.225000", "115705.012500", "115705.800000", "115706.587500", "115707.377500", "115708.165000", "115708.952500", "115709.742500", "115710.530000", "115711.317500", "115712.105000", "115712.895000", "115713.682500", "115714.470000", "115715.257500", "115716.047500", "115716.835000", "115717.622500", "115718.410000", "115719.200000", "115719.987500", "115720.775000", "115721.562500", "115722.352500", "115723.140000", "115723.927500", "115724.715000", "115725.505000", "115726.292500", "115727.080000", "115727.870000", "115728.657500", "115729.445000", "115730.232500", "115731.022500", "115731.810000", "115732.597500", "115733.385000", "115734.175000", "115734.962500", "115735.750000", "115736.537500", "115737.327500", "115738.115000", "115738.902500", "115739.690000", "115740.480000", "115741.267500", "115742.055000", "115742.842500", "115743.632500", "115744.420000", "115745.207500", "115745.997500", "115746.785000", "115747.572500", "115748.360000", "115749.150000", "115749.937500", "115750.725000", "115751.512500", "115752.302500", "115753.090000", "115753.877500", "115754.665000", "115755.455000", "115756.242500", "115757.030000", "115757.817500", "115758.607500", "115759.395000", "115800.182500", "115800.970000", "115801.760000", "115802.547500", "115803.335000", "115804.125000", "115804.912500", "115805.700000", "115806.487500", "115807.277500", "115808.065000", "115808.852500"],
      "ContentTime": ["115054.515000", "115054.515000", "115054.515000", "115054.515000", "115054.515000", "115054.515000", "115054.531000", "115054.531000", "115054.531000", "115054.531000", "115054.531000", "115054.531000", "115054.531000", "115054.531000", "115054.546000", "115054.546000", "115054.546000", "115054.546000", "115054.546000", "115054.546000", "115054.562000", "115054.562000", "115054.562000", "115054.562000", "115054.562000", "115054.578000", "115114.484000", "115114.484000", "115114.484000", "115114.484000", "115114.500000", "115114.500000", "115114.500000", "115114.515000", "115114.515000", "115114.515000", "115114.515000", "115114.515000", "115114.515000", "115114.515000", "115114.515000", "115114.531000", "115114.531000", "115114.531000", "115114.531000", "115114.531000", "115114.531000", "115114.531000", "115114.546000", "115114.546000", "115114.546000", "115134.484000", "115134.484000", "115134.484000", "115134.484000", "115134.500000", "115134.500000", "115134.500000", "115134.500000", "115134.500000", "115134.500000", "115134.500000", "115134.515000", "115134.515000", "115134.515000", "115134.515000", "115134.515000", "115134.515000", "115134.515000", "115134.531000", "115134.531000", "115134.531000", "115134.531000", "115134.531000", "115134.531000", "115134.531000", "115134.531000", "115154.484000", "115154.562000", "115154.562000", "115154.562000", "115154.578000", "115154.578000", "115154.578000", "115154.578000", "115154.578000", "115154.578000", "115154.578000", "115154.593000", "115154.593000", "115154.593000", "115154.593000", "115154.593000", "115154.593000", "115154.593000", "115154.609000", "115154.609000", "115154.609000", "115154.609000", "115154.609000", "115154.609000", "115154.609000", "115214.484000", "115214.484000", "115214.484000", "115214.484000", "115214.500000", "115214.500000", "115214.500000", "115214.500000", "115214.500000", "115214.500000", "115214.500000", "115214.515000", "115214.515000", "115214.515000", "115214.515000", "115214.515000", "115214.515000", "115214.515000", "115214.531000", "115214.531000", "115214.531000", "115214.531000", "115214.531000", "115214.531000", "115214.531000", "115214.531000", "115234.484000", "115234.484000", "115234.500000", "115234.500000", "115234.500000", "115234.500000", "115234.500000", "115234.500000", "115234.500000", "115234.515000", "115234.515000", "115234.515000", "115234.515000", "115234.515000", "115234.515000", "115234.515000", "115234.515000", "115234.531000", "115234.531000", "115234.531000", "115234.531000", "115234.531000", "115234.531000", "115234.531000", "115234.546000", "115254.484000", "115254.484000", "115254.484000", "115254.484000", "115254.500000", "115254.500000", "115254.500000", "115254.500000", "115254.500000", "115254.500000", "115254.500000", "115254.500000", "115254.515000", "115254.515000", "115254.515000", "115254.515000", "115254.515000", "115254.515000", "115254.515000", "115254.531000", "115254.531000", "115254.531000", "115254.531000", "115254.531000", "115254.531000", "115254.531000", "115314.484000", "115314.531000", "115314.531000", "115314.531000", "115314.531000", "115314.531000", "115314.546000", "115314.546000", "115314.546000", "115314.546000", "115314.546000", "115314.546000", "115314.562000", "115314.562000", "115314.562000", "115314.562000", "115314.562000", "115314.562000", "115314.562000", "115314.562000", "115314.578000", "115314.578000", "115314.578000", "115314.578000", "115314.578000", "115334.484000", "115334.484000", "115334.484000", "115334.484000", "115334.500000", "115334.500000", "115334.500000", "115334.500000", "115334.500000", "115334.500000", "115334.500000", "115334.515000", "115334.515000", "115334.515000", "115334.515000", "115334.515000", "115334.515000", "115334.531000", "115334.531000", "115334.531000", "115334.531000", "115334.531000", "115334.531000", "115334.531000", "115334.531000", "115334.546000", "115354.484000", "115354.484000", "115354.484000", "115354.484000", "115354.500000", "115354.500000", "115354.500000", "115354.500000", "115354.500000", "115354.500000", "115354.515000", "115354.515000", "115354.515000", "115354.515000", "115354.515000", "115354.515000", "115354.515000", "115354.531000", "115354.531000", "115354.531000", "115354.531000", "115354.531000", "115354.531000", "115354.531000", "115354.531000", "115414.484000", "115414.484000", "115414.500000", "115414.500000", "115414.500000", "115414.500000", "115414.500000", "115414.500000", "115414.500000", "115414.500000", "115414.515000", "115414.515000", "115414.515000", "115414.515000", "115414.515000", "115414.515000", "115414.515000", "115414.531000", "115414.531000", "115414.531000", "115414.531000", "115414.531000", "115414.531000", "115414.531000", "115414.531000", "115434.484000", "115434.500000", "115434.500000", "115434.500000", "115434.500000", "115434.515000", "115434.515000", "115434.515000", "115434.515000", "115434.515000", "115434.515000", "115434.531000", "115434.531000", "115434.531000", "115434.531000", "115434.531000", "115434.531000", "115434.531000", "115434.531000", "115434.546000", "115434.546000", "115434.546000", "115434.546000", "115434.546000", "115434.546000", "115434.546000", "115454.484000", "115454.484000", "115454.484000", "115454.484000", "115454.500000", "115454.500000", "115454.500000", "115454.500000", "115454.500000", "115454.500000", "115454.515000", "115454.515000", "115454.515000", "115454.515000", "115454.515000", "115454.515000", "115454.515000", "115454.531000", "115454.531000", "115454.531000", "115454.531000", "115454.531000", "115454.531000", "115454.546000", "115454.546000", "115514.484000", "115514.484000", "115514.484000", "115514.484000", "115514.500000", "115514.500000", "115514.500000", "115514.500000", "115514.500000", "115514.515000", "115514.515000", "115514.515000", "115514.515000", "115514.515000", "115514.515000", "115514.515000", "115514.531000", "115514.531000", "115514.531000", "115514.531000", "115514.531000", "115514.531000", "115514.531000", "115514.531000", "115514.546000", "115514.546000", "115534.484000", "115534.484000", "115534.484000", "115534.500000", "115534.500000", "115534.500000", "115534.500000", "115534.500000", "115534.500000", "115534.515000", "115534.515000", "115534.515000", "115534.515000", "115534.515000", "115534.515000", "115534.531000", "115534.531000", "115534.531000", "115534.531000", "115534.531000", "115534.531000", "115534.546000", "115534.546000", "115534.546000", "115534.546000", "115554.484000", "115554.515000", "115554.515000", "115554.531000", "115554.531000", "115554.531000", "115554.531000", "115554.531000", "115554.531000", "115554.531000", "115554.546000", "115554.546000", "115554.546000", "115554.546000", "115554.546000", "115554.546000", "115554.562000", "115554.578000", "115554.578000", "115554.578000", "115554.578000", "115554.578000", "115554.578000", "115554.578000", "115554.593000", "115554.593000", "115614.484000", "115614.484000", "115614.484000", "115614.484000", "115614.500000", "115614.500000", "115614.500000", "115614.500000", "115614.500000", "115614.500000", "115614.500000", "115614.500000", "115614.515000", "115614.515000", "115614.515000", "115614.515000", "115614.515000", "115614.515000", "115614.515000", "115614.531000", "115614.531000", "115614.531000", "115614.531000", "115614.531000", "115614.531000", "115634.484000", "115634.484000", "115634.484000", "115634.484000", "115634.500000", "115634.500000", "115634.500000", "115634.500000", "115634.500000", "115634.500000", "115634.515000", "115634.515000", "115634.515000", "115634.515000", "115634.515000", "115634.515000", "115634.515000", "115634.531000", "115634.531000", "115634.531000", "115634.531000", "115634.531000", "115634.531000", "115634.531000", "115634.531000", "115634.546000", "115654.484000", "115654.484000", "115654.484000", "115654.484000", "115654.500000", "115654.500000", "115654.500000", "115654.500000", "115654.500000", "115654.500000", "115654.500000", "115654.500000", "115654.515000", "115654.515000", "115654.515000", "115654.515000", "115654.515000", "115654.515000", "115654.515000", "115654.531000", "115654.531000", "115654.531000", "115654.531000", "115654.531000", "115654.531000", "115714.484000", "115714.515000", "115714.515000", "115714.515000", "115714.515000", "115714.515000", "115714.515000", "115714.531000", "115714.531000", "115714.531000", "115714.531000", "115714.531000", "115714.531000", "115714.546000", "115714.546000", "115714.546000", "115714.546000", "115714.546000", "115714.562000", "115714.562000", "115714.562000", "115714.562000", "115714.578000", "115714.578000", "115714.578000", "115714.578000", "115734.484000", "115734.484000", "115734.484000", "115734.484000", "115734.500000", "115734.500000", "115734.500000", "115734.500000", "115734.500000", "115734.500000", "115734.500000", "115734.515000", "115734.515000", "115734.515000", "115734.515000", "115734.515000", "115734.515000", "115734.515000", "115734.515000", "115734.531000", "115734.531000", "115734.531000", "115734.531000", "115734.531000", "115734.531000", "115754.484000", "115754.484000", "115754.484000", "115754.484000", "115754.500000", "115754.500000", "115754.500000", "115754.500000", "115754.500000", "115754.500000", "115754.500000", "115754.515000", "115754.515000", "115754.515000", "115754.515000", "115754.515000", "115754.515000", "115754.531000", "115754.531000", "115754.531000", "115754.531000", "115754.531000", "115754.531000", "115754.531000", "115754.546000", "115754.546000", "115810.062000", "115810.078000", "115810.078000", "115810.078000", "115810.078000", "115810.078000", "115810.078000", "115810.078000", "115810.093000", "115810.093000", "115810.093000", "115810.093000", "115810.093000", "115810.093000", "115810.109000", "115810.109000", "115810.109000", "115810.109000", "115810.109000", "115810.109000"],
