{
  "AcquisitionMatrixPE": 104,
  "AcquisitionNumber": 1,
  "AcquisitionTime": "11:58:30.707500",
  "BandwidthPerPixelPhaseEncode": 13.935,
  "BaseResolution": 104,
  "CoilString": "C:HEA;HEP",
  "ConversionSoftware": "dcm2niix",
  "ConversionSoftwareVersion": "v1.0.20210317",
  "DerivedVendorReportedEchoSpacing": 0.000690017,
  "DeviceSerialNumber": "35450",
  "DwellTime": 2.5e-06,
  "EchoTime": 0.0348,
  "EffectiveEchoSpacing": 0.000690017,
  "FlipAngle": 55,
  "ImageComments": "Unaliased MB8/PE3 (remote)",
  "ImageOrientationPatientDICOM": [0.999904, 0.0022351, 0.0136479, -1.0298e-08, 0.986854, -0.161616],
  "ImageType": [
    "ORIGINAL",
    "PRIMARY",
    "M",
    "MB",
    "ND",
    "MOSAIC"
],
  "ImagingFrequency": 123.234,
  "InPlanePhaseEncodingDirectionDICOM": "COL",
  "InstitutionAddress": "Univeristy Ave. 197,Newark,North East,US,07102-1814",
  "InstitutionName": "RUBIC",
  "InstitutionalDepartmentName": "Department",
  "MRAcquisitionType": "2D",
  "MagneticFieldStrength": 3,
  "Manufacturer": "Siemens",
  "ManufacturersModelName": "TrioTim",
  "Modality": "MR",
  "MultibandAccelerationFactor": 8,
  "PartialFourier": 0.875,
  "PatientPosition": "HFS",
  "PercentPhaseFOV": 100,
  "PercentSampling": 100,
  "PhaseEncodingDirection": "j-",
  "PhaseEncodingSteps": 91,
  "PhaseResolution": 1,
  "PixelBandwidth": 1923,
  "ProcedureStepDescription": "Cole^Michael",
  "ProtocolName": "cmrr_mbep2d_bold_2mm_MB8_Task_8x",
  "PulseSequenceDetails": "%CustomerSeq%\\cmrr_mbep2d_bold",
  "ReceiveCoilName": "32Ch_Head",
  "ReconMatrixPE": 104,
  "RepetitionTime": 0.785,
  "SAR": 0.116021,
  "ScanOptions": "PFP\\FS",
  "ScanningSequence": "EP",
  "SequenceName": "epfid2d1_104",
  "SequenceVariant": "SK\\SS",
  "SeriesDescription": "cmrr_mbep2d_bold_2mm_MB8_Task_8x",
  "SeriesNumber": 19,
  "ShimSetting": [2110, -406, -7359, 429, 99, 124, -18, 5],
  "SliceThickness": 2,
  "SliceTiming": [0, 0.4375, 0.0875, 0.525, 0.175, 0.6125, 0.2625, 0.7, 0.35, 0, 0.4375, 0.0875, 0.525, 0.175, 0.6125, 0.2625, 0.7, 0.35, 0, 0.4375, 0.0875, 0.525, 0.175, 0.6125, 0.2625, 0.7, 0.35, 0, 0.4375, 0.0875, 0.525, 0.175, 0.6125, 0.2625, 0.7, 0.35, 0, 0.4375, 0.0875, 0.525, 0.175, 0.6125, 0.2625, 0.7, 0.35, 0, 0.4375, 0.0875, 0.525, 0.175, 0.6125, 0.2625, 0.7, 0.35, 0, 0.4375, 0.0875, 0.525, 0.175, 0.6125, 0.2625, 0.7, 0.35, 0, 0.4375, 0.0875, 0.525, 0.175, 0.6125, 0.2625, 0.7, 0.35],
  "SoftwareVersions": "syngo MR B19",
  "SpacingBetweenSlices": 2,
  "StationName": "MRC35450",
  "TaskName": "cpro",
  "TotalReadoutTime": 0.0710717,
  "TxRefAmp": 334.775,
  "dcmmeta_affine": [
    [-1.9998087882995605, -2.0596045757770298e-08, 0.027659334242343903, 101.6412582397461],
    [-0.004470206797122955, 1.9737075567245483, -0.3232007324695587, -79.22986602783203],
    [0.027295714244246483, 0.32323166728019714, 1.9735187292099, -112.90418243408203],
    [0.0, 0.0, 0.0, 1.0]
],
  "dcmmeta_reorient_transform": [
    [0.0, -1.0, 0.0, 103.0],
    [1.0, 0.0, 0.0, 0.0],
    [0.0, 0.0, 1.0, 0.0],
    [0.0, 0.0, 0.0, 1.0]
],
  "dcmmeta_shape": [104, 104, 72, 581],
  "dcmmeta_slice_dim": 2,
  "dcmmeta_version": 0.6,
  "global": {
    "const": {
      "AcquisitionMatrix": [104, 0, 0, 104],
      "AngioFlag": "N",
      "BitsAllocated": 16,
      "BitsStored": 12,
      "Columns": 936,
      "EchoNumbers": 1,
      "EchoTime": 34.8,
      "EchoTrainLength": 1,
      "FlipAngle": 55.0,
      "HighBit": 11,
      "ImageOrientationPatient": [0.99990436557854, 0.0022351033078, 0.01364785734732, -1.0298023e-08, 0.98685374991, -0.1616158293255],
      "ImagePositionPatient": [-933.56167945966, -946.98393251152, 43.498029400964],
      "ImageType": [
        "ORIGINAL",
        "PRIMARY",
        "M",
        "MB",
        "ND",
        "MOSAIC"
],
      "ImagedNucleus": "1H",
      "ImagingFrequency": 123.234459,
      "InPlanePhaseEncodingDirection": "COL",
      "MRAcquisitionType": "2D",
      "MagneticFieldStrength": 3.0,
      "Manufacturer": "SIEMENS",
      "ManufacturerModelName": "TrioTim",
      "Modality": "MR",
      "NumberOfAverages": 1.0,
      "NumberOfPhaseEncodingSteps": 91,
      "PercentPhaseFieldOfView": 100.0,
      "PercentSampling": 100.0,
      "PerformedProcedureStepStartTime": "100711.671000",
      "PhotometricInterpretation": "MONOCHROME2",
      "PixelBandwidth": 1923.0,
      "PixelRepresentation": 0,
      "PixelSpacing": [2.0, 2.0],
      "ProtocolName": "cmrr_mbep2d_bold_2mm_MB8_Task_8x",
      "RepetitionTime": 785.0,
      "Rows": 936,
      "SAR": 0.11602102247236,
      "SamplesPerPixel": 1,
      "ScanOptions": [
        "PFP",
        "FS"
],
      "ScanningSequence": "EP",
      "SequenceName": "epfid2d1_104",
      "SequenceVariant": [
        "SK",
        "SS"
],
      "SeriesDescription": "cmrr_mbep2d_bold_2mm_MB8_Task_8x",
      "SeriesNumber": 19,
      "SeriesTime": "115900.968000",
      "SliceLocation": -97.200021243538,
      "SliceThickness": 2.0,
      "SmallestImagePixelValue": 0,
      "SoftwareVersions": "syngo MR B19",
      "SpacingBetweenSlices": 2.0000000034643,
      "SpecificCharacterSet": "ISO_IR 100",
      "StudyID": "1",
      "StudyTime": "100711.546000",
      "TransmitCoilName": "Body",
      "VariableFlipAngleFlag": "N",
      "WindowCenterWidthExplanation": "Algo1",
      "dBdt": 0.0},
    "slices": {}
  },
  "time": {
    "samples": {
      "AcquisitionNumber": [1, 2, 3, 4, 5, 6, 7, 8, 9, 10, 11, 12, 13, 14, 15, 16, 17, 18, 19, 20, 21, 22, 23, 24, 25, 26, 27, 28, 29, 30, 31, 32, 33, 34, 35, 36, 37, 38, 39, 40, 41, 42, 43, 44, 45, 46, 47, 48, 49, 50, 51, 52, 53, 54, 55, 56, 57, 58, 59, 60, 61, 62, 63, 64, 65, 66, 67, 68, 69, 70, 71, 72, 73, 74, 75, 76, 77, 78, 79, 80, 81, 82, 83, 84, 85, 86, 87, 88, 89, 90, 91, 92, 93, 94, 95, 96, 97, 98, 99, 100, 101, 102, 103, 104, 105, 106, 107, 108, 109, 110, 111, 112, 113, 114, 115, 116, 117, 118, 119, 120, 121, 122, 123, 124, 125, 126, 127, 128, 129, 130, 131, 132, 133, 134, 135, 136, 137, 138, 139, 140, 141, 142, 143, 144, 145, 146, 147, 148, 149, 150, 151, 152, 153, 154, 155, 156, 157, 158, 159, 160, 161, 162, 163, 164, 165, 166, 167, 168, 169, 170, 171, 172, 173, 174, 175, 176, 177, 178, 179, 180, 181, 182, 183, 184, 185, 186, 187, 188, 189, 190, 191, 192, 193, 194, 195, 196, 197, 198, 199, 200, 201, 202, 203, 204, 205, 206, 207, 208, 209, 210, 211, 212, 213, 214, 215, 216, 217, 218, 219, 220, 221, 222, 223, 224, 225, 226, 227, 228, 229, 230, 231, 232, 233, 234, 235, 236, 237, 238, 239, 240, 241, 242, 243, 244, 245, 246, 247, 248, 249, 250, 251, 252, 253, 254, 255, 256, 257, 258, 259, 260, 261, 262, 263, 264, 265, 266, 267, 268, 269, 270, 271, 272, 273, 274, 275, 276, 277, 278, 279, 280, 281, 282, 283, 284, 285, 286, 287, 288, 289, 290, 291, 292, 293, 294, 295, 296, 297, 298, 299, 300, 301, 302, 303, 304, 305, 306, 307, 308, 309, 310, 311, 312, 313, 314, 315, 316, 317, 318, 319, 320, 321, 322, 323, 324, 325, 326, 327, 328, 329, 330, 331, 332, 333, 334, 335, 336, 337, 338, 339, 340, 341, 342, 343, 344, 345, 346, 347, 348, 349, 350, 351, 352, 353, 354, 355, 356, 357, 358, 359, 360, 361, 362, 363, 364, 365, 366, 367, 368, 369, 370, 371, 372, 373, 374, 375, 376, 377, 378, 379, 380, 381, 382, 383, 384, 385, 386, 387, 388, 389, 390, 391, 392, 393, 394, 395, 396, 397, 398, 399, 400, 401, 402, 403, 404, 405, 406, 407, 408, 409, 410, 411, 412, 413, 414, 415, 416, 417, 418, 419, 420, 421, 422, 423, 424, 425, 426, 427, 428, 429, 430, 431, 432, 433, 434, 435, 436, 437, 438, 439, 440, 441, 442, 443, 444, 445, 446, 447, 448, 449, 450, 451, 452, 453, 454, 455, 456, 457, 458, 459, 460, 461, 462, 463, 464, 465, 466, 467, 468, 469, 470, 471, 472, 473, 474, 475, 476, 477, 478, 479, 480, 481, 482, 483, 484, 485, 486, 487, 488, 489, 490, 491, 492, 493, 494, 495, 496, 497, 498, 499, 500, 501, 502, 503, 504, 505, 506, 507, 508, 509, 510, 511, 512, 513, 514, 515, 516, 517, 518, 519, 520, 521, 522, 523, 524, 525, 526, 527, 528, 529, 530, 531, 532, 533, 534, 535, 536, 537, 538, 539, 540, 541, 542, 543, 544, 545, 546, 547, 548, 549, 550, 551, 552, 553, 554, 555, 556, 557, 558, 559, 560, 561, 562, 563, 564, 565, 566, 567, 568, 569, 570, 571, 572, 573, 574, 575, 576, 577, 578, 579, 580, 581],
      "AcquisitionTime": ["115830.707500", "115831.495000", "115832.282500", "115833.070000", "115833.860000", "115834.647500", "115835.435000", "115836.222500", "115837.012500", "115837.800000", "115838.587500", "115839.375000", "115840.165000", "115840.952500", "115841.740000", "115842.527500", "115843.317500", "115844.105000", "115844.892500", "115845.682500", "115846.470000", "115847.257500", "115848.045000", "115848.835000", "115849.622500", "115850.410000", "115851.197500", "115851.987500", "115852.775000", "115853.562500", "115854.350000", "115855.140000", "115855.927500", "115856.715000", "115857.502500", "115858.292500", "115859.080000", "115859.867500", "115900.655000", "115901.445000", "115902.232500", "115903.020000", "115903.810000", "115904.597500", "115905.385000", "115906.172500", "115906.962500", "115907.750000", "115908.537500", "115909.325000", "115910.115000", "115910.902500", "115911.690000", "115912.477500", "115913.267500", "115914.055000", "115914.842500", "115915.630000", "115916.420000", "115917.207500", "115917.995000", "115918.782500", "115919.572500", "115920.360000", "115921.147500", "115921.937500", "115922.725000", "115923.512500", "115924.300000", "115925.090000", "115925.877500", "115926.665000", "115927.452500", "115928.242500", "115929.030000", "115929.817500", "115930.605000", "115931.395000", "115932.182500", "115932.970000", "115933.757500", "115934.547500", "115935.335000", "115936.122500", "115936.910000", "115937.700000", "115938.487500", "115939.275000", "115940.065000", "115940.852500", "115941.640000", "115942.427500", "115943.217500", "115944.005000", "115944.792500", "115945.580000", "115946.370000", "115947.157500", "115947.945000", "115948.732500", "115949.522500", "115950.310000", "115951.097500", "115951.885000", "115952.675000", "115953.462500", "115954.250000", "115955.037500", "115955.827500", "115956.615000", "115957.402500", "115958.192500", "115958.980000", "115959.767500", "120000.555000", "120001.345000", "120002.132500", "120002.920000", "120003.707500", "120004.497500", "120005.285000", "120006.072500", "120006.860000", "120007.650000", "120008.437500", "120009.225000", "120010.012500", "120010.802500", "120011.590000", "120012.377500", "120013.165000", "120013.955000", "120014.742500", "120015.530000", "120016.320000", "120017.107500", "120017.895000", "120018.682500", "120019.472500", "120020.260000", "120021.047500", "120021.835000", "120022.625000", "120023.412500", "120024.200000", "120024.987500", "120025.777500", "120026.565000", "120027.352500", "120028.140000", "120028.930000", "120029.717500", "120030.505000", "120031.292500", "120032.082500", "120032.870000", "120033.657500", "120034.447500", "120035.235000", "120036.022500", "120036.810000", "120037.600000", "120038.387500", "120039.175000", "120039.962500", "120040.752500", "120041.540000", "120042.327500", "120043.115000", "120043.905000", "120044.692500", "120045.480000", "120046.267500", "120047.057500", "120047.845000", "120048.632500", "120049.420000", "120050.210000", "120050.997500", "120051.785000", "120052.575000", "120053.362500", "120054.150000", "120054.937500", "120055.727500", "120056.515000", "120057.302500", "120058.090000", "120058.880000", "120059.667500", "120100.455000", "120101.242500", "120102.032500", "120102.820000", "120103.607500", "120104.395000", "120105.185000", "120105.972500", "120106.760000", "120107.550000", "120108.337500", "120109.125000", "120109.912500", "120110.702500", "120111.490000", "120112.277500", "120113.065000", "120113.855000", "120114.642500", "120115.430000", "120116.217500", "120117.007500", "120117.795000", "120118.582500", "120119.370000", "120120.160000", "120120.947500", "120121.735000", "120122.522500", "120123.312500", "120124.100000", "120124.887500", "120125.677500", "120126.465000", "120127.252500", "120128.040000", "120128.830000", "120129.617500", "120130.405000", "120131.192500", "120131.982500", "120132.770000", "120133.557500", "120134.345000", "120135.135000", "120135.922500", "120136.710000", "120137.497500", "120138.287500", "120139.075000", "120139.862500", "120140.650000", "120141.440000", "120142.227500", "120143.015000", "120143.805000", "120144.592500", "120145.380000", "120146.167500", "120146.957500", "120147.745000", "120148.532500", "120149.320000", "120150.110000", "120150.897500", "120151.685000", "120152.472500", "120153.262500", "120154.050000", "120154.837500", "120155.625000", "120156.415000", "120157.202500", "120157.990000", "120158.777500", "120159.567500", "120200.355000", "120201.142500", "120201.932500", "120202.720000", "120203.507500", "120204.295000", "120205.085000", "120205.872500", "120206.660000", "120207.447500", "120208.237500", "120209.025000", "120209.812500", "120210.600000", "120211.390000", "120212.177500", "120212.965000", "120213.752500", "120214.542500", "120215.330000", "120216.117500", "120216.905000", "120217.695000", "120218.482500", "120219.270000", "120220.060000", "120220.847500", "120221.635000", "120222.422500", "120223.212500", "120224.000000", "120224.787500", "120225.575000", "120226.365000", "120227.152500", "120227.940000", "120228.727500", "120229.517500", "120230.305000", "120231.092500", "120231.880000", "120232.670000", "120233.457500", "120234.245000", "120235.032500", "120235.822500", "120236.610000", "120237.397500", "120238.187500", "120238.975000", "120239.762500", "120240.550000", "120241.340000", "120242.127500", "120242.915000", "120243.702500", "120244.492500", "120245.280000", "120246.067500", "120246.855000", "120247.645000", "120248.432500", "120249.220000", "120250.007500", "120250.797500", "120251.585000", "120252.372500", "120253.160000", "120253.950000", "120254.737500", "120255.525000", "120256.315000", "120257.102500", "120257.890000", "120258.677500", "120259.467500", "120300.255000", "120301.042500", "120301.830000", "120302.620000", "120303.407500", "120304.195000", "120304.982500", "120305.772500", "120306.560000", "120307.347500", "120308.135000", "120308.925000", "120309.712500", "120310.500000", "120311.287500", "120312.077500", "120312.865000", "120313.652500", "120314.442500", "120315.230000", "120316.017500", "120316.805000", "120317.595000", "120318.382500", "120319.170000", "120319.957500", "120320.747500", "120321.535000", "120322.322500", "120323.110000", "120323.900000", "120324.687500", "120325.475000", "120326.262500", "120327.052500", "120327.840000", "120328.627500", "120329.415000", "120330.205000", "120330.992500", "120331.780000", "120332.570000", "120333.357500", "120334.145000", "120334.932500", "120335.722500", "120336.510000", "120337.297500", "120338.085000", "120338.875000", "120339.662500", "120340.450000", "120341.237500", "120342.027500", "120342.815000", "120343.602500", "120344.390000", "120345.180000", "120345.967500", "120346.755000", "120347.542500", "120348.332500", "120349.120000", "120349.907500", "120350.697500", "120351.485000", "120352.272500", "120353.060000", "120353.850000", "120354.637500", "120355.425000", "120356.212500", "120357.002500", "120357.790000", "120358.577500", "120359.365000", "120400.155000", "120400.942500", "120401.730000", "120402.517500", "120403.307500", "120404.095000", "120404.882500", "120405.670000", "120406.460000", "120407.247500", "120408.035000", "120408.825000", "120409.612500", "120410.400000", "120411.187500", "120411.977500", "120412.765000", "120413.552500", "120414.340000", "120415.130000", "120415.917500", "120416.705000", "120417.492500", "120418.282500", "120419.070000", "120419.857500", "120420.645000", "120421.435000", "120422.222500", "120423.010000", "120423.800000", "120424.587500", "120425.375000", "120426.162500", "120426.952500", "120427.740000", "120428.527500", "120429.315000", "120430.105000", "120430.892500", "120431.680000", "120432.467500", "120433.257500", "120434.045000", "120434.832500", "120435.620000", "120436.410000", "120437.197500", "120437.985000", "120438.772500", "120439.562500", "120440.350000", "120441.137500", "120441.927500", "120442.715000", "120443.502500", "120444.290000", "120445.080000", "120445.867500", "120446.655000", "120447.442500", "120448.232500", "120449.020000", "120449.807500", "120450.595000", "120451.385000", "120452.172500", "120452.960000", "120453.747500", "120454.537500", "120455.325000", "120456.112500", "120456.900000", "120457.690000", "120458.477500", "120459.265000", "120500.055000", "120500.842500", "120501.630000", "120502.417500", "120503.207500", "120503.995000", "120504.782500", "120505.570000", "120506.360000", "120507.147500", "120507.935000", "120508.722500", "120509.512500", "120510.300000", "120511.087500", "120511.875000", "120512.665000", "120513.452500", "120514.240000", "120515.027500", "120515.817500", "120516.605000", "120517.392500", "120518.182500", "120518.970000", "120519.757500", "120520.545000", "120521.335000", "120522.122500", "120522.910000", "120523.697500", "120524.487500", "120525.275000", "120526.062500", "120526.850000", "120527.640000", "120528.427500", "120529.215000", "120530.002500", "120530.792500", "120531.580000", "120532.367500", "120533.155000", "120533.945000", "120534.732500", "120535.520000", "120536.310000", "120537.097500", "120537.885000", "120538.672500", "120539.462500", "120540.250000", "120541.037500", "120541.825000", "120542.615000", "120543.402500", "120544.190000", "120544.977500", "120545.767500", "120546.555000", "120547.342500", "120548.130000", "120548.920000", "120549.707500", "120550.495000", "120551.282500", "120552.072500", "120552.860000", "120553.647500", "120554.437500", "120555.225000", "120556.012500", "120556.800000", "120557.590000", "120558.377500", "120559.165000", "120559.952500", "120600.742500", "120601.530000", "120602.317500", "120603.105000", "120603.895000", "120604.682500", "120605.470000", "120606.257500", "120607.047500", "120607.835000"],
      "ContentTime": ["115900.968000", "115900.968000", "115900.968000", "115900.968000", "115900.968000", "115900.984000", "115900.984000", "115900.984000", "115900.984000", "115900.984000", "115900.984000", "115900.984000", "115901.000000", "115901.000000", "115901.000000", "115901.000000", "115901.000000", "115901.000000", "115901.000000", "115901.000000", "115901.015000", "115901.015000", "115901.015000", "115901.015000", "115901.015000", "115901.015000", "115901.015000", "115901.015000", "115901.031000", "115901.031000", "115901.031000", "115901.031000", "115901.031000", "115901.031000", "115901.031000", "115920.937000", "115920.937000", "115920.937000", "115920.937000", "115920.953000", "115920.953000", "115920.953000", "115920.953000", "115920.953000", "115920.953000", "115920.953000", "115920.953000", "115920.968000", "115920.968000", "115920.968000", "115920.968000", "115920.968000", "115920.968000", "115920.968000", "115920.984000", "115920.984000", "115920.984000", "115920.984000", "115920.984000", "115920.984000", "115940.937000", "115940.937000", "115940.937000", "115940.937000", "115940.953000", "115940.953000", "115940.953000", "115940.953000", "115940.953000", "115940.953000", "115940.953000", "115940.953000", "115940.968000", "115940.968000", "115940.968000", "115940.968000", "115940.968000", "115940.968000", "115940.968000", "115940.984000", "115940.984000", "115940.984000", "115940.984000", "115940.984000", "115940.984000", "115940.984000", "120000.937000", "120000.937000", "120000.937000", "120000.937000", "120000.953000", "120000.953000", "120000.953000", "120000.953000", "120000.953000", "120000.953000", "120000.953000", "120000.968000", "120000.968000", "120000.968000", "120000.968000", "120000.968000", "120000.968000", "120000.968000", "120000.968000", "120000.984000", "120000.984000", "120000.984000", "120000.984000", "120000.984000", "120000.984000", "120020.937000", "120020.937000", "120020.937000", "120020.937000", "120020.953000", "120020.953000", "120020.953000", "120020.953000", "120020.953000", "120020.953000", "120020.953000", "120020.953000", "120020.968000", "120020.968000", "120020.968000", "120020.968000", "120020.968000", "120020.968000", "120020.968000", "120020.984000", "120020.984000", "120020.984000", "120020.984000", "120020.984000", "120020.984000", "120020.984000", "120040.937000", "120040.937000", "120040.937000", "120040.937000", "120040.953000", "120040.953000", "120040.953000", "120040.953000", "120040.953000", "120040.953000", "120040.953000", "120040.953000", "120040.968000", "120040.968000", "120040.968000", "120040.968000", "120040.968000", "120040.968000", "120040.968000", "120040.984000", "120040.984000", "120040.984000", "120040.984000", "120040.984000", "120040.984000", "120100.937000", "120100.937000", "120100.937000", "120100.937000", "120100.953000", "120100.953000", "120100.953000", "120100.953000", "120100.953000", "120100.953000", "120100.953000", "120100.953000", "120100.968000", "120100.968000", "120100.968000", "120100.968000", "120100.968000", "120100.984000", "120100.984000", "120100.984000", "120100.984000", "120100.984000", "120101.000000", "120101.000000", "120101.000000", "120101.000000", "120120.937000", "120120.937000", "120120.937000", "120120.937000", "120120.953000", "120120.953000", "120120.953000", "120120.953000", "120120.953000", "120120.953000", "120120.953000", "120120.953000", "120120.968000", "120120.968000", "120120.968000", "120120.968000", "120120.968000", "120120.968000", "120120.968000", "120120.984000", "120120.984000", "120120.984000", "120120.984000", "120120.984000", "120120.984000", "120140.937000", "120140.937000", "120140.937000", "120140.937000", "120140.953000", "120140.953000", "120140.953000", "120140.953000", "120140.953000", "120140.953000", "120140.953000", "120140.968000", "120140.968000", "120140.968000", "120140.968000", "120140.968000", "120140.968000", "120140.968000", "120140.968000", "120140.984000", "120140.984000", "120140.984000", "120140.984000", "120140.984000", "120140.984000", "120141.000000", "120200.937000", "120200.937000", "120200.937000", "120200.937000", "120200.953000", "120200.953000", "120200.953000", "120200.953000", "120200.953000", "120200.953000", "120200.953000", "120200.953000", "120200.968000", "120200.968000", "120200.968000", "120200.968000", "120200.968000", "120200.968000", "120200.984000", "120200.984000", "120200.984000", "120200.984000", "120200.984000", "120200.984000", "120201.000000", "120220.937000", "120220.937000", "120220.937000", "120220.937000", "120220.953000", "120220.953000", "120220.953000", "120220.953000", "120220.953000", "120220.953000", "120220.953000", "120220.968000", "120220.968000", "120220.968000", "120220.968000", "120220.968000", "120220.984000", "120220.984000", "120220.984000", "120220.984000", "120220.984000", "120220.984000", "120220.984000", "120220.984000", "120221.000000", "120221.000000", "120240.937000", "120240.937000", "120240.937000", "120240.937000", "120240.953000", "120240.953000", "120240.953000", "120240.953000", "120240.953000", "120240.953000", "120240.953000", "120240.953000", "120240.968000", "120240.968000", "120240.968000", "120240.968000", "120240.968000", "120240.968000", "120240.968000", "120240.984000", "120240.984000", "120240.984000", "120240.984000", "120240.984000", "120240.984000", "120300.937000", "120300.937000", "120300.937000", "120300.937000", "120300.953000", "120300.953000", "120300.953000", "120300.953000", "120300.953000", "120300.953000", "120300.953000", "120300.953000", "120300.968000", "120300.968000", "120300.968000", "120300.968000", "120300.968000", "120300.968000", "120300.984000", "120300.984000", "120300.984000", "120300.984000", "120300.984000", "120300.984000", "120300.984000", "120300.984000", "120320.937000", "120320.937000", "120320.937000", "120320.937000", "120320.953000", "120320.953000", "120320.953000", "120320.953000", "120320.953000", "120320.953000", "120320.968000", "120320.968000", "120320.968000", "120320.968000", "120320.968000", "120320.968000", "120320.984000", "120320.984000", "120320.984000", "120320.984000", "120320.984000", "120321.000000", "120321.000000", "120321.000000", "120321.000000", "120340.937000", "120340.937000", "120340.937000", "120340.937000", "120340.953000", "120340.953000", "120340.953000", "120340.953000", "120340.953000", "120340.953000", "120340.953000", "120340.953000", "120340.968000", "120340.968000", "120340.968000", "120340.968000", "120340.968000", "120340.968000", "120340.984000", "120340.984000", "120340.984000", "120340.984000", "120340.984000", "120340.984000", "120341.000000", "120400.937000", "120400.937000", "120400.937000", "120400.937000", "120400.953000", "120400.953000", "120400.953000", "120400.953000", "120400.953000", "120400.953000", "120400.953000", "120400.953000", "120400.968000", "120400.968000", "120400.968000", "120400.968000", "120400.968000", "120400.968000", "120400.968000", "120400.984000", "120400.984000", "120400.984000", "120400.984000", "120400.984000", "120400.984000", "120400.984000", "120420.937000", "120420.937000", "120420.937000", "120420.937000", "120420.953000", "120420.953000", "120420.953000", "120420.953000", "120420.953000", "120420.953000", "120420.968000", "120420.968000", "120420.968000", "120420.968000", "120420.968000", "120420.968000", "120420.968000", "120420.984000", "120420.984000", "120420.984000", "120420.984000", "120420.984000", "120420.984000", "120420.984000", "120421.000000", "120440.937000", "120440.937000", "120440.937000", "120440.937000", "120440.953000", "120440.953000", "120440.953000", "120440.953000", "120440.953000", "120440.953000", "120440.953000", "120440.953000", "120440.968000", "120440.968000", "120440.968000", "120440.968000", "120440.968000", "120440.968000", "120440.984000", "120440.984000", "120440.984000", "120440.984000", "120440.984000", "120440.984000", "120440.984000", "120440.984000", "120500.937000", "120500.937000", "120500.937000", "120500.937000", "120500.953000", "120500.953000", "120500.953000", "120500.953000", "120500.953000", "120500.968000", "120500.968000", "120500.968000", "120500.968000", "120500.968000", "120500.968000", "120500.968000", "120500.984000", "120500.984000", "120500.984000", "120500.984000", "120500.984000", "120500.984000", "120501.000000", "120501.000000", "120501.000000", "120520.937000", "120520.937000", "120520.937000", "120520.937000", "120520.953000", "120520.953000", "120520.953000", "120520.953000", "120520.953000", "120520.953000", "120520.953000", "120520.968000", "120520.968000", "120520.968000", "120520.968000", "120520.968000", "120520.968000", "120520.968000", "120520.984000", "120520.984000", "120520.984000", "120520.984000", "120520.984000", "120520.984000", "120520.984000", "120521.000000", "120540.937000", "120540.937000", "120540.937000", "120540.937000", "120540.953000", "120540.953000", "120540.953000", "120540.953000", "120540.953000", "120540.953000", "120540.953000", "120540.953000", "120540.968000", "120540.968000", "120540.968000", "120540.968000", "120540.968000", "120540.968000", "120540.984000", "120540.984000", "120540.984000", "120540.984000", "120540.984000", "120540.984000", "120540.984000", "120600.937000", "120600.937000", "120600.937000", "120600.937000", "120600.953000", "120600.953000", "120600.953000", "120600.953000", "120600.953000", "120600.953000", "120600.953000", "120600.968000", "120600.968000", "120600.968000", "120600.968000", "120600.968000", "120600.968000", "120600.968000", "120600.984000", "120600.984000", "120600.984000", "120600.984000", "120600.984000", "120600.984000", "120600.984000", "120600.984000", "120609.390000", "120609.390000", "120609.406000", "120609.406000", "120609.406000", "120609.406000", "120609.406000", "120609.421000", "120609.421000", "120609.421000", "120609.421000"],
