{
  "AcquisitionMatrixPE": 104,
  "AcquisitionNumber": 1,
  "AcquisitionTime": "12:30:41.735000",
  "BandwidthPerPixelPhaseEncode": 13.935,
  "BaseResolution": 104,
  "CoilString": "C:HEA;HEP",
  "ConversionSoftware": "dcm2niix",
  "ConversionSoftwareVersion": "v1.0.20210317",
  "DerivedVendorReportedEchoSpacing": 0.000690017,
  "DeviceSerialNumber": "35450",
  "DwellTime": 2.5e-06,
  "EchoTime": 0.0348,
  "EffectiveEchoSpacing": 0.000690017,
  "FlipAngle": 55,
  "ImageComments": "Unaliased MB8/PE3 (remote)",
  "ImageOrientationPatientDICOM": [0.999904, 0.0022351, 0.0136479, -1.0298e-08, 0.986854, -0.161616],
  "ImageType": [
    "ORIGINAL",
    "PRIMARY",
    "M",
    "MB",
    "ND",
    "MOSAIC"
],
  "ImagingFrequency": 123.234,
  "InPlanePhaseEncodingDirectionDICOM": "COL",
  "InstitutionAddress": "Univeristy Ave. 197,Newark,North East,US,07102-1814",
  "InstitutionName": "RUBIC",
  "InstitutionalDepartmentName": "Department",
  "MRAcquisitionType": "2D",
  "MagneticFieldStrength": 3,
  "Manufacturer": "Siemens",
  "ManufacturersModelName": "TrioTim",
  "Modality": "MR",
  "MultibandAccelerationFactor": 8,
  "PartialFourier": 0.875,
  "PatientPosition": "HFS",
  "PercentPhaseFOV": 100,
  "PercentSampling": 100,
  "PhaseEncodingDirection": "j-",
  "PhaseEncodingSteps": 91,
  "PhaseResolution": 1,
  "PixelBandwidth": 1923,
  "ProcedureStepDescription": "Cole^Michael",
  "ProtocolName": "cmrr_mbep2d_bold_2mm_MB8_Task_8x",
  "PulseSequenceDetails": "%CustomerSeq%\\cmrr_mbep2d_bold",
  "ReceiveCoilName": "32Ch_Head",
  "ReconMatrixPE": 104,
  "RepetitionTime": 0.785,
  "SAR": 0.116021,
  "ScanOptions": "PFP\\FS",
  "ScanningSequence": "EP",
  "SequenceName": "epfid2d1_104",
  "SequenceVariant": "SK\\SS",
  "SeriesDescription": "cmrr_mbep2d_bold_2mm_MB8_Task_8x",
  "SeriesNumber": 27,
  "ShimSetting": [2110, -406, -7359, 429, 99, 124, -18, 5],
  "SliceThickness": 2,
  "SliceTiming": [0, 0.4375, 0.0875, 0.525, 0.175, 0.6125, 0.2625, 0.7, 0.35, 0, 0.4375, 0.0875, 0.525, 0.175, 0.6125, 0.2625, 0.7, 0.35, 0, 0.4375, 0.0875, 0.525, 0.175, 0.6125, 0.2625, 0.7, 0.35, 0, 0.4375, 0.0875, 0.525, 0.175, 0.6125, 0.2625, 0.7, 0.35, 0, 0.4375, 0.0875, 0.525, 0.175, 0.6125, 0.2625, 0.7, 0.35, 0, 0.4375, 0.0875, 0.525, 0.175, 0.6125, 0.2625, 0.7, 0.35, 0, 0.4375, 0.0875, 0.525, 0.175, 0.6125, 0.2625, 0.7, 0.35, 0, 0.4375, 0.0875, 0.525, 0.175, 0.6125, 0.2625, 0.7, 0.35],
  "SoftwareVersions": "syngo MR B19",
  "SpacingBetweenSlices": 2,
  "StationName": "MRC35450",
  "TaskName": "cpro",
  "TotalReadoutTime": 0.0710717,
  "TxRefAmp": 334.775,
  "dcmmeta_affine": [
    [-1.9998087882995605, -2.0596045757770298e-08, 0.027659334242343903, 101.6412582397461],
    [-0.004470206797122955, 1.9737075567245483, -0.3232007324695587, -79.22986602783203],
    [0.027295714244246483, 0.32323166728019714, 1.9735187292099, -112.90418243408203],
    [0.0, 0.0, 0.0, 1.0]
],
  "dcmmeta_reorient_transform": [
    [0.0, -1.0, 0.0, 103.0],
    [1.0, 0.0, 0.0, 0.0],
    [0.0, 0.0, 1.0, 0.0],
    [0.0, 0.0, 0.0, 1.0]
],
  "dcmmeta_shape": [104, 104, 72, 581],
  "dcmmeta_slice_dim": 2,
  "dcmmeta_version": 0.6,
  "global": {
    "const": {
      "AcquisitionMatrix": [104, 0, 0, 104],
      "AngioFlag": "N",
      "BitsAllocated": 16,
      "BitsStored": 12,
      "Columns": 936,
      "EchoNumbers": 1,
      "EchoTime": 34.8,
      "EchoTrainLength": 1,
      "FlipAngle": 55.0,
      "HighBit": 11,
      "ImageOrientationPatient": [0.99990436557854, 0.0022351033078, 0.01364785734732, -1.0298023e-08, 0.98685374991, -0.1616158293255],
      "ImagePositionPatient": [-933.56167945966, -946.98393251152, 43.498029400964],
      "ImageType": [
        "ORIGINAL",
        "PRIMARY",
        "M",
        "MB",
        "ND",
        "MOSAIC"
],
      "ImagedNucleus": "1H",
      "ImagingFrequency": 123.234459,
      "InPlanePhaseEncodingDirection": "COL",
      "MRAcquisitionType": "2D",
      "MagneticFieldStrength": 3.0,
      "Manufacturer": "SIEMENS",
      "ManufacturerModelName": "TrioTim",
      "Modality": "MR",
      "NumberOfAverages": 1.0,
      "NumberOfPhaseEncodingSteps": 91,
      "PercentPhaseFieldOfView": 100.0,
      "PercentSampling": 100.0,
      "PerformedProcedureStepStartTime": "100711.671000",
      "PhotometricInterpretation": "MONOCHROME2",
      "PixelBandwidth": 1923.0,
      "PixelRepresentation": 0,
      "PixelSpacing": [2.0, 2.0],
      "ProtocolName": "cmrr_mbep2d_bold_2mm_MB8_Task_8x",
      "RepetitionTime": 785.0,
      "Rows": 936,
      "SAR": 0.11602102247236,
      "SamplesPerPixel": 1,
      "ScanOptions": [
        "PFP",
        "FS"
],
      "ScanningSequence": "EP",
      "SequenceName": "epfid2d1_104",
      "SequenceVariant": [
        "SK",
        "SS"
],
      "SeriesDescription": "cmrr_mbep2d_bold_2mm_MB8_Task_8x",
      "SeriesNumber": 27,
      "SeriesTime": "123114.531000",
      "SliceLocation": -97.200021243538,
      "SliceThickness": 2.0,
      "SmallestImagePixelValue": 0,
      "SoftwareVersions": "syngo MR B19",
      "SpacingBetweenSlices": 2.0000000034643,
      "SpecificCharacterSet": "ISO_IR 100",
      "StudyID": "1",
      "StudyTime": "100711.546000",
      "TransmitCoilName": "Body",
      "VariableFlipAngleFlag": "N",
      "WindowCenterWidthExplanation": "Algo1",
      "dBdt": 0.0},
    "slices": {}
  },
  "time": {
    "samples": {
      "AcquisitionNumber": [1, 2, 3, 4, 5, 6, 7, 8, 9, 10, 11, 12, 13, 14, 15, 16, 17, 18, 19, 20, 21, 22, 23, 24, 25, 26, 27, 28, 29, 30, 31, 32, 33, 34, 35, 36, 37, 38, 39, 40, 41, 42, 43, 44, 45, 46, 47, 48, 49, 50, 51, 52, 53, 54, 55, 56, 57, 58, 59, 60, 61, 62, 63, 64, 65, 66, 67, 68, 69, 70, 71, 72, 73, 74, 75, 76, 77, 78, 79, 80, 81, 82, 83, 84, 85, 86, 87, 88, 89, 90, 91, 92, 93, 94, 95, 96, 97, 98, 99, 100, 101, 102, 103, 104, 105, 106, 107, 108, 109, 110, 111, 112, 113, 114, 115, 116, 117, 118, 119, 120, 121, 122, 123, 124, 125, 126, 127, 128, 129, 130, 131, 132, 133, 134, 135, 136, 137, 138, 139, 140, 141, 142, 143, 144, 145, 146, 147, 148, 149, 150, 151, 152, 153, 154, 155, 156, 157, 158, 159, 160, 161, 162, 163, 164, 165, 166, 167, 168, 169, 170, 171, 172, 173, 174, 175, 176, 177, 178, 179, 180, 181, 182, 183, 184, 185, 186, 187, 188, 189, 190, 191, 192, 193, 194, 195, 196, 197, 198, 199, 200, 201, 202, 203, 204, 205, 206, 207, 208, 209, 210, 211, 212, 213, 214, 215, 216, 217, 218, 219, 220, 221, 222, 223, 224, 225, 226, 227, 228, 229, 230, 231, 232, 233, 234, 235, 236, 237, 238, 239, 240, 241, 242, 243, 244, 245, 246, 247, 248, 249, 250, 251, 252, 253, 254, 255, 256, 257, 258, 259, 260, 261, 262, 263, 264, 265, 266, 267, 268, 269, 270, 271, 272, 273, 274, 275, 276, 277, 278, 279, 280, 281, 282, 283, 284, 285, 286, 287, 288, 289, 290, 291, 292, 293, 294, 295, 296, 297, 298, 299, 300, 301, 302, 303, 304, 305, 306, 307, 308, 309, 310, 311, 312, 313, 314, 315, 316, 317, 318, 319, 320, 321, 322, 323, 324, 325, 326, 327, 328, 329, 330, 331, 332, 333, 334, 335, 336, 337, 338, 339, 340, 341, 342, 343, 344, 345, 346, 347, 348, 349, 350, 351, 352, 353, 354, 355, 356, 357, 358, 359, 360, 361, 362, 363, 364, 365, 366, 367, 368, 369, 370, 371, 372, 373, 374, 375, 376, 377, 378, 379, 380, 381, 382, 383, 384, 385, 386, 387, 388, 389, 390, 391, 392, 393, 394, 395, 396, 397, 398, 399, 400, 401, 402, 403, 404, 405, 406, 407, 408, 409, 410, 411, 412, 413, 414, 415, 416, 417, 418, 419, 420, 421, 422, 423, 424, 425, 426, 427, 428, 429, 430, 431, 432, 433, 434, 435, 436, 437, 438, 439, 440, 441, 442, 443, 444, 445, 446, 447, 448, 449, 450, 451, 452, 453, 454, 455, 456, 457, 458, 459, 460, 461, 462, 463, 464, 465, 466, 467, 468, 469, 470, 471, 472, 473, 474, 475, 476, 477, 478, 479, 480, 481, 482, 483, 484, 485, 486, 487, 488, 489, 490, 491, 492, 493, 494, 495, 496, 497, 498, 499, 500, 501, 502, 503, 504, 505, 506, 507, 508, 509, 510, 511, 512, 513, 514, 515, 516, 517, 518, 519, 520, 521, 522, 523, 524, 525, 526, 527, 528, 529, 530, 531, 532, 533, 534, 535, 536, 537, 538, 539, 540, 541, 542, 543, 544, 545, 546, 547, 548, 549, 550, 551, 552, 553, 554, 555, 556, 557, 558, 559, 560, 561, 562, 563, 564, 565, 566, 567, 568, 569, 570, 571, 572, 573, 574, 575, 576, 577, 578, 579, 580, 581],
      "AcquisitionTime": ["123041.735000", "123042.522500", "123043.310000", "123044.097500", "123044.887500", "123045.675000", "123046.462500", "123047.252500", "123048.040000", "123048.827500", "123049.615000", "123050.405000", "123051.192500", "123051.980000", "123052.767500", "123053.557500", "123054.345000", "123055.132500", "123055.920000", "123056.710000", "123057.497500", "123058.285000", "123059.072500", "123059.862500", "123100.650000", "123101.437500", "123102.225000", "123103.015000", "123103.802500", "123104.590000", "123105.380000", "123106.167500", "123106.955000", "123107.742500", "123108.532500", "123109.320000", "123110.107500", "123110.895000", "123111.685000", "123112.472500", "123113.260000", "123114.047500", "123114.837500", "123115.625000", "123116.412500", "123117.200000", "123117.990000", "123118.777500", "123119.565000", "123120.352500", "123121.142500", "123121.930000", "123122.717500", "123123.507500", "123124.295000", "123125.082500", "123125.870000", "123126.660000", "123127.447500", "123128.235000", "123129.022500", "123129.812500", "123130.600000", "123131.387500", "123132.175000", "123132.965000", "123133.752500", "123134.540000", "123135.327500", "123136.117500", "123136.905000", "123137.692500", "123138.482500", "123139.270000", "123140.057500", "123140.845000", "123141.635000", "123142.422500", "123143.210000", "123143.997500", "123144.787500", "123145.575000", "123146.362500", "123147.150000", "123147.940000", "123148.727500", "123149.515000", "123150.302500", "123151.092500", "123151.880000", "123152.667500", "123153.455000", "123154.245000", "123155.032500", "123155.820000", "123156.610000", "123157.397500", "123158.185000", "123158.972500", "123159.762500", "123200.550000", "123201.337500", "123202.125000", "123202.915000", "123203.702500", "123204.490000", "123205.277500", "123206.067500", "123206.855000", "123207.642500", "123208.430000", "123209.220000", "123210.007500", "123210.795000", "123211.582500", "123212.372500", "123213.160000", "123213.947500", "123214.737500", "123215.525000", "123216.312500", "123217.100000", "123217.890000", "123218.677500", "123219.465000", "123220.252500", "123221.042500", "123221.830000", "123222.617500", "123223.405000", "123224.195000", "123224.982500", "123225.770000", "123226.557500", "123227.347500", "123228.135000", "123228.922500", "123229.710000", "123230.500000", "123231.287500", "123232.075000", "123232.865000", "123233.652500", "123234.440000", "123235.227500", "123236.017500", "123236.805000", "123237.592500", "123238.380000", "123239.170000", "123239.957500", "123240.745000", "123241.532500", "123242.322500", "123243.110000", "123243.897500", "123244.685000", "123245.475000", "123246.262500", "123247.050000", "123247.837500", "123248.627500", "123249.415000", "123250.202500", "123250.992500", "123251.780000", "123252.567500", "123253.355000", "123254.145000", "123254.932500", "123255.720000", "123256.507500", "123257.297500", "123258.085000", "123258.872500", "123259.660000", "123300.450000", "123301.237500", "123302.025000", "123302.812500", "123303.602500", "123304.390000", "123305.177500", "123305.965000", "123306.755000", "123307.542500", "123308.330000", "123309.120000", "123309.907500", "123310.695000", "123311.482500", "123312.272500", "123313.060000", "123313.847500", "123314.635000", "123315.425000", "123316.212500", "123317.000000", "123317.787500", "123318.577500", "123319.365000", "123320.152500", "123320.940000", "123321.730000", "123322.517500", "123323.305000", "123324.092500", "123324.882500", "123325.670000", "123326.457500", "123327.247500", "123328.035000", "123328.822500", "123329.610000", "123330.400000", "123331.187500", "123331.975000", "123332.762500", "123333.552500", "123334.340000", "123335.127500", "123335.915000", "123336.705000", "123337.492500", "123338.280000", "123339.067500", "123339.857500", "123340.645000", "123341.432500", "123342.220000", "123343.010000", "123343.797500", "123344.585000", "123345.375000", "123346.162500", "123346.950000", "123347.737500", "123348.527500", "123349.315000", "123350.102500", "123350.890000", "123351.680000", "123352.467500", "123353.255000", "123354.042500", "123354.832500", "123355.620000", "123356.407500", "123357.195000", "123357.985000", "123358.772500", "123359.560000", "123400.347500", "123401.137500", "123401.925000", "123402.712500", "123403.502500", "123404.290000", "123405.077500", "123405.865000", "123406.655000", "123407.442500", "123408.230000", "123409.017500", "123409.807500", "123410.595000", "123411.382500", "123412.170000", "123412.960000", "123413.747500", "123414.535000", "123415.322500", "123416.112500", "123416.900000", "123417.687500", "123418.475000", "123419.265000", "123420.052500", "123420.840000", "123421.630000", "123422.417500", "123423.205000", "123423.992500", "123424.782500", "123425.570000", "123426.357500", "123427.145000", "123427.935000", "123428.722500", "123429.510000", "123430.297500", "123431.087500", "123431.875000", "123432.662500", "123433.450000", "123434.240000", "123435.027500", "123435.815000", "123436.602500", "123437.392500", "123438.180000", "123438.967500", "123439.757500", "123440.545000", "123441.332500", "123442.120000", "123442.910000", "123443.697500", "123444.485000", "123445.272500", "123446.062500", "123446.850000", "123447.637500", "123448.425000", "123449.215000", "123450.002500", "123450.790000", "123451.577500", "123452.367500", "123453.155000", "123453.942500", "123454.732500", "123455.520000", "123456.307500", "123457.095000", "123457.885000", "123458.672500", "123459.460000", "123500.247500", "123501.037500", "123501.825000", "123502.612500", "123503.400000", "123504.190000", "123504.977500", "123505.765000", "123506.552500", "123507.342500", "123508.130000", "123508.917500", "123509.705000", "123510.495000", "123511.282500", "123512.070000", "123512.860000", "123513.647500", "123514.435000", "123515.222500", "123516.012500", "123516.800000", "123517.587500", "123518.375000", "123519.165000", "123519.952500", "123520.740000", "123521.527500", "123522.317500", "123523.105000", "123523.892500", "123524.680000", "123525.470000", "123526.257500", "123527.045000", "123527.832500", "123528.622500", "123529.410000", "123530.197500", "123530.987500", "123531.775000", "123532.562500", "123533.350000", "123534.140000", "123534.927500", "123535.715000", "123536.502500", "123537.292500", "123538.080000", "123538.867500", "123539.655000", "123540.445000", "123541.232500", "123542.020000", "123542.807500", "123543.597500", "123544.385000", "123545.172500", "123545.960000", "123546.750000", "123547.537500", "123548.325000", "123549.115000", "123549.902500", "123550.690000", "123551.477500", "123552.267500", "123553.055000", "123553.842500", "123554.630000", "123555.420000", "123556.207500", "123556.995000", "123557.782500", "123558.572500", "123559.360000", "123600.147500", "123600.935000", "123601.725000", "123602.512500", "123603.300000", "123604.087500", "123604.877500", "123605.665000", "123606.452500", "123607.242500", "123608.030000", "123608.817500", "123609.605000", "123610.395000", "123611.182500", "123611.970000", "123612.757500", "123613.547500", "123614.335000", "123615.122500", "123615.910000", "123616.700000", "123617.487500", "123618.275000", "123619.062500", "123619.852500", "123620.640000", "123621.427500", "123622.215000", "123623.005000", "123623.792500", "123624.580000", "123625.370000", "123626.157500", "123626.945000", "123627.732500", "123628.522500", "123629.310000", "123630.097500", "123630.885000", "123631.675000", "123632.462500", "123633.250000", "123634.037500", "123634.827500", "123635.615000", "123636.402500", "123637.190000", "123637.980000", "123638.767500", "123639.555000", "123640.342500", "123641.132500", "123641.920000", "123642.707500", "123643.497500", "123644.285000", "123645.072500", "123645.860000", "123646.650000", "123647.437500", "123648.225000", "123649.012500", "123649.802500", "123650.590000", "123651.377500", "123652.165000", "123652.955000", "123653.742500", "123654.530000", "123655.317500", "123656.107500", "123656.895000", "123657.682500", "123658.470000", "123659.260000", "123700.047500", "123700.835000", "123701.625000", "123702.412500", "123703.200000", "123703.987500", "123704.777500", "123705.565000", "123706.352500", "123707.140000", "123707.930000", "123708.717500", "123709.505000", "123710.292500", "123711.082500", "123711.870000", "123712.657500", "123713.445000", "123714.235000", "123715.022500", "123715.810000", "123716.597500", "123717.387500", "123718.175000", "123718.962500", "123719.752500", "123720.540000", "123721.327500", "123722.115000", "123722.905000", "123723.692500", "123724.480000", "123725.267500", "123726.057500", "123726.845000", "123727.632500", "123728.420000", "123729.210000", "123729.997500", "123730.785000", "123731.572500", "123732.362500", "123733.150000", "123733.937500", "123734.725000", "123735.515000", "123736.302500", "123737.090000", "123737.880000", "123738.667500", "123739.455000", "123740.242500", "123741.032500", "123741.820000", "123742.607500", "123743.395000", "123744.185000", "123744.972500", "123745.760000", "123746.547500", "123747.337500", "123748.125000", "123748.912500", "123749.700000", "123750.490000", "123751.277500", "123752.065000", "123752.852500", "123753.642500", "123754.430000", "123755.217500", "123756.007500", "123756.795000", "123757.582500", "123758.370000", "123759.160000", "123759.947500", "123800.735000", "123801.522500", "123802.312500", "123803.100000", "123803.887500", "123804.675000", "123805.465000", "123806.252500", "123807.040000", "123807.827500", "123808.617500", "123809.405000", "123810.192500", "123810.982500", "123811.770000", "123812.557500", "123813.345000", "123814.135000", "123814.922500", "123815.710000", "123816.497500", "123817.287500", "123818.075000", "123818.862500"],
      "ContentTime": ["123114.531000", "123114.546000", "123114.546000", "123114.546000", "123114.546000", "123114.546000", "123114.546000", "123114.546000", "123114.546000", "123114.562000", "123114.562000", "123114.562000", "123114.562000", "123114.562000", "123114.562000", "123114.562000", "123114.578000", "123114.578000", "123114.578000", "123114.578000", "123114.578000", "123114.578000", "123114.593000", "123114.593000", "123114.593000", "123114.593000", "123114.593000", "123114.593000", "123114.593000", "123114.593000", "123114.609000", "123114.609000", "123114.609000", "123114.609000", "123114.625000", "123114.625000", "123114.625000", "123114.625000", "123134.515000", "123134.515000", "123134.515000", "123134.515000", "123134.531000", "123134.531000", "123134.531000", "123134.531000", "123134.531000", "123134.531000", "123134.531000", "123134.531000", "123134.546000", "123134.546000", "123134.546000", "123134.546000", "123134.546000", "123134.546000", "123134.546000", "123134.562000", "123134.562000", "123134.562000", "123134.562000", "123134.562000", "123134.562000", "123134.562000", "123154.515000", "123154.515000", "123154.515000", "123154.515000", "123154.531000", "123154.531000", "123154.531000", "123154.531000", "123154.531000", "123154.531000", "123154.531000", "123154.546000", "123154.546000", "123154.546000", "123154.546000", "123154.546000", "123154.546000", "123154.562000", "123154.562000", "123154.562000", "123154.562000", "123154.562000", "123154.562000", "123154.562000", "123154.562000", "123214.515000", "123214.515000", "123214.515000", "123214.515000", "123214.531000", "123214.531000", "123214.531000", "123214.531000", "123214.531000", "123214.531000", "123214.531000", "123214.531000", "123214.546000", "123214.546000", "123214.546000", "123214.546000", "123214.546000", "123214.546000", "123214.546000", "123214.562000", "123214.562000", "123214.562000", "123214.562000", "123214.562000", "123214.562000", "123214.578000", "123234.515000", "123234.515000", "123234.515000", "123234.515000", "123234.531000", "123234.531000", "123234.531000", "123234.531000", "123234.531000", "123234.531000", "123234.531000", "123234.531000", "123234.546000", "123234.546000", "123234.546000", "123234.546000", "123234.546000", "123234.546000", "123234.546000", "123234.562000", "123234.562000", "123234.562000", "123234.562000", "123234.562000", "123234.562000", "123254.515000", "123254.515000", "123254.515000", "123254.515000", "123254.531000", "123254.531000", "123254.531000", "123254.531000", "123254.531000", "123254.531000", "123254.531000", "123254.531000", "123254.546000", "123254.546000", "123254.546000", "123254.546000", "123254.546000", "123254.546000", "123254.546000", "123254.562000", "123254.562000", "123254.562000", "123254.562000", "123254.562000", "123254.562000", "123254.562000", "123314.515000", "123314.515000", "123314.515000", "123314.515000", "123314.531000", "123314.531000", "123314.531000", "123314.531000", "123314.531000", "123314.531000", "123314.531000", "123314.531000", "123314.546000", "123314.546000", "123314.546000", "123314.546000", "123314.546000", "123314.546000", "123314.546000", "123314.562000", "123314.562000", "123314.562000", "123314.562000", "123314.562000", "123314.562000", "123334.515000", "123334.515000", "123334.515000", "123334.515000", "123334.531000", "123334.531000", "123334.531000", "123334.531000", "123334.531000", "123334.531000", "123334.531000", "123334.531000", "123334.546000", "123334.546000", "123334.546000", "123334.546000", "123334.546000", "123334.546000", "123334.546000", "123334.562000", "123334.562000", "123334.562000", "123334.562000", "123334.562000", "123334.578000", "123334.578000", "123354.515000", "123354.515000", "123354.515000", "123354.515000", "123354.531000", "123354.531000", "123354.531000", "123354.531000", "123354.531000", "123354.531000", "123354.546000", "123354.546000", "123354.546000", "123354.546000", "123354.546000", "123354.546000", "123354.546000", "123354.562000", "123354.562000", "123354.562000", "123354.562000", "123354.562000", "123354.562000", "123354.562000", "123354.578000", "123414.515000", "123414.515000", "123414.515000", "123414.515000", "123414.531000", "123414.531000", "123414.531000", "123414.531000", "123414.531000", "123414.531000", "123414.531000", "123414.531000", "123414.546000", "123414.546000", "123414.546000", "123414.546000", "123414.546000", "123414.546000", "123414.562000", "123414.562000", "123414.562000", "123414.562000", "123414.562000", "123414.562000", "123414.578000", "123414.578000", "123434.515000", "123434.515000", "123434.515000", "123434.515000", "123434.531000", "123434.531000", "123434.531000", "123434.531000", "123434.531000", "123434.531000", "123434.531000", "123434.546000", "123434.546000", "123434.546000", "123434.546000", "123434.546000", "123434.546000", "123434.546000", "123434.562000", "123434.562000", "123434.562000", "123434.562000", "123434.562000", "123434.562000", "123434.578000", "123454.515000", "123454.515000", "123454.515000", "123454.515000", "123454.531000", "123454.531000", "123454.531000", "123454.531000", "123454.531000", "123454.531000", "123454.531000", "123454.531000", "123454.546000", "123454.546000", "123454.546000", "123454.546000", "123454.546000", "123454.546000", "123454.546000", "123454.562000", "123454.562000", "123454.562000", "123454.562000", "123454.562000", "123454.562000", "123454.562000", "123514.515000", "123514.515000", "123514.515000", "123514.515000", "123514.531000", "123514.531000", "123514.531000", "123514.531000", "123514.531000", "123514.531000", "123514.531000", "123514.531000", "123514.546000", "123514.546000", "123514.546000", "123514.546000", "123514.546000", "123514.546000", "123514.546000", "123514.562000", "123514.562000", "123514.562000", "123514.562000", "123514.562000", "123514.562000", "123534.515000", "123534.515000", "123534.515000", "123534.515000", "123534.531000", "123534.531000", "123534.531000", "123534.531000", "123534.531000", "123534.531000", "123534.531000", "123534.546000", "123534.546000", "123534.546000", "123534.546000", "123534.546000", "123534.546000", "123534.546000", "123534.546000", "123534.562000", "123534.562000", "123534.562000", "123534.562000", "123534.578000", "123534.578000", "123554.515000", "123554.515000", "123554.515000", "123554.515000", "123554.531000", "123554.531000", "123554.531000", "123554.531000", "123554.531000", "123554.531000", "123554.531000", "123554.531000", "123554.546000", "123554.546000", "123554.546000", "123554.546000", "123554.546000", "123554.546000", "123554.546000", "123554.562000", "123554.562000", "123554.562000", "123554.562000", "123554.562000", "123554.562000", "123554.562000", "123614.515000", "123614.515000", "123614.515000", "123614.515000", "123614.531000", "123614.531000", "123614.531000", "123614.531000", "123614.531000", "123614.531000", "123614.531000", "123614.531000", "123614.546000", "123614.546000", "123614.546000", "123614.546000", "123614.546000", "123614.546000", "123614.562000", "123614.562000", "123614.562000", "123614.562000", "123614.562000", "123614.562000", "123614.562000", "123614.578000", "123634.515000", "123634.515000", "123634.515000", "123634.515000", "123634.531000", "123634.531000", "123634.531000", "123634.531000", "123634.531000", "123634.531000", "123634.531000", "123634.531000", "123634.546000", "123634.546000", "123634.546000", "123634.546000", "123634.546000", "123634.546000", "123634.546000", "123634.562000", "123634.562000", "123634.562000", "123634.562000", "123634.562000", "123634.562000", "123654.515000", "123654.515000", "123654.515000", "123654.515000", "123654.531000", "123654.531000", "123654.531000", "123654.531000", "123654.531000", "123654.531000", "123654.531000", "123654.546000", "123654.546000", "123654.546000", "123654.546000", "123654.546000", "123654.562000", "123654.562000", "123654.562000", "123654.562000", "123654.562000", "123654.562000", "123654.578000", "123654.578000", "123654.578000", "123714.515000", "123714.515000", "123714.515000", "123714.515000", "123714.531000", "123714.531000", "123714.531000", "123714.531000", "123714.531000", "123714.546000", "123714.546000", "123714.546000", "123714.546000", "123714.546000", "123714.546000", "123714.546000", "123714.546000", "123714.562000", "123714.562000", "123714.562000", "123714.562000", "123714.562000", "123714.562000", "123714.562000", "123714.578000", "123714.578000", "123734.515000", "123734.515000", "123734.515000", "123734.515000", "123734.531000", "123734.531000", "123734.531000", "123734.531000", "123734.531000", "123734.531000", "123734.531000", "123734.546000", "123734.546000", "123734.546000", "123734.546000", "123734.546000", "123734.546000", "123734.546000", "123734.546000", "123734.562000", "123734.562000", "123734.562000", "123734.562000", "123734.562000", "123734.562000", "123754.515000", "123754.515000", "123754.515000", "123754.515000", "123754.531000", "123754.531000", "123754.531000", "123754.531000", "123754.531000", "123754.531000", "123754.531000", "123754.546000", "123754.546000", "123754.546000", "123754.546000", "123754.546000", "123754.546000", "123754.546000", "123754.562000", "123754.562000", "123754.562000", "123754.562000", "123754.562000", "123754.562000", "123754.562000", "123754.562000", "123814.515000", "123814.515000", "123814.515000", "123814.515000", "123814.531000", "123814.531000", "123814.531000", "123814.531000", "123814.531000", "123814.531000", "123814.531000", "123814.546000", "123814.546000", "123814.546000", "123814.546000", "123814.546000", "123814.546000", "123814.546000", "123814.546000", "123814.562000", "123814.562000", "123814.562000", "123814.562000", "123814.562000", "123814.562000", "123820.234000", "123820.234000", "123820.234000", "123820.234000", "123820.234000", "123820.234000", "123820.250000", "123820.250000"],
