{
  "AcquisitionMatrixPE": 104,
  "AcquisitionNumber": 1,
  "AcquisitionTime": "12:06:27.722500",
  "BandwidthPerPixelPhaseEncode": 13.935,
  "BaseResolution": 104,
  "CoilString": "C:HEA;HEP",
  "ConversionSoftware": "dcm2niix",
  "ConversionSoftwareVersion": "v1.0.20210317",
  "DerivedVendorReportedEchoSpacing": 0.000690017,
  "DeviceSerialNumber": "35450",
  "DwellTime": 2.5e-06,
  "EchoTime": 0.0348,
  "EffectiveEchoSpacing": 0.000690017,
  "FlipAngle": 55,
  "ImageComments": "Unaliased MB8/PE3 (remote)",
  "ImageOrientationPatientDICOM": [0.999904, 0.0022351, 0.0136479, -1.0298e-08, 0.986854, -0.161616],
  "ImageType": [
    "ORIGINAL",
    "PRIMARY",
    "M",
    "MB",
    "ND",
    "MOSAIC"
],
  "ImagingFrequency": 123.234,
  "InPlanePhaseEncodingDirectionDICOM": "COL",
  "InstitutionAddress": "Univeristy Ave. 197,Newark,North East,US,07102-1814",
  "InstitutionName": "RUBIC",
  "InstitutionalDepartmentName": "Department",
  "MRAcquisitionType": "2D",
  "MagneticFieldStrength": 3,
  "Manufacturer": "Siemens",
  "ManufacturersModelName": "TrioTim",
  "Modality": "MR",
  "MultibandAccelerationFactor": 8,
  "PartialFourier": 0.875,
  "PatientPosition": "HFS",
  "PercentPhaseFOV": 100,
  "PercentSampling": 100,
  "PhaseEncodingDirection": "j-",
  "PhaseEncodingSteps": 91,
  "PhaseResolution": 1,
  "PixelBandwidth": 1923,
  "ProcedureStepDescription": "Cole^Michael",
  "ProtocolName": "cmrr_mbep2d_bold_2mm_MB8_Task_8x",
  "PulseSequenceDetails": "%CustomerSeq%\\cmrr_mbep2d_bold",
  "ReceiveCoilName": "32Ch_Head",
  "ReconMatrixPE": 104,
  "RepetitionTime": 0.785,
  "SAR": 0.116021,
  "ScanOptions": "PFP\\FS",
  "ScanningSequence": "EP",
  "SequenceName": "epfid2d1_104",
  "SequenceVariant": "SK\\SS",
  "SeriesDescription": "cmrr_mbep2d_bold_2mm_MB8_Task_8x",
  "SeriesNumber": 21,
  "ShimSetting": [2110, -406, -7359, 429, 99, 124, -18, 5],
  "SliceThickness": 2,
  "SliceTiming": [0, 0.4375, 0.0875, 0.525, 0.175, 0.6125, 0.2625, 0.7, 0.35, 0, 0.4375, 0.0875, 0.525, 0.175, 0.6125, 0.2625, 0.7, 0.35, 0, 0.4375, 0.0875, 0.525, 0.175, 0.6125, 0.2625, 0.7, 0.35, 0, 0.4375, 0.0875, 0.525, 0.175, 0.6125, 0.2625, 0.7, 0.35, 0, 0.4375, 0.0875, 0.525, 0.175, 0.6125, 0.2625, 0.7, 0.35, 0, 0.4375, 0.0875, 0.525, 0.175, 0.6125, 0.2625, 0.7, 0.35, 0, 0.4375, 0.0875, 0.525, 0.175, 0.6125, 0.2625, 0.7, 0.35, 0, 0.4375, 0.0875, 0.525, 0.175, 0.6125, 0.2625, 0.7, 0.35],
  "SoftwareVersions": "syngo MR B19",
  "SpacingBetweenSlices": 2,
  "StationName": "MRC35450",
  "TaskName": "cpro",
  "TotalReadoutTime": 0.0710717,
  "TxRefAmp": 334.775,
  "dcmmeta_affine": [
    [-1.9998087882995605, -2.0596045757770298e-08, 0.027659334242343903, 101.6412582397461],
    [-0.004470206797122955, 1.9737075567245483, -0.3232007324695587, -79.22986602783203],
    [0.027295714244246483, 0.32323166728019714, 1.9735187292099, -112.90418243408203],
    [0.0, 0.0, 0.0, 1.0]
],
  "dcmmeta_reorient_transform": [
    [0.0, -1.0, 0.0, 103.0],
    [1.0, 0.0, 0.0, 0.0],
    [0.0, 0.0, 1.0, 0.0],
    [0.0, 0.0, 0.0, 1.0]
],
  "dcmmeta_shape": [104, 104, 72, 581],
  "dcmmeta_slice_dim": 2,
  "dcmmeta_version": 0.6,
  "global": {
    "const": {
      "AcquisitionMatrix": [104, 0, 0, 104],
      "AngioFlag": "N",
      "BitsAllocated": 16,
      "BitsStored": 12,
      "Columns": 936,
      "EchoNumbers": 1,
      "EchoTime": 34.8,
      "EchoTrainLength": 1,
      "FlipAngle": 55.0,
      "HighBit": 11,
      "ImageOrientationPatient": [0.99990436557854, 0.0022351033078, 0.01364785734732, -1.0298023e-08, 0.98685374991, -0.1616158293255],
      "ImagePositionPatient": [-933.56167945966, -946.98393251152, 43.498029400964],
      "ImageType": [
        "ORIGINAL",
        "PRIMARY",
        "M",
        "MB",
        "ND",
        "MOSAIC"
],
      "ImagedNucleus": "1H",
      "ImagingFrequency": 123.234459,
      "InPlanePhaseEncodingDirection": "COL",
      "MRAcquisitionType": "2D",
      "MagneticFieldStrength": 3.0,
      "Manufacturer": "SIEMENS",
      "ManufacturerModelName": "TrioTim",
      "Modality": "MR",
      "NumberOfAverages": 1.0,
      "NumberOfPhaseEncodingSteps": 91,
      "PercentPhaseFieldOfView": 100.0,
      "PercentSampling": 100.0,
      "PerformedProcedureStepStartTime": "100711.671000",
      "PhotometricInterpretation": "MONOCHROME2",
      "PixelBandwidth": 1923.0,
      "PixelRepresentation": 0,
      "PixelSpacing": [2.0, 2.0],
      "ProtocolName": "cmrr_mbep2d_bold_2mm_MB8_Task_8x",
      "RepetitionTime": 785.0,
      "Rows": 936,
      "SAR": 0.11602102247236,
      "SamplesPerPixel": 1,
      "ScanOptions": [
        "PFP",
        "FS"
],
      "ScanningSequence": "EP",
      "SequenceName": "epfid2d1_104",
      "SequenceVariant": [
        "SK",
        "SS"
],
      "SeriesDescription": "cmrr_mbep2d_bold_2mm_MB8_Task_8x",
      "SeriesNumber": 21,
      "SeriesTime": "120654.546000",
      "SliceLocation": -97.200021243538,
      "SliceThickness": 2.0,
      "SmallestImagePixelValue": 0,
      "SoftwareVersions": "syngo MR B19",
      "SpacingBetweenSlices": 2.0000000034643,
      "SpecificCharacterSet": "ISO_IR 100",
      "StudyID": "1",
      "StudyTime": "100711.546000",
      "TransmitCoilName": "Body",
      "VariableFlipAngleFlag": "N",
      "WindowCenterWidthExplanation": "Algo1",
      "dBdt": 0.0},
    "slices": {}
  },
  "time": {
    "samples": {
      "AcquisitionNumber": [1, 2, 3, 4, 5, 6, 7, 8, 9, 10, 11, 12, 13, 14, 15, 16, 17, 18, 19, 20, 21, 22, 23, 24, 25, 26, 27, 28, 29, 30, 31, 32, 33, 34, 35, 36, 37, 38, 39, 40, 41, 42, 43, 44, 45, 46, 47, 48, 49, 50, 51, 52, 53, 54, 55, 56, 57, 58, 59, 60, 61, 62, 63, 64, 65, 66, 67, 68, 69, 70, 71, 72, 73, 74, 75, 76, 77, 78, 79, 80, 81, 82, 83, 84, 85, 86, 87, 88, 89, 90, 91, 92, 93, 94, 95, 96, 97, 98, 99, 100, 101, 102, 103, 104, 105, 106, 107, 108, 109, 110, 111, 112, 113, 114, 115, 116, 117, 118, 119, 120, 121, 122, 123, 124, 125, 126, 127, 128, 129, 130, 131, 132, 133, 134, 135, 136, 137, 138, 139, 140, 141, 142, 143, 144, 145, 146, 147, 148, 149, 150, 151, 152, 153, 154, 155, 156, 157, 158, 159, 160, 161, 162, 163, 164, 165, 166, 167, 168, 169, 170, 171, 172, 173, 174, 175, 176, 177, 178, 179, 180, 181, 182, 183, 184, 185, 186, 187, 188, 189, 190, 191, 192, 193, 194, 195, 196, 197, 198, 199, 200, 201, 202, 203, 204, 205, 206, 207, 208, 209, 210, 211, 212, 213, 214, 215, 216, 217, 218, 219, 220, 221, 222, 223, 224, 225, 226, 227, 228, 229, 230, 231, 232, 233, 234, 235, 236, 237, 238, 239, 240, 241, 242, 243, 244, 245, 246, 247, 248, 249, 250, 251, 252, 253, 254, 255, 256, 257, 258, 259, 260, 261, 262, 263, 264, 265, 266, 267, 268, 269, 270, 271, 272, 273, 274, 275, 276, 277, 278, 279, 280, 281, 282, 283, 284, 285, 286, 287, 288, 289, 290, 291, 292, 293, 294, 295, 296, 297, 298, 299, 300, 301, 302, 303, 304, 305, 306, 307, 308, 309, 310, 311, 312, 313, 314, 315, 316, 317, 318, 319, 320, 321, 322, 323, 324, 325, 326, 327, 328, 329, 330, 331, 332, 333, 334, 335, 336, 337, 338, 339, 340, 341, 342, 343, 344, 345, 346, 347, 348, 349, 350, 351, 352, 353, 354, 355, 356, 357, 358, 359, 360, 361, 362, 363, 364, 365, 366, 367, 368, 369, 370, 371, 372, 373, 374, 375, 376, 377, 378, 379, 380, 381, 382, 383, 384, 385, 386, 387, 388, 389, 390, 391, 392, 393, 394, 395, 396, 397, 398, 399, 400, 401, 402, 403, 404, 405, 406, 407, 408, 409, 410, 411, 412, 413, 414, 415, 416, 417, 418, 419, 420, 421, 422, 423, 424, 425, 426, 427, 428, 429, 430, 431, 432, 433, 434, 435, 436, 437, 438, 439, 440, 441, 442, 443, 444, 445, 446, 447, 448, 449, 450, 451, 452, 453, 454, 455, 456, 457, 458, 459, 460, 461, 462, 463, 464, 465, 466, 467, 468, 469, 470, 471, 472, 473, 474, 475, 476, 477, 478, 479, 480, 481, 482, 483, 484, 485, 486, 487, 488, 489, 490, 491, 492, 493, 494, 495, 496, 497, 498, 499, 500, 501, 502, 503, 504, 505, 506, 507, 508, 509, 510, 511, 512, 513, 514, 515, 516, 517, 518, 519, 520, 521, 522, 523, 524, 525, 526, 527, 528, 529, 530, 531, 532, 533, 534, 535, 536, 537, 538, 539, 540, 541, 542, 543, 544, 545, 546, 547, 548, 549, 550, 551, 552, 553, 554, 555, 556, 557, 558, 559, 560, 561, 562, 563, 564, 565, 566, 567, 568, 569, 570, 571, 572, 573, 574, 575, 576, 577, 578, 579, 580, 581],
      "AcquisitionTime": ["120627.722500", "120628.512500", "120629.300000", "120630.087500", "120630.875000", "120631.665000", "120632.452500", "120633.240000", "120634.027500", "120634.817500", "120635.605000", "120636.392500", "120637.180000", "120637.970000", "120638.757500", "120639.545000", "120640.332500", "120641.122500", "120641.910000", "120642.697500", "120643.487500", "120644.275000", "120645.062500", "120645.850000", "120646.640000", "120647.427500", "120648.215000", "120649.002500", "120649.792500", "120650.580000", "120651.367500", "120652.155000", "120652.945000", "120653.732500", "120654.520000", "120655.307500", "120656.097500", "120656.885000", "120657.672500", "120658.460000", "120659.250000", "120700.037500", "120700.825000", "120701.615000", "120702.402500", "120703.190000", "120703.977500", "120704.767500", "120705.555000", "120706.342500", "120707.130000", "120707.920000", "120708.707500", "120709.495000", "120710.282500", "120711.072500", "120711.860000", "120712.647500", "120713.435000", "120714.225000", "120715.012500", "120715.800000", "120716.587500", "120717.377500", "120718.165000", "120718.952500", "120719.742500", "120720.530000", "120721.317500", "120722.105000", "120722.895000", "120723.682500", "120724.470000", "120725.257500", "120726.047500", "120726.835000", "120727.622500", "120728.410000", "120729.200000", "120729.987500", "120730.775000", "120731.562500", "120732.352500", "120733.140000", "120733.927500", "120734.715000", "120735.505000", "120736.292500", "120737.080000", "120737.870000", "120738.657500", "120739.445000", "120740.232500", "120741.022500", "120741.810000", "120742.597500", "120743.385000", "120744.175000", "120744.962500", "120745.750000", "120746.537500", "120747.327500", "120748.115000", "120748.902500", "120749.690000", "120750.480000", "120751.267500", "120752.055000", "120752.842500", "120753.632500", "120754.420000", "120755.207500", "120755.997500", "120756.785000", "120757.572500", "120758.360000", "120759.150000", "120759.937500", "120800.725000", "120801.512500", "120802.302500", "120803.090000", "120803.877500", "120804.665000", "120805.455000", "120806.242500", "120807.030000", "120807.817500", "120808.607500", "120809.395000", "120810.182500", "120810.970000", "120811.760000", "120812.547500", "120813.335000", "120814.125000", "120814.912500", "120815.700000", "120816.487500", "120817.277500", "120818.065000", "120818.852500", "120819.640000", "120820.430000", "120821.217500", "120822.005000", "120822.792500", "120823.582500", "120824.370000", "120825.157500", "120825.945000", "120826.735000", "120827.522500", "120828.310000", "120829.100000", "120829.887500", "120830.675000", "120831.462500", "120832.252500", "120833.040000", "120833.827500", "120834.615000", "120835.405000", "120836.192500", "120836.980000", "120837.767500", "120838.557500", "120839.345000", "120840.132500", "120840.920000", "120841.710000", "120842.497500", "120843.285000", "120844.072500", "120844.862500", "120845.650000", "120846.437500", "120847.227500", "120848.015000", "120848.802500", "120849.590000", "120850.380000", "120851.167500", "120851.955000", "120852.742500", "120853.532500", "120854.320000", "120855.107500", "120855.895000", "120856.685000", "120857.472500", "120858.260000", "120859.047500", "120859.837500", "120900.625000", "120901.412500", "120902.200000", "120902.990000", "120903.777500", "120904.565000", "120905.355000", "120906.142500", "120906.930000", "120907.717500", "120908.507500", "120909.295000", "120910.082500", "120910.870000", "120911.660000", "120912.447500", "120913.235000", "120914.022500", "120914.812500", "120915.600000", "120916.387500", "120917.175000", "120917.965000", "120918.752500", "120919.540000", "120920.327500", "120921.117500", "120921.905000", "120922.692500", "120923.482500", "120924.270000", "120925.057500", "120925.845000", "120926.635000", "120927.422500", "120928.210000", "120928.997500", "120929.787500", "120930.575000", "120931.362500", "120932.150000", "120932.940000", "120933.727500", "120934.515000", "120935.302500", "120936.092500", "120936.880000", "120937.667500", "120938.455000", "120939.245000", "120940.032500", "120940.820000", "120941.610000", "120942.397500", "120943.185000", "120943.972500", "120944.762500", "120945.550000", "120946.337500", "120947.125000", "120947.915000", "120948.702500", "120949.490000", "120950.277500", "120951.067500", "120951.855000", "120952.642500", "120953.430000", "120954.220000", "120955.007500", "120955.795000", "120956.582500", "120957.372500", "120958.160000", "120958.947500", "120959.737500", "121000.525000", "121001.312500", "121002.100000", "121002.890000", "121003.677500", "121004.465000", "121005.252500", "121006.042500", "121006.830000", "121007.617500", "121008.405000", "121009.195000", "121009.982500", "121010.770000", "121011.557500", "121012.347500", "121013.135000", "121013.922500", "121014.710000", "121015.500000", "121016.287500", "121017.075000", "121017.865000", "121018.652500", "121019.440000", "121020.227500", "121021.017500", "121021.805000", "121022.592500", "121023.380000", "121024.170000", "121024.957500", "121025.745000", "121026.532500", "121027.322500", "121028.110000", "121028.897500", "121029.685000", "121030.475000", "121031.262500", "121032.050000", "121032.837500", "121033.627500", "121034.415000", "121035.202500", "121035.992500", "121036.780000", "121037.567500", "121038.355000", "121039.145000", "121039.932500", "121040.720000", "121041.507500", "121042.297500", "121043.085000", "121043.872500", "121044.660000", "121045.450000", "121046.237500", "121047.025000", "121047.812500", "121048.602500", "121049.390000", "121050.177500", "121050.965000", "121051.755000", "121052.542500", "121053.330000", "121054.120000", "121054.907500", "121055.695000", "121056.482500", "121057.272500", "121058.060000", "121058.847500", "121059.635000", "121100.425000", "121101.212500", "121102.000000", "121102.787500", "121103.577500", "121104.365000", "121105.152500", "121105.940000", "121106.730000", "121107.517500", "121108.305000", "121109.092500", "121109.882500", "121110.670000", "121111.457500", "121112.247500", "121113.035000", "121113.822500", "121114.610000", "121115.400000", "121116.187500", "121116.975000", "121117.762500", "121118.552500", "121119.340000", "121120.127500", "121120.915000", "121121.705000", "121122.492500", "121123.280000", "121124.067500", "121124.857500", "121125.645000", "121126.432500", "121127.220000", "121128.010000", "121128.797500", "121129.585000", "121130.375000", "121131.162500", "121131.950000", "121132.737500", "121133.527500", "121134.315000", "121135.102500", "121135.890000", "121136.680000", "121137.467500", "121138.255000", "121139.042500", "121139.832500", "121140.620000", "121141.407500", "121142.195000", "121142.985000", "121143.772500", "121144.560000", "121145.350000", "121146.137500", "121146.925000", "121147.712500", "121148.502500", "121149.290000", "121150.077500", "121150.865000", "121151.655000", "121152.442500", "121153.230000", "121154.017500", "121154.807500", "121155.595000", "121156.382500", "121157.170000", "121157.960000", "121158.747500", "121159.535000", "121200.322500", "121201.112500", "121201.900000", "121202.687500", "121203.477500", "121204.265000", "121205.052500", "121205.840000", "121206.630000", "121207.417500", "121208.205000", "121208.992500", "121209.782500", "121210.570000", "121211.357500", "121212.145000", "121212.935000", "121213.722500", "121214.510000", "121215.297500", "121216.087500", "121216.875000", "121217.662500", "121218.450000", "121219.240000", "121220.027500", "121220.815000", "121221.605000", "121222.392500", "121223.180000", "121223.967500", "121224.757500", "121225.545000", "121226.332500", "121227.120000", "121227.910000", "121228.697500", "121229.485000", "121230.272500", "121231.062500", "121231.850000", "121232.637500", "121233.425000", "121234.215000", "121235.002500", "121235.790000", "121236.577500", "121237.367500", "121238.155000", "121238.942500", "121239.732500", "121240.520000", "121241.307500", "121242.095000", "121242.885000", "121243.672500", "121244.460000", "121245.247500", "121246.037500", "121246.825000", "121247.612500", "121248.400000", "121249.190000", "121249.977500", "121250.765000", "121251.552500", "121252.342500", "121253.130000", "121253.917500", "121254.705000", "121255.495000", "121256.282500", "121257.070000", "121257.860000", "121258.647500", "121259.435000", "121300.222500", "121301.012500", "121301.800000", "121302.587500", "121303.375000", "121304.165000", "121304.952500", "121305.740000", "121306.527500", "121307.317500", "121308.105000", "121308.892500", "121309.680000", "121310.470000", "121311.257500", "121312.045000", "121312.832500", "121313.622500", "121314.410000", "121315.197500", "121315.987500", "121316.775000", "121317.562500", "121318.350000", "121319.140000", "121319.927500", "121320.715000", "121321.502500", "121322.292500", "121323.080000", "121323.867500", "121324.655000", "121325.445000", "121326.232500", "121327.020000", "121327.807500", "121328.597500", "121329.385000", "121330.172500", "121330.960000", "121331.750000", "121332.537500", "121333.325000", "121334.115000", "121334.902500", "121335.690000", "121336.477500", "121337.267500", "121338.055000", "121338.842500", "121339.630000", "121340.420000", "121341.207500", "121341.995000", "121342.782500", "121343.572500", "121344.360000", "121345.147500", "121345.935000", "121346.725000", "121347.512500", "121348.300000", "121349.087500", "121349.877500", "121350.665000", "121351.452500", "121352.242500", "121353.030000", "121353.817500", "121354.605000", "121355.395000", "121356.182500", "121356.970000", "121357.757500", "121358.547500", "121359.335000", "121400.122500", "121400.910000", "121401.700000", "121402.487500", "121403.275000", "121404.062500", "121404.852500"],
      "ContentTime": ["120654.562000", "120654.562000", "120654.562000", "120654.562000", "120654.562000", "120654.562000", "120654.562000", "120654.562000", "120654.578000", "120654.578000", "120654.578000", "120654.578000", "120654.578000", "120654.578000", "120654.578000", "120654.593000", "120654.593000", "120654.593000", "120654.593000", "120654.593000", "120654.593000", "120654.593000", "120654.609000", "120654.609000", "120654.609000", "120654.609000", "120654.609000", "120654.609000", "120654.609000", "120654.625000", "120714.515000", "120714.515000", "120714.531000", "120714.531000", "120714.531000", "120714.531000", "120714.531000", "120714.531000", "120714.531000", "120714.546000", "120714.546000", "120714.546000", "120714.546000", "120714.546000", "120714.546000", "120714.546000", "120714.546000", "120714.562000", "120714.562000", "120714.562000", "120714.562000", "120714.562000", "120714.562000", "120714.562000", "120714.578000", "120714.578000", "120734.515000", "120734.515000", "120734.515000", "120734.515000", "120734.531000", "120734.531000", "120734.531000", "120734.531000", "120734.531000", "120734.531000", "120734.531000", "120734.531000", "120734.546000", "120734.546000", "120734.546000", "120734.546000", "120734.546000", "120734.546000", "120734.562000", "120734.562000", "120734.562000", "120734.562000", "120734.562000", "120734.562000", "120734.562000", "120754.515000", "120754.515000", "120754.515000", "120754.515000", "120754.531000", "120754.531000", "120754.531000", "120754.531000", "120754.531000", "120754.531000", "120754.531000", "120754.546000", "120754.546000", "120754.546000", "120754.546000", "120754.546000", "120754.546000", "120754.546000", "120754.546000", "120754.562000", "120754.562000", "120754.562000", "120754.562000", "120754.562000", "120754.562000", "120754.562000", "120814.515000", "120814.515000", "120814.515000", "120814.515000", "120814.531000", "120814.531000", "120814.531000", "120814.531000", "120814.531000", "120814.531000", "120814.531000", "120814.546000", "120814.546000", "120814.546000", "120814.546000", "120814.546000", "120814.546000", "120814.546000", "120814.562000", "120814.562000", "120814.562000", "120814.562000", "120814.562000", "120814.562000", "120814.562000", "120834.515000", "120834.515000", "120834.515000", "120834.515000", "120834.531000", "120834.531000", "120834.531000", "120834.531000", "120834.531000", "120834.531000", "120834.546000", "120834.546000", "120834.546000", "120834.546000", "120834.546000", "120834.546000", "120834.546000", "120834.546000", "120834.562000", "120834.562000", "120834.562000", "120834.562000", "120834.562000", "120834.562000", "120834.562000", "120834.562000", "120854.515000", "120854.515000", "120854.515000", "120854.515000", "120854.531000", "120854.531000", "120854.531000", "120854.531000", "120854.531000", "120854.531000", "120854.531000", "120854.546000", "120854.546000", "120854.546000", "120854.546000", "120854.546000", "120854.546000", "120854.546000", "120854.546000", "120854.562000", "120854.562000", "120854.562000", "120854.562000", "120854.562000", "120854.578000", "120914.515000", "120914.515000", "120914.515000", "120914.515000", "120914.531000", "120914.531000", "120914.531000", "120914.531000", "120914.531000", "120914.531000", "120914.531000", "120914.531000", "120914.546000", "120914.546000", "120914.546000", "120914.546000", "120914.546000", "120914.546000", "120914.546000", "120914.562000", "120914.562000", "120914.562000", "120914.562000", "120914.562000", "120914.562000", "120934.515000", "120934.515000", "120934.515000", "120934.515000", "120934.531000", "120934.531000", "120934.531000", "120934.531000", "120934.531000", "120934.531000", "120934.531000", "120934.546000", "120934.546000", "120934.546000", "120934.546000", "120934.546000", "120934.546000", "120934.546000", "120934.546000", "120934.562000", "120934.562000", "120934.562000", "120934.562000", "120934.562000", "120934.562000", "120934.562000", "120954.515000", "120954.515000", "120954.531000", "120954.531000", "120954.531000", "120954.546000", "120954.546000", "120954.546000", "120954.546000", "120954.546000", "120954.546000", "120954.546000", "120954.546000", "120954.562000", "120954.562000", "120954.562000", "120954.562000", "120954.562000", "120954.562000", "120954.562000", "120954.578000", "120954.578000", "120954.578000", "120954.578000", "120954.578000", "121014.515000", "121014.515000", "121014.515000", "121014.515000", "121014.531000", "121014.531000", "121014.531000", "121014.531000", "121014.531000", "121014.531000", "121014.546000", "121014.546000", "121014.546000", "121014.546000", "121014.546000", "121014.562000", "121014.562000", "121014.562000", "121014.562000", "121014.562000", "121014.562000", "121014.562000", "121014.578000", "121014.578000", "121014.578000", "121014.578000", "121034.515000", "121034.515000", "121034.515000", "121034.515000", "121034.531000", "121034.531000", "121034.531000", "121034.531000", "121034.531000", "121034.531000", "121034.546000", "121034.546000", "121034.546000", "121034.546000", "121034.546000", "121034.546000", "121034.562000", "121034.562000", "121034.562000", "121034.562000", "121034.562000", "121034.562000", "121034.562000", "121034.578000", "121034.578000", "121054.515000", "121054.515000", "121054.515000", "121054.515000", "121054.531000", "121054.531000", "121054.531000", "121054.531000", "121054.531000", "121054.546000", "121054.546000", "121054.546000", "121054.546000", "121054.546000", "121054.546000", "121054.546000", "121054.546000", "121054.562000", "121054.562000", "121054.562000", "121054.562000", "121054.562000", "121054.562000", "121054.562000", "121054.578000", "121054.578000", "121114.515000", "121114.515000", "121114.515000", "121114.515000", "121114.531000", "121114.531000", "121114.531000", "121114.531000", "121114.531000", "121114.531000", "121114.546000", "121114.546000", "121114.546000", "121114.546000", "121114.546000", "121114.546000", "121114.546000", "121114.562000", "121114.562000", "121114.562000", "121114.562000", "121114.562000", "121114.562000", "121114.578000", "121114.578000", "121134.515000", "121134.515000", "121134.515000", "121134.515000", "121134.531000", "121134.531000", "121134.531000", "121134.531000", "121134.531000", "121134.531000", "121134.531000", "121134.531000", "121134.546000", "121134.546000", "121134.546000", "121134.546000", "121134.546000", "121134.546000", "121134.546000", "121134.562000", "121134.562000", "121134.562000", "121134.562000", "121134.562000", "121134.562000", "121134.562000", "121154.515000", "121154.515000", "121154.515000", "121154.515000", "121154.531000", "121154.531000", "121154.531000", "121154.531000", "121154.531000", "121154.531000", "121154.531000", "121154.546000", "121154.546000", "121154.546000", "121154.546000", "121154.546000", "121154.546000", "121154.546000", "121154.546000", "121154.562000", "121154.562000", "121154.562000", "121154.562000", "121154.562000", "121154.562000", "121214.515000", "121214.515000", "121214.515000", "121214.515000", "121214.531000", "121214.531000", "121214.531000", "121214.531000", "121214.531000", "121214.531000", "121214.531000", "121214.546000", "121214.546000", "121214.546000", "121214.546000", "121214.546000", "121214.546000", "121214.562000", "121214.562000", "121214.562000", "121214.562000", "121214.562000", "121214.562000", "121214.562000", "121214.578000", "121214.578000", "121234.515000", "121234.515000", "121234.515000", "121234.515000", "121234.531000", "121234.531000", "121234.531000", "121234.531000", "121234.531000", "121234.531000", "121234.531000", "121234.546000", "121234.546000", "121234.546000", "121234.546000", "121234.546000", "121234.546000", "121234.546000", "121234.562000", "121234.562000", "121234.562000", "121234.562000", "121234.562000", "121234.562000", "121234.562000", "121254.515000", "121254.515000", "121254.515000", "121254.515000", "121254.531000", "121254.531000", "121254.531000", "121254.531000", "121254.531000", "121254.531000", "121254.531000", "121254.531000", "121254.546000", "121254.546000", "121254.546000", "121254.546000", "121254.546000", "121254.546000", "121254.546000", "121254.562000", "121254.562000", "121254.562000", "121254.562000", "121254.562000", "121254.562000", "121254.562000", "121314.515000", "121314.515000", "121314.515000", "121314.515000", "121314.531000", "121314.531000", "121314.531000", "121314.531000", "121314.531000", "121314.531000", "121314.531000", "121314.531000", "121314.546000", "121314.546000", "121314.546000", "121314.546000", "121314.546000", "121314.546000", "121314.546000", "121314.562000", "121314.562000", "121314.562000", "121314.562000", "121314.562000", "121314.562000", "121334.515000", "121334.515000", "121334.515000", "121334.515000", "121334.531000", "121334.531000", "121334.531000", "121334.531000", "121334.531000", "121334.531000", "121334.531000", "121334.546000", "121334.546000", "121334.546000", "121334.546000", "121334.546000", "121334.562000", "121334.562000", "121334.562000", "121334.562000", "121334.562000", "121334.562000", "121334.562000", "121334.578000", "121334.578000", "121334.578000", "121354.515000", "121354.515000", "121354.515000", "121354.515000", "121354.531000", "121354.531000", "121354.531000", "121354.531000", "121354.531000", "121354.531000", "121354.531000", "121354.531000", "121354.546000", "121354.546000", "121354.546000", "121354.546000", "121354.546000", "121354.546000", "121354.546000", "121354.562000", "121354.562000", "121354.562000", "121354.562000", "121354.562000", "121354.562000", "121406.578000", "121406.578000", "121406.578000", "121406.578000", "121406.578000", "121406.578000", "121406.578000", "121406.593000", "121406.593000", "121406.593000", "121406.593000", "121406.593000", "121406.593000", "121406.593000", "121406.593000", "121406.609000"],
