{
  "AcquisitionMatrixPE": 104,
  "AcquisitionNumber": 1,
  "AcquisitionTime": "13:44:18.722500",
  "BandwidthPerPixelPhaseEncode": 13.935,
  "BaseResolution": 104,
  "CoilString": "C:HEA;HEP",
  "ConversionSoftware": "dcm2niix",
  "ConversionSoftwareVersion": "v1.0.20210317",
  "DerivedVendorReportedEchoSpacing": 0.000690017,
  "DeviceSerialNumber": "35450",
  "DwellTime": 2.5e-06,
  "EchoTime": 0.0348,
  "EffectiveEchoSpacing": 0.000690017,
  "FlipAngle": 55,
  "ImageComments": "Unaliased MB8/PE3 (remote)",
  "ImageOrientationPatientDICOM": [1, 0, 0, 0, 1, 0],
  "ImageType": [
    "ORIGINAL",
    "PRIMARY",
    "M",
    "MB",
    "ND",
    "MOSAIC"
],
  "ImagingFrequency": 123.234,
  "InPlanePhaseEncodingDirectionDICOM": "COL",
  "InstitutionAddress": "Univeristy Ave. 197,Newark,North East,US,07102-1814",
  "InstitutionName": "RUBIC",
  "InstitutionalDepartmentName": "Department",
  "MRAcquisitionType": "2D",
  "MagneticFieldStrength": 3,
  "Manufacturer": "Siemens",
  "ManufacturersModelName": "TrioTim",
  "Modality": "MR",
  "MultibandAccelerationFactor": 8,
  "PartialFourier": 0.875,
  "PatientPosition": "HFS",
  "PercentPhaseFOV": 100,
  "PercentSampling": 100,
  "PhaseEncodingDirection": "j-",
  "PhaseEncodingSteps": 91,
  "PhaseResolution": 1,
  "PixelBandwidth": 1923,
  "ProcedureStepDescription": "Cole^Michael",
  "ProtocolName": "cmrr_mbep2d_bold_2mm_MB8_Task_8x",
  "PulseSequenceDetails": "%CustomerSeq%\\cmrr_mbep2d_bold",
  "ReceiveCoilName": "32Ch_Head",
  "ReconMatrixPE": 104,
  "RepetitionTime": 0.785,
  "SAR": 0.15006,
  "ScanOptions": "PFP\\FS",
  "ScanningSequence": "EP",
  "SequenceName": "epfid2d1_104",
  "SequenceVariant": "SK\\SS",
  "SeriesDescription": "cmrr_mbep2d_bold_2mm_MB8_Task_8x",
  "SeriesNumber": 17,
  "ShimSetting": [2155, -377, -7304, 308, -123, 27, 175, 27],
  "SliceThickness": 2,
  "SliceTiming": [0, 0.4375, 0.0875, 0.525, 0.175, 0.6125, 0.2625, 0.7, 0.35, 0, 0.4375, 0.0875, 0.525, 0.175, 0.6125, 0.2625, 0.7, 0.35, 0, 0.4375, 0.0875, 0.525, 0.175, 0.6125, 0.2625, 0.7, 0.35, 0, 0.4375, 0.0875, 0.525, 0.175, 0.6125, 0.2625, 0.7, 0.35, 0, 0.4375, 0.0875, 0.525, 0.175, 0.6125, 0.2625, 0.7, 0.35, 0, 0.4375, 0.0875, 0.525, 0.175, 0.6125, 0.2625, 0.7, 0.35, 0, 0.4375, 0.0875, 0.525, 0.175, 0.6125, 0.2625, 0.7, 0.35, 0, 0.4375, 0.0875, 0.525, 0.175, 0.6125, 0.2625, 0.7, 0.35],
  "SoftwareVersions": "syngo MR B19",
  "SpacingBetweenSlices": 2,
  "StationName": "MRC35450",
  "TaskName": "cpro",
  "TotalReadoutTime": 0.0710717,
  "TxRefAmp": 393.292,
  "dcmmeta_affine": [
    [-2.0, 0.0, 0.0, 104.0],
    [0.0, 2.0, 0.0, -78.44551849365234],
    [0.0, 0.0, 2.0, -93.31477355957031],
    [0.0, 0.0, 0.0, 1.0]
],
  "dcmmeta_reorient_transform": [
    [0.0, -1.0, 0.0, 103.0],
    [1.0, 0.0, 0.0, 0.0],
    [0.0, 0.0, 1.0, 0.0],
    [0.0, 0.0, 0.0, 1.0]
],
  "dcmmeta_shape": [104, 104, 72, 581],
  "dcmmeta_slice_dim": 2,
  "dcmmeta_version": 0.6,
  "global": {
    "const": {
      "AcquisitionMatrix": [104, 0, 0, 104],
      "AngioFlag": "N",
      "BitsAllocated": 16,
      "BitsStored": 12,
      "Columns": 936,
      "EchoNumbers": 1,
      "EchoTime": 34.8,
      "EchoTrainLength": 1,
      "FlipAngle": 55.0,
      "HighBit": 11,
      "ImageOrientationPatient": [1.0, 0.0, 0.0, 0.0, 1.0, 0.0],
      "ImagePositionPatient": [-936.0, -959.554479599, -93.31477355957],
      "ImageType": [
        "ORIGINAL",
        "PRIMARY",
        "M",
        "MB",
        "ND",
        "MOSAIC"
],
      "ImagedNucleus": "1H",
      "ImagingFrequency": 123.23447,
      "InPlanePhaseEncodingDirection": "COL",
      "MRAcquisitionType": "2D",
      "MagneticFieldStrength": 3.0,
      "Manufacturer": "SIEMENS",
      "ManufacturerModelName": "TrioTim",
      "Modality": "MR",
      "NumberOfAverages": 1.0,
      "NumberOfPhaseEncodingSteps": 91,
      "PercentPhaseFieldOfView": 100.0,
      "PercentSampling": 100.0,
      "PerformedProcedureStepStartTime": "121510.312000",
      "PhotometricInterpretation": "MONOCHROME2",
      "PixelBandwidth": 1923.0,
      "PixelRepresentation": 0,
      "PixelSpacing": [2.0, 2.0],
      "ProtocolName": "cmrr_mbep2d_bold_2mm_MB8_Task_8x",
      "RepetitionTime": 785.0,
      "Rows": 936,
      "SAR": 0.15005977563059,
      "SamplesPerPixel": 1,
      "ScanOptions": [
        "PFP",
        "FS"
],
      "ScanningSequence": "EP",
      "SequenceName": "epfid2d1_104",
      "SequenceVariant": [
        "SK",
        "SS"
],
      "SeriesDescription": "cmrr_mbep2d_bold_2mm_MB8_Task_8x",
      "SeriesNumber": 17,
      "SeriesTime": "134451.656000",
      "SliceLocation": -93.31477355957,
      "SliceThickness": 2.0,
      "SmallestImagePixelValue": 0,
      "SoftwareVersions": "syngo MR B19",
      "SpacingBetweenSlices": 2.0000000537281,
      "SpecificCharacterSet": "ISO_IR 100",
      "StudyID": "1",
      "StudyTime": "121510.281000",
      "TransmitCoilName": "Body",
      "VariableFlipAngleFlag": "N",
      "WindowCenterWidthExplanation": "Algo1",
      "dBdt": 0.0},
    "slices": {}
  },
  "time": {
    "samples": {
      "AcquisitionNumber": [1, 2, 3, 4, 5, 6, 7, 8, 9, 10, 11, 12, 13, 14, 15, 16, 17, 18, 19, 20, 21, 22, 23, 24, 25, 26, 27, 28, 29, 30, 31, 32, 33, 34, 35, 36, 37, 38, 39, 40, 41, 42, 43, 44, 45, 46, 47, 48, 49, 50, 51, 52, 53, 54, 55, 56, 57, 58, 59, 60, 61, 62, 63, 64, 65, 66, 67, 68, 69, 70, 71, 72, 73, 74, 75, 76, 77, 78, 79, 80, 81, 82, 83, 84, 85, 86, 87, 88, 89, 90, 91, 92, 93, 94, 95, 96, 97, 98, 99, 100, 101, 102, 103, 104, 105, 106, 107, 108, 109, 110, 111, 112, 113, 114, 115, 116, 117, 118, 119, 120, 121, 122, 123, 124, 125, 126, 127, 128, 129, 130, 131, 132, 133, 134, 135, 136, 137, 138, 139, 140, 141, 142, 143, 144, 145, 146, 147, 148, 149, 150, 151, 152, 153, 154, 155, 156, 157, 158, 159, 160, 161, 162, 163, 164, 165, 166, 167, 168, 169, 170, 171, 172, 173, 174, 175, 176, 177, 178, 179, 180, 181, 182, 183, 184, 185, 186, 187, 188, 189, 190, 191, 192, 193, 194, 195, 196, 197, 198, 199, 200, 201, 202, 203, 204, 205, 206, 207, 208, 209, 210, 211, 212, 213, 214, 215, 216, 217, 218, 219, 220, 221, 222, 223, 224, 225, 226, 227, 228, 229, 230, 231, 232, 233, 234, 235, 236, 237, 238, 239, 240, 241, 242, 243, 244, 245, 246, 247, 248, 249, 250, 251, 252, 253, 254, 255, 256, 257, 258, 259, 260, 261, 262, 263, 264, 265, 266, 267, 268, 269, 270, 271, 272, 273, 274, 275, 276, 277, 278, 279, 280, 281, 282, 283, 284, 285, 286, 287, 288, 289, 290, 291, 292, 293, 294, 295, 296, 297, 298, 299, 300, 301, 302, 303, 304, 305, 306, 307, 308, 309, 310, 311, 312, 313, 314, 315, 316, 317, 318, 319, 320, 321, 322, 323, 324, 325, 326, 327, 328, 329, 330, 331, 332, 333, 334, 335, 336, 337, 338, 339, 340, 341, 342, 343, 344, 345, 346, 347, 348, 349, 350, 351, 352, 353, 354, 355, 356, 357, 358, 359, 360, 361, 362, 363, 364, 365, 366, 367, 368, 369, 370, 371, 372, 373, 374, 375, 376, 377, 378, 379, 380, 381, 382, 383, 384, 385, 386, 387, 388, 389, 390, 391, 392, 393, 394, 395, 396, 397, 398, 399, 400, 401, 402, 403, 404, 405, 406, 407, 408, 409, 410, 411, 412, 413, 414, 415, 416, 417, 418, 419, 420, 421, 422, 423, 424, 425, 426, 427, 428, 429, 430, 431, 432, 433, 434, 435, 436, 437, 438, 439, 440, 441, 442, 443, 444, 445, 446, 447, 448, 449, 450, 451, 452, 453, 454, 455, 456, 457, 458, 459, 460, 461, 462, 463, 464, 465, 466, 467, 468, 469, 470, 471, 472, 473, 474, 475, 476, 477, 478, 479, 480, 481, 482, 483, 484, 485, 486, 487, 488, 489, 490, 491, 492, 493, 494, 495, 496, 497, 498, 499, 500, 501, 502, 503, 504, 505, 506, 507, 508, 509, 510, 511, 512, 513, 514, 515, 516, 517, 518, 519, 520, 521, 522, 523, 524, 525, 526, 527, 528, 529, 530, 531, 532, 533, 534, 535, 536, 537, 538, 539, 540, 541, 542, 543, 544, 545, 546, 547, 548, 549, 550, 551, 552, 553, 554, 555, 556, 557, 558, 559, 560, 561, 562, 563, 564, 565, 566, 567, 568, 569, 570, 571, 572, 573, 574, 575, 576, 577, 578, 579, 580, 581],
      "AcquisitionTime": ["134418.722500", "134419.510000", "134420.300000", "134421.087500", "134421.875000", "134422.662500", "134423.452500", "134424.240000", "134425.027500", "134425.817500", "134426.605000", "134427.392500", "134428.180000", "134428.970000", "134429.757500", "134430.545000", "134431.332500", "134432.122500", "134432.910000", "134433.697500", "134434.485000", "134435.275000", "134436.062500", "134436.850000", "134437.637500", "134438.427500", "134439.215000", "134440.002500", "134440.790000", "134441.580000", "134442.367500", "134443.155000", "134443.945000", "134444.732500", "134445.520000", "134446.307500", "134447.097500", "134447.885000", "134448.672500", "134449.460000", "134450.250000", "134451.037500", "134451.825000", "134452.612500", "134453.402500", "134454.190000", "134454.977500", "134455.765000", "134456.555000", "134457.342500", "134458.130000", "134458.917500", "134459.707500", "134500.495000", "134501.282500", "134502.072500", "134502.860000", "134503.647500", "134504.435000", "134505.225000", "134506.012500", "134506.800000", "134507.587500", "134508.377500", "134509.165000", "134509.952500", "134510.740000", "134511.530000", "134512.317500", "134513.105000", "134513.892500", "134514.682500", "134515.470000", "134516.257500", "134517.045000", "134517.835000", "134518.622500", "134519.410000", "134520.200000", "134520.987500", "134521.775000", "134522.562500", "134523.352500", "134524.140000", "134524.927500", "134525.715000", "134526.505000", "134527.292500", "134528.080000", "134528.867500", "134529.657500", "134530.445000", "134531.232500", "134532.020000", "134532.810000", "134533.597500", "134534.385000", "134535.172500", "134535.962500", "134536.750000", "134537.537500", "134538.327500", "134539.115000", "134539.902500", "134540.690000", "134541.480000", "134542.267500", "134543.055000", "134543.842500", "134544.632500", "134545.420000", "134546.207500", "134546.995000", "134547.785000", "134548.572500", "134549.360000", "134550.147500", "134550.937500", "134551.725000", "134552.512500", "134553.300000", "134554.090000", "134554.877500", "134555.665000", "134556.455000", "134557.242500", "134558.030000", "134558.817500", "134559.607500", "134600.395000", "134601.182500", "134601.970000", "134602.760000", "134603.547500", "134604.335000", "134605.122500", "134605.912500", "134606.700000", "134607.487500", "134608.275000", "134609.065000", "134609.852500", "134610.640000", "134611.427500", "134612.217500", "134613.005000", "134613.792500", "134614.582500", "134615.370000", "134616.157500", "134616.945000", "134617.735000", "134618.522500", "134619.310000", "134620.097500", "134620.887500", "134621.675000", "134622.462500", "134623.250000", "134624.040000", "134624.827500", "134625.615000", "134626.402500", "134627.192500", "134627.980000", "134628.767500", "134629.557500", "134630.345000", "134631.132500", "134631.920000", "134632.710000", "134633.497500", "134634.285000", "134635.072500", "134635.862500", "134636.650000", "134637.437500", "134638.225000", "134639.015000", "134639.802500", "134640.590000", "134641.377500", "134642.167500", "134642.955000", "134643.742500", "134644.530000", "134645.320000", "134646.107500", "134646.895000", "134647.685000", "134648.472500", "134649.260000", "134650.047500", "134650.837500", "134651.625000", "134652.412500", "134653.200000", "134653.990000", "134654.777500", "134655.565000", "134656.352500", "134657.142500", "134657.930000", "134658.717500", "134659.505000", "134700.295000", "134701.082500", "134701.870000", "134702.657500", "134703.447500", "134704.235000", "134705.022500", "134705.812500", "134706.600000", "134707.387500", "134708.175000", "134708.965000", "134709.752500", "134710.540000", "134711.327500", "134712.117500", "134712.905000", "134713.692500", "134714.480000", "134715.270000", "134716.057500", "134716.845000", "134717.632500", "134718.422500", "134719.210000", "134719.997500", "134720.785000", "134721.575000", "134722.362500", "134723.150000", "134723.940000", "134724.727500", "134725.515000", "134726.302500", "134727.092500", "134727.880000", "134728.667500", "134729.455000", "134730.245000", "134731.032500", "134731.820000", "134732.607500", "134733.397500", "134734.185000", "134734.972500", "134735.760000", "134736.550000", "134737.337500", "134738.125000", "134738.912500", "134739.702500", "134740.490000", "134741.277500", "134742.067500", "134742.855000", "134743.642500", "134744.430000", "134745.220000", "134746.007500", "134746.795000", "134747.582500", "134748.372500", "134749.160000", "134749.947500", "134750.735000", "134751.525000", "134752.312500", "134753.100000", "134753.887500", "134754.677500", "134755.465000", "134756.252500", "134757.040000", "134757.830000", "134758.617500", "134759.405000", "134800.195000", "134800.982500", "134801.770000", "134802.557500", "134803.347500", "134804.135000", "134804.922500", "134805.710000", "134806.500000", "134807.287500", "134808.075000", "134808.862500", "134809.652500", "134810.440000", "134811.227500", "134812.015000", "134812.805000", "134813.592500", "134814.380000", "134815.167500", "134815.957500", "134816.745000", "134817.532500", "134818.322500", "134819.110000", "134819.897500", "134820.685000", "134821.475000", "134822.262500", "134823.050000", "134823.837500", "134824.627500", "134825.415000", "134826.202500", "134826.990000", "134827.780000", "134828.567500", "134829.355000", "134830.142500", "134830.932500", "134831.720000", "134832.507500", "134833.295000", "134834.085000", "134834.872500", "134835.660000", "134836.450000", "134837.237500", "134838.025000", "134838.812500", "134839.602500", "134840.390000", "134841.177500", "134841.965000", "134842.755000", "134843.542500", "134844.330000", "134845.117500", "134845.907500", "134846.695000", "134847.482500", "134848.270000", "134849.060000", "134849.847500", "134850.635000", "134851.422500", "134852.212500", "134853.000000", "134853.787500", "134854.577500", "134855.365000", "134856.152500", "134856.940000", "134857.730000", "134858.517500", "134859.305000", "134900.092500", "134900.882500", "134901.670000", "134902.457500", "134903.245000", "134904.035000", "134904.822500", "134905.610000", "134906.397500", "134907.187500", "134907.975000", "134908.762500", "134909.550000", "134910.340000", "134911.127500", "134911.915000", "134912.705000", "134913.492500", "134914.280000", "134915.067500", "134915.857500", "134916.645000", "134917.432500", "134918.220000", "134919.010000", "134919.797500", "134920.585000", "134921.372500", "134922.162500", "134922.950000", "134923.737500", "134924.525000", "134925.315000", "134926.102500", "134926.890000", "134927.677500", "134928.467500", "134929.255000", "134930.042500", "134930.832500", "134931.620000", "134932.407500", "134933.195000", "134933.985000", "134934.772500", "134935.560000", "134936.347500", "134937.137500", "134937.925000", "134938.712500", "134939.500000", "134940.290000", "134941.077500", "134941.865000", "134942.652500", "134943.442500", "134944.230000", "134945.017500", "134945.807500", "134946.595000", "134947.382500", "134948.170000", "134948.960000", "134949.747500", "134950.535000", "134951.322500", "134952.112500", "134952.900000", "134953.687500", "134954.475000", "134955.265000", "134956.052500", "134956.840000", "134957.627500", "134958.417500", "134959.205000", "134959.992500", "135000.780000", "135001.570000", "135002.357500", "135003.145000", "135003.935000", "135004.722500", "135005.510000", "135006.297500", "135007.087500", "135007.875000", "135008.662500", "135009.450000", "135010.240000", "135011.027500", "135011.815000", "135012.602500", "135013.392500", "135014.180000", "135014.967500", "135015.755000", "135016.545000", "135017.332500", "135018.120000", "135018.907500", "135019.697500", "135020.485000", "135021.272500", "135022.062500", "135022.850000", "135023.637500", "135024.425000", "135025.215000", "135026.002500", "135026.790000", "135027.577500", "135028.367500", "135029.155000", "135029.942500", "135030.730000", "135031.520000", "135032.307500", "135033.095000", "135033.882500", "135034.672500", "135035.460000", "135036.247500", "135037.035000", "135037.825000", "135038.612500", "135039.400000", "135040.190000", "135040.977500", "135041.765000", "135042.552500", "135043.342500", "135044.130000", "135044.917500", "135045.705000", "135046.495000", "135047.282500", "135048.070000", "135048.857500", "135049.647500", "135050.435000", "135051.222500", "135052.010000", "135052.800000", "135053.587500", "135054.375000", "135055.162500", "135055.952500", "135056.740000", "135057.527500", "135058.317500", "135059.105000", "135059.892500", "135100.680000", "135101.470000", "135102.257500", "135103.045000", "135103.832500", "135104.622500", "135105.410000", "135106.197500", "135106.985000", "135107.775000", "135108.562500", "135109.350000", "135110.137500", "135110.927500", "135111.715000", "135112.502500", "135113.290000", "135114.080000", "135114.867500", "135115.655000", "135116.445000", "135117.232500", "135118.020000", "135118.807500", "135119.597500", "135120.385000", "135121.172500", "135121.960000", "135122.750000", "135123.537500", "135124.325000", "135125.112500", "135125.902500", "135126.690000", "135127.477500", "135128.265000", "135129.055000", "135129.842500", "135130.630000", "135131.417500", "135132.207500", "135132.995000", "135133.782500", "135134.572500", "135135.360000", "135136.147500", "135136.935000", "135137.725000", "135138.512500", "135139.300000", "135140.087500", "135140.877500", "135141.665000", "135142.452500", "135143.240000", "135144.030000", "135144.817500", "135145.605000", "135146.392500", "135147.182500", "135147.970000", "135148.757500", "135149.545000", "135150.335000", "135151.122500", "135151.910000", "135152.700000", "135153.487500", "135154.275000", "135155.062500", "135155.852500"],
      "ContentTime": ["134451.656000", "134451.656000", "134451.656000", "134451.671000", "134451.671000", "134451.671000", "134451.671000", "134451.671000", "134451.671000", "134451.671000", "134451.687000", "134451.687000", "134451.687000", "134451.687000", "134451.687000", "134451.687000", "134451.703000", "134451.703000", "134451.703000", "134451.703000", "134451.703000", "134451.703000", "134451.703000", "134451.718000", "134451.718000", "134451.718000", "134451.718000", "134451.718000", "134451.718000", "134451.718000", "134451.734000", "134451.734000", "134451.734000", "134451.734000", "134451.734000", "134451.734000", "134451.750000", "134451.750000", "134451.750000", "134451.750000", "134511.625000", "134511.625000", "134511.625000", "134511.625000", "134511.640000", "134511.640000", "134511.640000", "134511.640000", "134511.640000", "134511.656000", "134511.656000", "134511.656000", "134511.656000", "134511.656000", "134511.656000", "134511.671000", "134511.671000", "134511.671000", "134511.671000", "134511.671000", "134511.671000", "134511.687000", "134511.687000", "134511.687000", "134511.687000", "134531.625000", "134531.625000", "134531.625000", "134531.625000", "134531.640000", "134531.640000", "134531.640000", "134531.640000", "134531.640000", "134531.640000", "134531.640000", "134531.656000", "134531.656000", "134531.656000", "134531.656000", "134531.656000", "134531.656000", "134531.656000", "134531.671000", "134531.671000", "134531.671000", "134531.671000", "134531.671000", "134531.671000", "134531.687000", "134531.687000", "134551.625000", "134551.625000", "134551.625000", "134551.625000", "134551.640000", "134551.640000", "134551.640000", "134551.640000", "134551.640000", "134551.640000", "134551.640000", "134551.656000", "134551.656000", "134551.656000", "134551.656000", "134551.656000", "134551.656000", "134551.656000", "134551.671000", "134551.671000", "134551.671000", "134551.671000", "134551.671000", "134551.671000", "134551.671000", "134611.625000", "134611.625000", "134611.625000", "134611.625000", "134611.640000", "134611.640000", "134611.640000", "134611.640000", "134611.640000", "134611.640000", "134611.640000", "134611.656000", "134611.656000", "134611.656000", "134611.656000", "134611.656000", "134611.656000", "134611.671000", "134611.671000", "134611.671000", "134611.671000", "134611.671000", "134611.671000", "134611.671000", "134611.687000", "134611.687000", "134631.625000", "134631.625000", "134631.625000", "134631.625000", "134631.640000", "134631.640000", "134631.640000", "134631.640000", "134631.640000", "134631.640000", "134631.656000", "134631.656000", "134631.656000", "134631.656000", "134631.656000", "134631.656000", "134631.656000", "134631.671000", "134631.671000", "134631.671000", "134631.671000", "134631.671000", "134631.687000", "134631.687000", "134631.687000", "134651.625000", "134651.625000", "134651.625000", "134651.625000", "134651.640000", "134651.640000", "134651.640000", "134651.640000", "134651.640000", "134651.640000", "134651.640000", "134651.656000", "134651.656000", "134651.656000", "134651.656000", "134651.656000", "134651.656000", "134651.656000", "134651.671000", "134651.671000", "134651.671000", "134651.671000", "134651.671000", "134651.671000", "134651.671000", "134651.687000", "134711.625000", "134711.625000", "134711.625000", "134711.625000", "134711.640000", "134711.640000", "134711.640000", "134711.640000", "134711.640000", "134711.640000", "134711.640000", "134711.656000", "134711.656000", "134711.656000", "134711.656000", "134711.656000", "134711.656000", "134711.656000", "134711.671000", "134711.671000", "134711.671000", "134711.671000", "134711.671000", "134711.671000", "134711.687000", "134731.625000", "134731.625000", "134731.625000", "134731.625000", "134731.640000", "134731.640000", "134731.640000", "134731.640000", "134731.640000", "134731.640000", "134731.656000", "134731.656000", "134731.656000", "134731.656000", "134731.656000", "134731.656000", "134731.656000", "134731.671000", "134731.671000", "134731.671000", "134731.671000", "134731.671000", "134731.671000", "134731.671000", "134731.687000", "134731.687000", "134751.625000", "134751.625000", "134751.625000", "134751.625000", "134751.640000", "134751.640000", "134751.640000", "134751.640000", "134751.640000", "134751.640000", "134751.640000", "134751.656000", "134751.656000", "134751.656000", "134751.656000", "134751.656000", "134751.656000", "134751.671000", "134751.671000", "134751.671000", "134751.671000", "134751.671000", "134751.687000", "134751.687000", "134751.687000", "134811.625000", "134811.625000", "134811.625000", "134811.625000", "134811.640000", "134811.640000", "134811.640000", "134811.640000", "134811.640000", "134811.640000", "134811.640000", "134811.656000", "134811.656000", "134811.656000", "134811.656000", "134811.656000", "134811.671000", "134811.671000", "134811.671000", "134811.671000", "134811.671000", "134811.671000", "134811.671000", "134811.687000", "134811.687000", "134811.687000", "134831.625000", "134831.625000", "134831.625000", "134831.625000", "134831.640000", "134831.640000", "134831.640000", "134831.640000", "134831.640000", "134831.640000", "134831.656000", "134831.656000", "134831.656000", "134831.656000", "134831.656000", "134831.656000", "134831.656000", "134831.671000", "134831.671000", "134831.671000", "134831.671000", "134831.671000", "134831.671000", "134831.671000", "134831.687000", "134851.625000", "134851.625000", "134851.625000", "134851.625000", "134851.640000", "134851.640000", "134851.640000", "134851.640000", "134851.640000", "134851.640000", "134851.640000", "134851.656000", "134851.656000", "134851.656000", "134851.656000", "134851.656000", "134851.656000", "134851.671000", "134851.671000", "134851.671000", "134851.671000", "134851.671000", "134851.671000", "134851.687000", "134851.687000", "134911.625000", "134911.625000", "134911.625000", "134911.625000", "134911.640000", "134911.640000", "134911.640000", "134911.640000", "134911.640000", "134911.640000", "134911.640000", "134911.656000", "134911.656000", "134911.656000", "134911.656000", "134911.656000", "134911.656000", "134911.671000", "134911.671000", "134911.671000", "134911.671000", "134911.687000", "134911.687000", "134911.687000", "134911.687000", "134911.687000", "134931.625000", "134931.625000", "134931.625000", "134931.625000", "134931.640000", "134931.640000", "134931.640000", "134931.640000", "134931.640000", "134931.640000", "134931.656000", "134931.656000", "134931.656000", "134931.656000", "134931.656000", "134931.656000", "134931.656000", "134931.671000", "134931.671000", "134931.671000", "134931.671000", "134931.671000", "134931.671000", "134931.687000", "134931.687000", "134951.625000", "134951.625000", "134951.625000", "134951.640000", "134951.640000", "134951.640000", "134951.640000", "134951.640000", "134951.640000", "134951.640000", "134951.656000", "134951.656000", "134951.656000", "134951.656000", "134951.656000", "134951.656000", "134951.656000", "134951.671000", "134951.671000", "134951.671000", "134951.671000", "134951.671000", "134951.671000", "134951.671000", "134951.687000", "134951.687000", "135011.625000", "135011.625000", "135011.625000", "135011.625000", "135011.640000", "135011.640000", "135011.640000", "135011.640000", "135011.640000", "135011.656000", "135011.656000", "135011.656000", "135011.656000", "135011.656000", "135011.656000", "135011.656000", "135011.671000", "135011.671000", "135011.671000", "135011.671000", "135011.671000", "135011.687000", "135011.687000", "135011.687000", "135011.687000", "135031.625000", "135031.625000", "135031.625000", "135031.625000", "135031.640000", "135031.640000", "135031.640000", "135031.640000", "135031.640000", "135031.640000", "135031.640000", "135031.656000", "135031.656000", "135031.656000", "135031.656000", "135031.656000", "135031.656000", "135031.656000", "135031.671000", "135031.671000", "135031.671000", "135031.671000", "135031.671000", "135031.671000", "135031.687000", "135031.687000", "135051.625000", "135051.625000", "135051.625000", "135051.625000", "135051.640000", "135051.640000", "135051.640000", "135051.640000", "135051.640000", "135051.640000", "135051.640000", "135051.656000", "135051.656000", "135051.656000", "135051.656000", "135051.656000", "135051.656000", "135051.671000", "135051.671000", "135051.671000", "135051.671000", "135051.671000", "135051.671000", "135051.671000", "135051.687000", "135111.625000", "135111.625000", "135111.625000", "135111.625000", "135111.640000", "135111.640000", "135111.640000", "135111.640000", "135111.640000", "135111.640000", "135111.640000", "135111.656000", "135111.656000", "135111.656000", "135111.656000", "135111.656000", "135111.656000", "135111.671000", "135111.671000", "135111.671000", "135111.671000", "135111.671000", "135111.671000", "135111.671000", "135111.687000", "135111.687000", "135131.625000", "135131.625000", "135131.625000", "135131.625000", "135131.640000", "135131.640000", "135131.640000", "135131.640000", "135131.640000", "135131.640000", "135131.640000", "135131.656000", "135131.656000", "135131.656000", "135131.656000", "135131.656000", "135131.656000", "135131.656000", "135131.671000", "135131.671000", "135131.671000", "135131.671000", "135131.671000", "135131.671000", "135131.687000", "135151.625000", "135151.625000", "135151.625000", "135151.625000", "135151.640000", "135151.640000", "135151.640000", "135151.640000", "135151.640000", "135151.640000", "135151.640000", "135151.656000", "135151.656000", "135151.656000", "135151.656000", "135151.656000", "135151.656000", "135151.671000", "135151.671000", "135151.671000", "135151.671000", "135151.671000", "135151.671000", "135151.671000", "135151.687000", "135151.687000", "135156.250000", "135156.250000", "135156.250000", "135156.250000", "135156.250000", "135156.250000"],
