{
  "AcquisitionMatrixPE": 104,
  "AcquisitionNumber": 1,
  "AcquisitionTime": "13:28:13.125000",
  "BandwidthPerPixelPhaseEncode": 13.935,
  "BaseResolution": 104,
  "CoilString": "C:HEA;HEP",
  "ConversionSoftware": "dcm2niix",
  "ConversionSoftwareVersion": "v1.0.20210317",
  "DerivedVendorReportedEchoSpacing": 0.000690017,
  "DeviceSerialNumber": "35450",
  "DwellTime": 2.5e-06,
  "EchoTime": 0.0348,
  "EffectiveEchoSpacing": 0.000690017,
  "FlipAngle": 55,
  "ImageComments": "Unaliased MB8/PE3 (remote)",
  "ImageOrientationPatientDICOM": [1, 0, 0, 0, 1, 0],
  "ImageType": [
    "ORIGINAL",
    "PRIMARY",
    "M",
    "MB",
    "ND",
    "MOSAIC"
],
  "ImagingFrequency": 123.234,
  "InPlanePhaseEncodingDirectionDICOM": "COL",
  "InstitutionAddress": "Univeristy Ave. 197,Newark,North East,US,07102-1814",
  "InstitutionName": "RUBIC",
  "InstitutionalDepartmentName": "Department",
  "MRAcquisitionType": "2D",
  "MagneticFieldStrength": 3,
  "Manufacturer": "Siemens",
  "ManufacturersModelName": "TrioTim",
  "Modality": "MR",
  "MultibandAccelerationFactor": 8,
  "PartialFourier": 0.875,
  "PatientPosition": "HFS",
  "PercentPhaseFOV": 100,
  "PercentSampling": 100,
  "PhaseEncodingDirection": "j-",
  "PhaseEncodingSteps": 91,
  "PhaseResolution": 1,
  "PixelBandwidth": 1923,
  "ProcedureStepDescription": "Cole^Michael",
  "ProtocolName": "cmrr_mbep2d_bold_2mm_MB8_Task_8x",
  "PulseSequenceDetails": "%CustomerSeq%\\cmrr_mbep2d_bold",
  "ReceiveCoilName": "32Ch_Head",
  "ReconMatrixPE": 104,
  "RepetitionTime": 0.785,
  "SAR": 0.158228,
  "ScanOptions": "PFP\\FS",
  "ScanningSequence": "EP",
  "SequenceName": "epfid2d1_104",
  "SequenceVariant": "SK\\SS",
  "SeriesDescription": "cmrr_mbep2d_bold_2mm_MB8_Task_8x",
  "SeriesNumber": 13,
  "ShimSetting": [2155, -377, -7304, 308, -123, 27, 175, 27],
  "SliceThickness": 2,
  "SliceTiming": [0, 0.4375, 0.0875, 0.525, 0.175, 0.6125, 0.2625, 0.7, 0.35, 0, 0.4375, 0.0875, 0.525, 0.175, 0.6125, 0.2625, 0.7, 0.35, 0, 0.4375, 0.0875, 0.525, 0.175, 0.6125, 0.2625, 0.7, 0.35, 0, 0.4375, 0.0875, 0.525, 0.175, 0.6125, 0.2625, 0.7, 0.35, 0, 0.4375, 0.0875, 0.525, 0.175, 0.6125, 0.2625, 0.7, 0.35, 0, 0.4375, 0.0875, 0.525, 0.175, 0.6125, 0.2625, 0.7, 0.35, 0, 0.4375, 0.0875, 0.525, 0.175, 0.6125, 0.2625, 0.7, 0.35, 0, 0.4375, 0.0875, 0.525, 0.175, 0.6125, 0.2625, 0.7, 0.35],
  "SoftwareVersions": "syngo MR B19",
  "SpacingBetweenSlices": 2,
  "StationName": "MRC35450",
  "TaskName": "cpro",
  "TotalReadoutTime": 0.0710717,
  "TxRefAmp": 393.292,
  "dcmmeta_affine": [
    [-2.0, 0.0, 0.0, 104.0],
    [0.0, 2.0, 0.0, -78.44551849365234],
    [0.0, 0.0, 2.0, -93.31477355957031],
    [0.0, 0.0, 0.0, 1.0]
],
  "dcmmeta_reorient_transform": [
    [0.0, -1.0, 0.0, 103.0],
    [1.0, 0.0, 0.0, 0.0],
    [0.0, 0.0, 1.0, 0.0],
    [0.0, 0.0, 0.0, 1.0]
],
  "dcmmeta_shape": [104, 104, 72, 581],
  "dcmmeta_slice_dim": 2,
  "dcmmeta_version": 0.6,
  "global": {
    "const": {
      "AcquisitionMatrix": [104, 0, 0, 104],
      "AngioFlag": "N",
      "BitsAllocated": 16,
      "BitsStored": 12,
      "Columns": 936,
      "EchoNumbers": 1,
      "EchoTime": 34.8,
      "EchoTrainLength": 1,
      "FlipAngle": 55.0,
      "HighBit": 11,
      "ImageOrientationPatient": [1.0, 0.0, 0.0, 0.0, 1.0, 0.0],
      "ImagePositionPatient": [-936.0, -959.554479599, -93.31477355957],
      "ImageType": [
        "ORIGINAL",
        "PRIMARY",
        "M",
        "MB",
        "ND",
        "MOSAIC"
],
      "ImagedNucleus": "1H",
      "ImagingFrequency": 123.23447,
      "InPlanePhaseEncodingDirection": "COL",
      "MRAcquisitionType": "2D",
      "MagneticFieldStrength": 3.0,
      "Manufacturer": "SIEMENS",
      "ManufacturerModelName": "TrioTim",
      "Modality": "MR",
      "NumberOfAverages": 1.0,
      "NumberOfPhaseEncodingSteps": 91,
      "PercentPhaseFieldOfView": 100.0,
      "PercentSampling": 100.0,
      "PerformedProcedureStepStartTime": "121510.312000",
      "PhotometricInterpretation": "MONOCHROME2",
      "PixelBandwidth": 1923.0,
      "PixelRepresentation": 0,
      "PixelSpacing": [2.0, 2.0],
      "ProtocolName": "cmrr_mbep2d_bold_2mm_MB8_Task_8x",
      "RepetitionTime": 785.0,
      "Rows": 936,
      "SAR": 0.15822802406751,
      "SamplesPerPixel": 1,
      "ScanOptions": [
        "PFP",
        "FS"
],
      "ScanningSequence": "EP",
      "SequenceName": "epfid2d1_104",
      "SequenceVariant": [
        "SK",
        "SS"
],
      "SeriesDescription": "cmrr_mbep2d_bold_2mm_MB8_Task_8x",
      "SeriesNumber": 13,
      "SeriesTime": "132828.984000",
      "SliceLocation": -93.31477355957,
      "SliceThickness": 2.0,
      "SmallestImagePixelValue": 0,
      "SoftwareVersions": "syngo MR B19",
      "SpacingBetweenSlices": 2.0000000537281,
      "SpecificCharacterSet": "ISO_IR 100",
      "StudyID": "1",
      "StudyTime": "121510.281000",
      "TransmitCoilName": "Body",
      "VariableFlipAngleFlag": "N",
      "WindowCenterWidthExplanation": "Algo1",
      "dBdt": 0.0},
    "slices": {}
  },
  "time": {
    "samples": {
      "AcquisitionNumber": [1, 2, 3, 4, 5, 6, 7, 8, 9, 10, 11, 12, 13, 14, 15, 16, 17, 18, 19, 20, 21, 22, 23, 24, 25, 26, 27, 28, 29, 30, 31, 32, 33, 34, 35, 36, 37, 38, 39, 40, 41, 42, 43, 44, 45, 46, 47, 48, 49, 50, 51, 52, 53, 54, 55, 56, 57, 58, 59, 60, 61, 62, 63, 64, 65, 66, 67, 68, 69, 70, 71, 72, 73, 74, 75, 76, 77, 78, 79, 80, 81, 82, 83, 84, 85, 86, 87, 88, 89, 90, 91, 92, 93, 94, 95, 96, 97, 98, 99, 100, 101, 102, 103, 104, 105, 106, 107, 108, 109, 110, 111, 112, 113, 114, 115, 116, 117, 118, 119, 120, 121, 122, 123, 124, 125, 126, 127, 128, 129, 130, 131, 132, 133, 134, 135, 136, 137, 138, 139, 140, 141, 142, 143, 144, 145, 146, 147, 148, 149, 150, 151, 152, 153, 154, 155, 156, 157, 158, 159, 160, 161, 162, 163, 164, 165, 166, 167, 168, 169, 170, 171, 172, 173, 174, 175, 176, 177, 178, 179, 180, 181, 182, 183, 184, 185, 186, 187, 188, 189, 190, 191, 192, 193, 194, 195, 196, 197, 198, 199, 200, 201, 202, 203, 204, 205, 206, 207, 208, 209, 210, 211, 212, 213, 214, 215, 216, 217, 218, 219, 220, 221, 222, 223, 224, 225, 226, 227, 228, 229, 230, 231, 232, 233, 234, 235, 236, 237, 238, 239, 240, 241, 242, 243, 244, 245, 246, 247, 248, 249, 250, 251, 252, 253, 254, 255, 256, 257, 258, 259, 260, 261, 262, 263, 264, 265, 266, 267, 268, 269, 270, 271, 272, 273, 274, 275, 276, 277, 278, 279, 280, 281, 282, 283, 284, 285, 286, 287, 288, 289, 290, 291, 292, 293, 294, 295, 296, 297, 298, 299, 300, 301, 302, 303, 304, 305, 306, 307, 308, 309, 310, 311, 312, 313, 314, 315, 316, 317, 318, 319, 320, 321, 322, 323, 324, 325, 326, 327, 328, 329, 330, 331, 332, 333, 334, 335, 336, 337, 338, 339, 340, 341, 342, 343, 344, 345, 346, 347, 348, 349, 350, 351, 352, 353, 354, 355, 356, 357, 358, 359, 360, 361, 362, 363, 364, 365, 366, 367, 368, 369, 370, 371, 372, 373, 374, 375, 376, 377, 378, 379, 380, 381, 382, 383, 384, 385, 386, 387, 388, 389, 390, 391, 392, 393, 394, 395, 396, 397, 398, 399, 400, 401, 402, 403, 404, 405, 406, 407, 408, 409, 410, 411, 412, 413, 414, 415, 416, 417, 418, 419, 420, 421, 422, 423, 424, 425, 426, 427, 428, 429, 430, 431, 432, 433, 434, 435, 436, 437, 438, 439, 440, 441, 442, 443, 444, 445, 446, 447, 448, 449, 450, 451, 452, 453, 454, 455, 456, 457, 458, 459, 460, 461, 462, 463, 464, 465, 466, 467, 468, 469, 470, 471, 472, 473, 474, 475, 476, 477, 478, 479, 480, 481, 482, 483, 484, 485, 486, 487, 488, 489, 490, 491, 492, 493, 494, 495, 496, 497, 498, 499, 500, 501, 502, 503, 504, 505, 506, 507, 508, 509, 510, 511, 512, 513, 514, 515, 516, 517, 518, 519, 520, 521, 522, 523, 524, 525, 526, 527, 528, 529, 530, 531, 532, 533, 534, 535, 536, 537, 538, 539, 540, 541, 542, 543, 544, 545, 546, 547, 548, 549, 550, 551, 552, 553, 554, 555, 556, 557, 558, 559, 560, 561, 562, 563, 564, 565, 566, 567, 568, 569, 570, 571, 572, 573, 574, 575, 576, 577, 578, 579, 580, 581],
      "AcquisitionTime": ["132813.125000", "132813.912500", "132814.700000", "132815.490000", "132816.277500", "132817.065000", "132817.852500", "132818.642500", "132819.430000", "132820.217500", "132821.005000", "132821.795000", "132822.582500", "132823.370000", "132824.157500", "132824.947500", "132825.735000", "132826.522500", "132827.312500", "132828.100000", "132828.887500", "132829.675000", "132830.465000", "132831.252500", "132832.040000", "132832.827500", "132833.617500", "132834.405000", "132835.192500", "132835.980000", "132836.770000", "132837.557500", "132838.345000", "132839.132500", "132839.922500", "132840.710000", "132841.497500", "132842.285000", "132843.075000", "132843.862500", "132844.650000", "132845.440000", "132846.227500", "132847.015000", "132847.802500", "132848.592500", "132849.380000", "132850.167500", "132850.955000", "132851.745000", "132852.532500", "132853.320000", "132854.107500", "132854.897500", "132855.685000", "132856.472500", "132857.260000", "132858.050000", "132858.837500", "132859.625000", "132900.412500", "132901.202500", "132901.990000", "132902.777500", "132903.567500", "132904.355000", "132905.142500", "132905.930000", "132906.720000", "132907.507500", "132908.295000", "132909.082500", "132909.872500", "132910.660000", "132911.447500", "132912.235000", "132913.025000", "132913.812500", "132914.600000", "132915.387500", "132916.177500", "132916.965000", "132917.752500", "132918.540000", "132919.330000", "132920.117500", "132920.905000", "132921.695000", "132922.482500", "132923.270000", "132924.057500", "132924.847500", "132925.635000", "132926.422500", "132927.210000", "132928.000000", "132928.787500", "132929.575000", "132930.362500", "132931.152500", "132931.940000", "132932.727500", "132933.515000", "132934.305000", "132935.092500", "132935.880000", "132936.667500", "132937.457500", "132938.245000", "132939.032500", "132939.822500", "132940.610000", "132941.397500", "132942.185000", "132942.975000", "132943.762500", "132944.550000", "132945.337500", "132946.127500", "132946.915000", "132947.702500", "132948.490000", "132949.280000", "132950.067500", "132950.855000", "132951.642500", "132952.432500", "132953.220000", "132954.007500", "132954.795000", "132955.585000", "132956.372500", "132957.160000", "132957.950000", "132958.737500", "132959.525000", "133000.312500", "133001.102500", "133001.890000", "133002.677500", "133003.465000", "133004.255000", "133005.042500", "133005.830000", "133006.617500", "133007.407500", "133008.195000", "133008.982500", "133009.770000", "133010.560000", "133011.347500", "133012.135000", "133012.925000", "133013.712500", "133014.500000", "133015.287500", "133016.077500", "133016.865000", "133017.652500", "133018.440000", "133019.230000", "133020.017500", "133020.805000", "133021.592500", "133022.382500", "133023.170000", "133023.957500", "133024.745000", "133025.535000", "133026.322500", "133027.110000", "133027.897500", "133028.687500", "133029.475000", "133030.262500", "133031.052500", "133031.840000", "133032.627500", "133033.415000", "133034.205000", "133034.992500", "133035.780000", "133036.567500", "133037.357500", "133038.145000", "133038.932500", "133039.720000", "133040.510000", "133041.297500", "133042.085000", "133042.872500", "133043.662500", "133044.450000", "133045.237500", "133046.025000", "133046.815000", "133047.602500", "133048.390000", "133049.180000", "133049.967500", "133050.755000", "133051.542500", "133052.332500", "133053.120000", "133053.907500", "133054.695000", "133055.485000", "133056.272500", "133057.060000", "133057.847500", "133058.637500", "133059.425000", "133100.212500", "133101.000000", "133101.790000", "133102.577500", "133103.365000", "133104.152500", "133104.942500", "133105.730000", "133106.517500", "133107.307500", "133108.095000", "133108.882500", "133109.670000", "133110.460000", "133111.247500", "133112.035000", "133112.822500", "133113.612500", "133114.400000", "133115.187500", "133115.975000", "133116.765000", "133117.552500", "133118.340000", "133119.127500", "133119.917500", "133120.705000", "133121.492500", "133122.280000", "133123.070000", "133123.857500", "133124.645000", "133125.435000", "133126.222500", "133127.010000", "133127.797500", "133128.587500", "133129.375000", "133130.162500", "133130.950000", "133131.740000", "133132.527500", "133133.315000", "133134.102500", "133134.892500", "133135.680000", "133136.467500", "133137.255000", "133138.045000", "133138.832500", "133139.620000", "133140.407500", "133141.197500", "133141.985000", "133142.772500", "133143.562500", "133144.350000", "133145.137500", "133145.925000", "133146.715000", "133147.502500", "133148.290000", "133149.077500", "133149.867500", "133150.655000", "133151.442500", "133152.230000", "133153.020000", "133153.807500", "133154.595000", "133155.382500", "133156.172500", "133156.960000", "133157.747500", "133158.535000", "133159.325000", "133200.112500", "133200.900000", "133201.690000", "133202.477500", "133203.265000", "133204.052500", "133204.842500", "133205.630000", "133206.417500", "133207.205000", "133207.995000", "133208.782500", "133209.570000", "133210.357500", "133211.147500", "133211.935000", "133212.722500", "133213.510000", "133214.300000", "133215.087500", "133215.875000", "133216.662500", "133217.452500", "133218.240000", "133219.027500", "133219.817500", "133220.605000", "133221.392500", "133222.180000", "133222.970000", "133223.757500", "133224.545000", "133225.332500", "133226.122500", "133226.910000", "133227.697500", "133228.485000", "133229.275000", "133230.062500", "133230.850000", "133231.637500", "133232.427500", "133233.215000", "133234.002500", "133234.790000", "133235.580000", "133236.367500", "133237.155000", "133237.945000", "133238.732500", "133239.520000", "133240.307500", "133241.097500", "133241.885000", "133242.672500", "133243.460000", "133244.250000", "133245.037500", "133245.825000", "133246.612500", "133247.402500", "133248.190000", "133248.977500", "133249.765000", "133250.555000", "133251.342500", "133252.130000", "133252.917500", "133253.707500", "133254.495000", "133255.282500", "133256.072500", "133256.860000", "133257.647500", "133258.435000", "133259.225000", "133300.012500", "133300.800000", "133301.587500", "133302.377500", "133303.165000", "133303.952500", "133304.740000", "133305.530000", "133306.317500", "133307.105000", "133307.892500", "133308.682500", "133309.470000", "133310.257500", "133311.045000", "133311.835000", "133312.622500", "133313.410000", "133314.200000", "133314.987500", "133315.775000", "133316.562500", "133317.352500", "133318.140000", "133318.927500", "133319.715000", "133320.505000", "133321.292500", "133322.080000", "133322.867500", "133323.657500", "133324.445000", "133325.232500", "133326.020000", "133326.810000", "133327.597500", "133328.385000", "133329.175000", "133329.962500", "133330.750000", "133331.537500", "133332.327500", "133333.115000", "133333.902500", "133334.690000", "133335.480000", "133336.267500", "133337.055000", "133337.842500", "133338.632500", "133339.420000", "133340.207500", "133340.995000", "133341.785000", "133342.572500", "133343.360000", "133344.147500", "133344.937500", "133345.725000", "133346.512500", "133347.302500", "133348.090000", "133348.877500", "133349.665000", "133350.455000", "133351.242500", "133352.030000", "133352.817500", "133353.607500", "133354.395000", "133355.182500", "133355.970000", "133356.760000", "133357.547500", "133358.335000", "133359.122500", "133359.912500", "133400.700000", "133401.487500", "133402.275000", "133403.065000", "133403.852500", "133404.640000", "133405.430000", "133406.217500", "133407.005000", "133407.792500", "133408.582500", "133409.370000", "133410.157500", "133410.945000", "133411.735000", "133412.522500", "133413.310000", "133414.097500", "133414.887500", "133415.675000", "133416.462500", "133417.250000", "133418.040000", "133418.827500", "133419.615000", "133420.402500", "133421.192500", "133421.980000", "133422.767500", "133423.557500", "133424.345000", "133425.132500", "133425.920000", "133426.710000", "133427.497500", "133428.285000", "133429.072500", "133429.862500", "133430.650000", "133431.437500", "133432.225000", "133433.015000", "133433.802500", "133434.590000", "133435.377500", "133436.167500", "133436.955000", "133437.742500", "133438.530000", "133439.320000", "133440.107500", "133440.895000", "133441.685000", "133442.472500", "133443.260000", "133444.047500", "133444.837500", "133445.625000", "133446.412500", "133447.200000", "133447.990000", "133448.777500", "133449.565000", "133450.352500", "133451.142500", "133451.930000", "133452.717500", "133453.505000", "133454.295000", "133455.082500", "133455.870000", "133456.657500", "133457.447500", "133458.235000", "133459.022500", "133459.812500", "133500.600000", "133501.387500", "133502.175000", "133502.965000", "133503.752500", "133504.540000", "133505.327500", "133506.117500", "133506.905000", "133507.692500", "133508.480000", "133509.270000", "133510.057500", "133510.845000", "133511.632500", "133512.422500", "133513.210000", "133513.997500", "133514.785000", "133515.575000", "133516.362500", "133517.150000", "133517.940000", "133518.727500", "133519.515000", "133520.302500", "133521.092500", "133521.880000", "133522.667500", "133523.455000", "133524.245000", "133525.032500", "133525.820000", "133526.607500", "133527.397500", "133528.185000", "133528.972500", "133529.760000", "133530.550000", "133531.337500", "133532.125000", "133532.912500", "133533.702500", "133534.490000", "133535.277500", "133536.067500", "133536.855000", "133537.642500", "133538.430000", "133539.220000", "133540.007500", "133540.795000", "133541.582500", "133542.372500", "133543.160000", "133543.947500", "133544.735000", "133545.525000", "133546.312500", "133547.100000", "133547.887500", "133548.677500", "133549.465000", "133550.252500"],
      "ContentTime": ["132828.984000", "132828.984000", "132828.984000", "132828.984000", "132828.984000", "132828.984000", "132829.000000", "132829.000000", "132829.000000", "132829.000000", "132829.000000", "132829.000000", "132829.000000", "132829.015000", "132829.015000", "132829.015000", "132829.015000", "132829.015000", "132848.953000", "132848.953000", "132848.953000", "132848.953000", "132848.968000", "132848.968000", "132848.968000", "132848.968000", "132848.968000", "132848.968000", "132848.984000", "132848.984000", "132848.984000", "132848.984000", "132848.984000", "132848.984000", "132848.984000", "132849.000000", "132849.000000", "132849.000000", "132849.000000", "132849.000000", "132849.000000", "132849.015000", "132849.015000", "132908.953000", "132908.953000", "132908.953000", "132908.953000", "132908.968000", "132908.968000", "132908.968000", "132908.968000", "132908.968000", "132908.968000", "132908.968000", "132908.984000", "132908.984000", "132908.984000", "132908.984000", "132908.984000", "132908.984000", "132909.000000", "132909.000000", "132909.000000", "132909.000000", "132909.000000", "132909.000000", "132909.000000", "132909.015000", "132909.015000", "132928.953000", "132928.953000", "132928.953000", "132928.953000", "132928.968000", "132928.968000", "132928.968000", "132928.968000", "132928.968000", "132928.968000", "132928.984000", "132928.984000", "132928.984000", "132928.984000", "132928.984000", "132928.984000", "132928.984000", "132929.000000", "132929.000000", "132929.000000", "132929.000000", "132929.000000", "132929.000000", "132929.000000", "132929.015000", "132948.953000", "132948.953000", "132948.953000", "132948.953000", "132948.968000", "132948.968000", "132948.968000", "132948.968000", "132948.968000", "132948.968000", "132948.968000", "132948.984000", "132948.984000", "132948.984000", "132948.984000", "132948.984000", "132948.984000", "132949.000000", "132949.000000", "132949.000000", "132949.000000", "132949.000000", "132949.000000", "132949.015000", "132949.015000", "132949.015000", "133008.953000", "133008.953000", "133008.953000", "133008.953000", "133008.968000", "133008.968000", "133008.968000", "133008.968000", "133008.968000", "133008.968000", "133008.968000", "133008.984000", "133008.984000", "133008.984000", "133008.984000", "133008.984000", "133008.984000", "133009.000000", "133009.000000", "133009.000000", "133009.000000", "133009.000000", "133009.000000", "133009.000000", "133009.015000", "133028.953000", "133028.953000", "133028.953000", "133028.953000", "133028.968000", "133028.968000", "133028.968000", "133028.968000", "133028.968000", "133028.984000", "133028.984000", "133028.984000", "133028.984000", "133028.984000", "133029.000000", "133029.000000", "133029.000000", "133029.000000", "133029.000000", "133029.000000", "133029.000000", "133029.015000", "133029.015000", "133029.015000", "133029.015000", "133048.953000", "133048.953000", "133048.953000", "133048.953000", "133048.968000", "133048.968000", "133048.968000", "133048.968000", "133048.968000", "133048.968000", "133048.968000", "133048.984000", "133048.984000", "133048.984000", "133048.984000", "133048.984000", "133048.984000", "133049.000000", "133049.000000", "133049.000000", "133049.000000", "133049.000000", "133049.000000", "133049.000000", "133049.015000", "133049.015000", "133108.953000", "133108.953000", "133108.953000", "133108.953000", "133108.968000", "133108.968000", "133108.968000", "133108.968000", "133108.968000", "133108.968000", "133108.984000", "133108.984000", "133108.984000", "133108.984000", "133108.984000", "133109.000000", "133109.000000", "133109.000000", "133109.000000", "133109.015000", "133109.015000", "133109.015000", "133109.015000", "133109.031000", "133109.031000", "133128.953000", "133128.953000", "133128.953000", "133128.953000", "133128.968000", "133128.968000", "133128.968000", "133128.968000", "133128.968000", "133128.968000", "133128.968000", "133128.984000", "133128.984000", "133128.984000", "133128.984000", "133128.984000", "133128.984000", "133128.984000", "133129.000000", "133129.000000", "133129.000000", "133129.000000", "133129.000000", "133129.000000", "133129.015000", "133129.015000", "133148.953000", "133148.953000", "133148.953000", "133148.953000", "133148.968000", "133148.968000", "133148.968000", "133148.968000", "133148.968000", "133148.968000", "133148.984000", "133148.984000", "133148.984000", "133148.984000", "133148.984000", "133148.984000", "133148.984000", "133149.000000", "133149.000000", "133149.000000", "133149.000000", "133149.000000", "133149.015000", "133149.015000", "133149.015000", "133208.953000", "133208.953000", "133208.953000", "133208.953000", "133208.968000", "133208.968000", "133208.968000", "133208.968000", "133208.968000", "133208.984000", "133208.984000", "133208.984000", "133208.984000", "133208.984000", "133208.984000", "133209.000000", "133209.000000", "133209.000000", "133209.000000", "133209.000000", "133209.000000", "133209.000000", "133209.015000", "133209.015000", "133209.015000", "133209.015000", "133228.953000", "133228.953000", "133228.953000", "133228.953000", "133228.968000", "133228.968000", "133228.968000", "133228.968000", "133228.968000", "133228.968000", "133228.968000", "133228.984000", "133228.984000", "133228.984000", "133228.984000", "133228.984000", "133228.984000", "133228.984000", "133229.000000", "133229.000000", "133229.000000", "133229.000000", "133229.000000", "133229.000000", "133229.015000", "133248.953000", "133248.953000", "133248.953000", "133248.953000", "133248.968000", "133248.968000", "133248.968000", "133248.968000", "133248.968000", "133248.968000", "133248.968000", "133248.984000", "133248.984000", "133248.984000", "133248.984000", "133248.984000", "133249.000000", "133249.000000", "133249.000000", "133249.000000", "133249.000000", "133249.000000", "133249.000000", "133249.015000", "133249.015000", "133249.015000", "133308.953000", "133308.953000", "133308.953000", "133308.953000", "133308.968000", "133308.968000", "133308.968000", "133308.968000", "133308.968000", "133308.968000", "133308.984000", "133308.984000", "133308.984000", "133308.984000", "133308.984000", "133308.984000", "133308.984000", "133309.000000", "133309.000000", "133309.000000", "133309.000000", "133309.000000", "133309.000000", "133309.000000", "133309.015000", "133328.953000", "133328.953000", "133328.953000", "133328.953000", "133328.968000", "133328.968000", "133328.968000", "133328.968000", "133328.968000", "133328.968000", "133328.968000", "133328.984000", "133328.984000", "133328.984000", "133328.984000", "133328.984000", "133328.984000", "133328.984000", "133329.000000", "133329.000000", "133329.000000", "133329.015000", "133329.015000", "133329.015000", "133329.015000", "133329.015000", "133348.953000", "133348.953000", "133348.953000", "133348.953000", "133348.968000", "133348.968000", "133348.968000", "133348.968000", "133348.968000", "133348.984000", "133348.984000", "133348.984000", "133348.984000", "133348.984000", "133348.984000", "133348.984000", "133349.000000", "133349.000000", "133349.000000", "133349.000000", "133349.000000", "133349.000000", "133349.000000", "133349.015000", "133349.015000", "133408.953000", "133408.953000", "133408.953000", "133408.953000", "133408.968000", "133408.968000", "133408.968000", "133408.968000", "133408.968000", "133408.968000", "133408.968000", "133408.984000", "133408.984000", "133408.984000", "133408.984000", "133408.984000", "133408.984000", "133408.984000", "133409.000000", "133409.000000", "133409.000000", "133409.000000", "133409.000000", "133409.000000", "133409.015000", "133409.015000", "133428.953000", "133428.953000", "133428.953000", "133428.953000", "133428.968000", "133428.968000", "133428.968000", "133428.968000", "133428.968000", "133428.968000", "133428.984000", "133428.984000", "133428.984000", "133428.984000", "133428.984000", "133428.984000", "133428.984000", "133429.000000", "133429.000000", "133429.000000", "133429.000000", "133429.000000", "133429.000000", "133429.015000", "133429.015000", "133448.953000", "133448.953000", "133448.953000", "133448.953000", "133448.968000", "133448.968000", "133448.968000", "133448.968000", "133448.968000", "133448.968000", "133448.968000", "133448.984000", "133448.984000", "133448.984000", "133448.984000", "133448.984000", "133448.984000", "133448.984000", "133449.000000", "133449.000000", "133449.000000", "133449.000000", "133449.000000", "133449.000000", "133449.015000", "133449.015000", "133508.953000", "133508.953000", "133508.953000", "133508.953000", "133508.968000", "133508.968000", "133508.968000", "133508.968000", "133508.984000", "133508.984000", "133508.984000", "133508.984000", "133508.984000", "133508.984000", "133508.984000", "133509.000000", "133509.000000", "133509.000000", "133509.000000", "133509.000000", "133509.000000", "133509.000000", "133509.015000", "133509.015000", "133509.015000", "133528.953000", "133528.953000", "133528.953000", "133528.953000", "133528.968000", "133528.968000", "133528.968000", "133528.968000", "133528.968000", "133528.968000", "133528.984000", "133528.984000", "133528.984000", "133528.984000", "133528.984000", "133528.984000", "133528.984000", "133529.000000", "133529.000000", "133529.000000", "133529.000000", "133529.000000", "133529.015000", "133529.015000", "133529.015000", "133529.015000", "133548.953000", "133548.953000", "133548.953000", "133548.953000", "133548.968000", "133548.968000", "133548.968000", "133548.968000", "133548.968000", "133548.968000", "133548.984000", "133548.984000", "133548.984000", "133548.984000", "133548.984000", "133548.984000", "133548.984000", "133549.000000", "133549.000000", "133549.000000", "133549.000000", "133549.000000", "133549.000000", "133549.000000", "133549.015000", "133550.890000", "133550.890000", "133550.890000"],
