{
  "AcquisitionMatrixPE": 104,
  "AcquisitionNumber": 1,
  "AcquisitionTime": "17:38:38.725000",
  "BandwidthPerPixelPhaseEncode": 13.935,
  "BaseResolution": 104,
  "CoilString": "C:HEA;HEP",
  "ConversionSoftware": "dcm2niix",
  "ConversionSoftwareVersion": "v1.0.20210317",
  "DerivedVendorReportedEchoSpacing": 0.000690017,
  "DeviceSerialNumber": "35450",
  "DwellTime": 2.5e-06,
  "EchoTime": 0.0348,
  "EffectiveEchoSpacing": 0.000690017,
  "FlipAngle": 55,
  "ImageComments": "Unaliased MB8/PE3 (remote)",
  "ImageOrientationPatientDICOM": [0.999986, 0.000501827, 0.00521186, 1.72622e-08, 0.995396, -0.0958458],
  "ImageType": [
    "ORIGINAL",
    "PRIMARY",
    "M",
    "MB",
    "ND",
    "MOSAIC"
],
  "ImagingFrequency": 123.234,
  "InPlanePhaseEncodingDirectionDICOM": "COL",
  "InstitutionAddress": "Univeristy Ave. 197,Newark,North East,US,07102-1814",
  "InstitutionName": "RUBIC",
  "InstitutionalDepartmentName": "Department",
  "MRAcquisitionType": "2D",
  "MagneticFieldStrength": 3,
  "Manufacturer": "Siemens",
  "ManufacturersModelName": "TrioTim",
  "Modality": "MR",
  "MultibandAccelerationFactor": 8,
  "PartialFourier": 0.875,
  "PatientPosition": "HFS",
  "PercentPhaseFOV": 100,
  "PercentSampling": 100,
  "PhaseEncodingDirection": "j-",
  "PhaseEncodingSteps": 91,
  "PhaseResolution": 1,
  "PixelBandwidth": 1923,
  "ProcedureStepDescription": "Cole^Michael",
  "ProtocolName": "cmrr_mbep2d_bold_2mm_MB8_Task_8x",
  "PulseSequenceDetails": "%CustomerSeq%\\cmrr_mbep2d_bold",
  "ReceiveCoilName": "32Ch_Head",
  "ReconMatrixPE": 104,
  "RepetitionTime": 0.785,
  "SAR": 0.114845,
  "ScanOptions": "PFP\\FS",
  "ScanningSequence": "EP",
  "SequenceName": "epfid2d1_104",
  "SequenceVariant": "SK\\SS",
  "SeriesDescription": "cmrr_mbep2d_bold_2mm_MB8_Task_8x",
  "SeriesNumber": 27,
  "ShimSetting": [2106, -357, -7304, 404, 24, -464, 92, 61],
  "SliceThickness": 2,
  "SliceTiming": [0, 0.4375, 0.0875, 0.525, 0.175, 0.6125, 0.2625, 0.7, 0.35, 0, 0.4375, 0.0875, 0.525, 0.175, 0.6125, 0.2625, 0.7, 0.35, 0, 0.4375, 0.0875, 0.525, 0.175, 0.6125, 0.2625, 0.7, 0.35, 0, 0.4375, 0.0875, 0.525, 0.175, 0.6125, 0.2625, 0.7, 0.35, 0, 0.4375, 0.0875, 0.525, 0.175, 0.6125, 0.2625, 0.7, 0.35, 0, 0.4375, 0.0875, 0.525, 0.175, 0.6125, 0.2625, 0.7, 0.35, 0, 0.4375, 0.0875, 0.525, 0.175, 0.6125, 0.2625, 0.7, 0.35, 0, 0.4375, 0.0875, 0.525, 0.175, 0.6125, 0.2625, 0.7, 0.35],
  "SoftwareVersions": "syngo MR B19",
  "SpacingBetweenSlices": 2,
  "StationName": "MRC35450",
  "TaskName": "cpro",
  "TotalReadoutTime": 0.0710717,
  "TxRefAmp": 319.053,
  "dcmmeta_affine": [
    [-1.9999725818634033, 3.4524390457590926e-08, 0.010471921414136887, 102.9488525390625],
    [-0.001003654790110886, 1.9907923936843872, -0.1916888803243637, -82.06574249267578],
    [0.01042371429502964, 0.19169150292873383, 1.99076509475708, -93.67761993408203],
    [0.0, 0.0, 0.0, 1.0]
],
  "dcmmeta_reorient_transform": [
    [0.0, -1.0, 0.0, 103.0],
    [1.0, 0.0, 0.0, 0.0],
    [0.0, 0.0, 1.0, 0.0],
    [0.0, 0.0, 0.0, 1.0]
],
  "dcmmeta_shape": [104, 104, 72, 581],
  "dcmmeta_slice_dim": 2,
  "dcmmeta_version": 0.6,
  "global": {
    "const": {
      "AcquisitionMatrix": [104, 0, 0, 104],
      "AngioFlag": "N",
      "BitsAllocated": 16,
      "BitsStored": 12,
      "Columns": 936,
      "EchoNumbers": 1,
      "EchoTime": 34.8,
      "EchoTrainLength": 1,
      "FlipAngle": 55.0,
      "HighBit": 11,
      "ImageOrientationPatient": [0.99998629226404, 0.00050182740353, 0.00521185698867, 1.7262196e-08, 0.9953961984302, -0.0958457518657],
      "ImagePositionPatient": [-934.93746614449, -951.5730353957, 1.4740040106946],
      "ImageType": [
        "ORIGINAL",
        "PRIMARY",
        "M",
        "MB",
        "ND",
        "MOSAIC"
],
      "ImagedNucleus": "1H",
      "ImagingFrequency": 123.234411,
      "InPlanePhaseEncodingDirection": "COL",
      "MRAcquisitionType": "2D",
      "MagneticFieldStrength": 3.0,
      "Manufacturer": "SIEMENS",
      "ManufacturerModelName": "TrioTim",
      "Modality": "MR",
      "NumberOfAverages": 1.0,
      "NumberOfPhaseEncodingSteps": 91,
      "PercentPhaseFieldOfView": 100.0,
      "PercentSampling": 100.0,
      "PerformedProcedureStepStartTime": "153153.734000",
      "PhotometricInterpretation": "MONOCHROME2",
      "PixelBandwidth": 1923.0,
      "PixelRepresentation": 0,
      "PixelSpacing": [2.0, 2.0],
      "ProtocolName": "cmrr_mbep2d_bold_2mm_MB8_Task_8x",
      "RepetitionTime": 785.0,
      "Rows": 936,
      "SAR": 0.11484491269478,
      "SamplesPerPixel": 1,
      "ScanOptions": [
        "PFP",
        "FS"
],
      "ScanningSequence": "EP",
      "SequenceName": "epfid2d1_104",
      "SequenceVariant": [
        "SK",
        "SS"
],
      "SeriesDescription": "cmrr_mbep2d_bold_2mm_MB8_Task_8x",
      "SeriesNumber": 27,
      "SeriesTime": "173900.546000",
      "SliceLocation": -84.840489247761,
      "SliceThickness": 2.0,
      "SmallestImagePixelValue": 0,
      "SoftwareVersions": "syngo MR B19",
      "SpacingBetweenSlices": 1.9999999949627,
      "SpecificCharacterSet": "ISO_IR 100",
      "StudyID": "1",
      "StudyTime": "153153.687000",
      "TransmitCoilName": "Body",
      "VariableFlipAngleFlag": "N",
      "WindowCenterWidthExplanation": "Algo1",
      "dBdt": 0.0},
    "slices": {}
  },
  "time": {
    "samples": {
      "AcquisitionNumber": [1, 2, 3, 4, 5, 6, 7, 8, 9, 10, 11, 12, 13, 14, 15, 16, 17, 18, 19, 20, 21, 22, 23, 24, 25, 26, 27, 28, 29, 30, 31, 32, 33, 34, 35, 36, 37, 38, 39, 40, 41, 42, 43, 44, 45, 46, 47, 48, 49, 50, 51, 52, 53, 54, 55, 56, 57, 58, 59, 60, 61, 62, 63, 64, 65, 66, 67, 68, 69, 70, 71, 72, 73, 74, 75, 76, 77, 78, 79, 80, 81, 82, 83, 84, 85, 86, 87, 88, 89, 90, 91, 92, 93, 94, 95, 96, 97, 98, 99, 100, 101, 102, 103, 104, 105, 106, 107, 108, 109, 110, 111, 112, 113, 114, 115, 116, 117, 118, 119, 120, 121, 122, 123, 124, 125, 126, 127, 128, 129, 130, 131, 132, 133, 134, 135, 136, 137, 138, 139, 140, 141, 142, 143, 144, 145, 146, 147, 148, 149, 150, 151, 152, 153, 154, 155, 156, 157, 158, 159, 160, 161, 162, 163, 164, 165, 166, 167, 168, 169, 170, 171, 172, 173, 174, 175, 176, 177, 178, 179, 180, 181, 182, 183, 184, 185, 186, 187, 188, 189, 190, 191, 192, 193, 194, 195, 196, 197, 198, 199, 200, 201, 202, 203, 204, 205, 206, 207, 208, 209, 210, 211, 212, 213, 214, 215, 216, 217, 218, 219, 220, 221, 222, 223, 224, 225, 226, 227, 228, 229, 230, 231, 232, 233, 234, 235, 236, 237, 238, 239, 240, 241, 242, 243, 244, 245, 246, 247, 248, 249, 250, 251, 252, 253, 254, 255, 256, 257, 258, 259, 260, 261, 262, 263, 264, 265, 266, 267, 268, 269, 270, 271, 272, 273, 274, 275, 276, 277, 278, 279, 280, 281, 282, 283, 284, 285, 286, 287, 288, 289, 290, 291, 292, 293, 294, 295, 296, 297, 298, 299, 300, 301, 302, 303, 304, 305, 306, 307, 308, 309, 310, 311, 312, 313, 314, 315, 316, 317, 318, 319, 320, 321, 322, 323, 324, 325, 326, 327, 328, 329, 330, 331, 332, 333, 334, 335, 336, 337, 338, 339, 340, 341, 342, 343, 344, 345, 346, 347, 348, 349, 350, 351, 352, 353, 354, 355, 356, 357, 358, 359, 360, 361, 362, 363, 364, 365, 366, 367, 368, 369, 370, 371, 372, 373, 374, 375, 376, 377, 378, 379, 380, 381, 382, 383, 384, 385, 386, 387, 388, 389, 390, 391, 392, 393, 394, 395, 396, 397, 398, 399, 400, 401, 402, 403, 404, 405, 406, 407, 408, 409, 410, 411, 412, 413, 414, 415, 416, 417, 418, 419, 420, 421, 422, 423, 424, 425, 426, 427, 428, 429, 430, 431, 432, 433, 434, 435, 436, 437, 438, 439, 440, 441, 442, 443, 444, 445, 446, 447, 448, 449, 450, 451, 452, 453, 454, 455, 456, 457, 458, 459, 460, 461, 462, 463, 464, 465, 466, 467, 468, 469, 470, 471, 472, 473, 474, 475, 476, 477, 478, 479, 480, 481, 482, 483, 484, 485, 486, 487, 488, 489, 490, 491, 492, 493, 494, 495, 496, 497, 498, 499, 500, 501, 502, 503, 504, 505, 506, 507, 508, 509, 510, 511, 512, 513, 514, 515, 516, 517, 518, 519, 520, 521, 522, 523, 524, 525, 526, 527, 528, 529, 530, 531, 532, 533, 534, 535, 536, 537, 538, 539, 540, 541, 542, 543, 544, 545, 546, 547, 548, 549, 550, 551, 552, 553, 554, 555, 556, 557, 558, 559, 560, 561, 562, 563, 564, 565, 566, 567, 568, 569, 570, 571, 572, 573, 574, 575, 576, 577, 578, 579, 580, 581],
      "AcquisitionTime": ["173838.725000", "173839.512500", "173840.300000", "173841.087500", "173841.877500", "173842.665000", "173843.452500", "173844.240000", "173845.030000", "173845.817500", "173846.605000", "173847.392500", "173848.182500", "173848.970000", "173849.757500", "173850.545000", "173851.335000", "173852.122500", "173852.910000", "173853.697500", "173854.487500", "173855.275000", "173856.062500", "173856.852500", "173857.640000", "173858.427500", "173859.215000", "173900.005000", "173900.792500", "173901.580000", "173902.367500", "173903.157500", "173903.945000", "173904.732500", "173905.520000", "173906.310000", "173907.097500", "173907.885000", "173908.672500", "173909.462500", "173910.250000", "173911.037500", "173911.825000", "173912.615000", "173913.402500", "173914.190000", "173914.980000", "173915.767500", "173916.555000", "173917.342500", "173918.132500", "173918.920000", "173919.707500", "173920.495000", "173921.285000", "173922.072500", "173922.860000", "173923.647500", "173924.437500", "173925.225000", "173926.012500", "173926.800000", "173927.590000", "173928.377500", "173929.165000", "173929.952500", "173930.742500", "173931.530000", "173932.317500", "173933.107500", "173933.895000", "173934.682500", "173935.470000", "173936.260000", "173937.047500", "173937.835000", "173938.622500", "173939.412500", "173940.200000", "173940.987500", "173941.775000", "173942.565000", "173943.352500", "173944.140000", "173944.927500", "173945.717500", "173946.505000", "173947.292500", "173948.082500", "173948.870000", "173949.657500", "173950.445000", "173951.235000", "173952.022500", "173952.810000", "173953.597500", "173954.387500", "173955.175000", "173955.962500", "173956.750000", "173957.540000", "173958.327500", "173959.115000", "173959.902500", "174000.692500", "174001.480000", "174002.267500", "174003.055000", "174003.845000", "174004.632500", "174005.420000", "174006.210000", "174006.997500", "174007.785000", "174008.572500", "174009.362500", "174010.150000", "174010.937500", "174011.725000", "174012.515000", "174013.302500", "174014.090000", "174014.877500", "174015.667500", "174016.455000", "174017.242500", "174018.030000", "174018.820000", "174019.607500", "174020.395000", "174021.182500", "174021.972500", "174022.760000", "174023.547500", "174024.337500", "174025.125000", "174025.912500", "174026.700000", "174027.490000", "174028.277500", "174029.065000", "174029.852500", "174030.642500", "174031.430000", "174032.217500", "174033.005000", "174033.795000", "174034.582500", "174035.370000", "174036.157500", "174036.947500", "174037.735000", "174038.522500", "174039.310000", "174040.100000", "174040.887500", "174041.675000", "174042.465000", "174043.252500", "174044.040000", "174044.827500", "174045.617500", "174046.405000", "174047.192500", "174047.980000", "174048.770000", "174049.557500", "174050.345000", "174051.132500", "174051.922500", "174052.710000", "174053.497500", "174054.285000", "174055.075000", "174055.862500", "174056.650000", "174057.437500", "174058.227500", "174059.015000", "174059.802500", "174100.592500", "174101.380000", "174102.167500", "174102.955000", "174103.745000", "174104.532500", "174105.320000", "174106.107500", "174106.897500", "174107.685000", "174108.472500", "174109.260000", "174110.050000", "174110.837500", "174111.625000", "174112.412500", "174113.202500", "174113.990000", "174114.777500", "174115.565000", "174116.355000", "174117.142500", "174117.930000", "174118.720000", "174119.507500", "174120.295000", "174121.082500", "174121.872500", "174122.660000", "174123.447500", "174124.235000", "174125.025000", "174125.812500", "174126.600000", "174127.387500", "174128.177500", "174128.965000", "174129.752500", "174130.540000", "174131.330000", "174132.117500", "174132.905000", "174133.692500", "174134.482500", "174135.270000", "174136.057500", "174136.847500", "174137.635000", "174138.422500", "174139.210000", "174140.000000", "174140.787500", "174141.575000", "174142.362500", "174143.152500", "174143.940000", "174144.727500", "174145.515000", "174146.305000", "174147.092500", "174147.880000", "174148.667500", "174149.457500", "174150.245000", "174151.032500", "174151.820000", "174152.610000", "174153.397500", "174154.185000", "174154.975000", "174155.762500", "174156.550000", "174157.337500", "174158.127500", "174158.915000", "174159.702500", "174200.490000", "174201.280000", "174202.067500", "174202.855000", "174203.642500", "174204.432500", "174205.220000", "174206.007500", "174206.795000", "174207.585000", "174208.372500", "174209.160000", "174209.947500", "174210.737500", "174211.525000", "174212.312500", "174213.102500", "174213.890000", "174214.677500", "174215.465000", "174216.255000", "174217.042500", "174217.830000", "174218.617500", "174219.407500", "174220.195000", "174220.982500", "174221.770000", "174222.560000", "174223.347500", "174224.135000", "174224.922500", "174225.712500", "174226.500000", "174227.287500", "174228.075000", "174228.865000", "174229.652500", "174230.440000", "174231.230000", "174232.017500", "174232.805000", "174233.592500", "174234.382500", "174235.170000", "174235.957500", "174236.745000", "174237.535000", "174238.322500", "174239.110000", "174239.897500", "174240.687500", "174241.475000", "174242.262500", "174243.050000", "174243.840000", "174244.627500", "174245.415000", "174246.202500", "174246.992500", "174247.780000", "174248.567500", "174249.357500", "174250.145000", "174250.932500", "174251.720000", "174252.510000", "174253.297500", "174254.085000", "174254.872500", "174255.662500", "174256.450000", "174257.237500", "174258.025000", "174258.815000", "174259.602500", "174300.390000", "174301.177500", "174301.967500", "174302.755000", "174303.542500", "174304.332500", "174305.120000", "174305.907500", "174306.695000", "174307.485000", "174308.272500", "174309.060000", "174309.847500", "174310.637500", "174311.425000", "174312.212500", "174313.000000", "174313.790000", "174314.577500", "174315.365000", "174316.152500", "174316.942500", "174317.730000", "174318.517500", "174319.305000", "174320.095000", "174320.882500", "174321.670000", "174322.460000", "174323.247500", "174324.035000", "174324.822500", "174325.612500", "174326.400000", "174327.187500", "174327.975000", "174328.765000", "174329.552500", "174330.340000", "174331.127500", "174331.917500", "174332.705000", "174333.492500", "174334.280000", "174335.070000", "174335.857500", "174336.645000", "174337.432500", "174338.222500", "174339.010000", "174339.797500", "174340.587500", "174341.375000", "174342.162500", "174342.950000", "174343.740000", "174344.527500", "174345.315000", "174346.102500", "174346.892500", "174347.680000", "174348.467500", "174349.255000", "174350.045000", "174350.832500", "174351.620000", "174352.407500", "174353.197500", "174353.985000", "174354.772500", "174355.560000", "174356.350000", "174357.137500", "174357.925000", "174358.715000", "174359.502500", "174400.290000", "174401.077500", "174401.867500", "174402.655000", "174403.442500", "174404.230000", "174405.020000", "174405.807500", "174406.595000", "174407.382500", "174408.172500", "174408.960000", "174409.747500", "174410.535000", "174411.325000", "174412.112500", "174412.900000", "174413.687500", "174414.477500", "174415.265000", "174416.052500", "174416.842500", "174417.630000", "174418.417500", "174419.205000", "174419.995000", "174420.782500", "174421.570000", "174422.357500", "174423.147500", "174423.935000", "174424.722500", "174425.510000", "174426.300000", "174427.087500", "174427.875000", "174428.662500", "174429.452500", "174430.240000", "174431.027500", "174431.815000", "174432.605000", "174433.392500", "174434.180000", "174434.970000", "174435.757500", "174436.545000", "174437.332500", "174438.122500", "174438.910000", "174439.697500", "174440.485000", "174441.275000", "174442.062500", "174442.850000", "174443.637500", "174444.427500", "174445.215000", "174446.002500", "174446.790000", "174447.580000", "174448.367500", "174449.155000", "174449.942500", "174450.732500", "174451.520000", "174452.307500", "174453.097500", "174453.885000", "174454.672500", "174455.460000", "174456.250000", "174457.037500", "174457.825000", "174458.612500", "174459.402500", "174500.190000", "174500.977500", "174501.765000", "174502.555000", "174503.342500", "174504.130000", "174504.917500", "174505.707500", "174506.495000", "174507.282500", "174508.070000", "174508.860000", "174509.647500", "174510.435000", "174511.225000", "174512.012500", "174512.800000", "174513.587500", "174514.377500", "174515.165000", "174515.952500", "174516.740000", "174517.530000", "174518.317500", "174519.105000", "174519.892500", "174520.682500", "174521.470000", "174522.257500", "174523.045000", "174523.835000", "174524.622500", "174525.410000", "174526.197500", "174526.987500", "174527.775000", "174528.562500", "174529.352500", "174530.140000", "174530.927500", "174531.715000", "174532.505000", "174533.292500", "174534.080000", "174534.867500", "174535.657500", "174536.445000", "174537.232500", "174538.020000", "174538.810000", "174539.597500", "174540.385000", "174541.172500", "174541.962500", "174542.750000", "174543.537500", "174544.325000", "174545.115000", "174545.902500", "174546.690000", "174547.480000", "174548.267500", "174549.055000", "174549.842500", "174550.632500", "174551.420000", "174552.207500", "174552.995000", "174553.785000", "174554.572500", "174555.360000", "174556.147500", "174556.937500", "174557.725000", "174558.512500", "174559.300000", "174600.090000", "174600.877500", "174601.665000", "174602.452500", "174603.242500", "174604.030000", "174604.817500", "174605.607500", "174606.395000", "174607.182500", "174607.970000", "174608.760000", "174609.547500", "174610.335000", "174611.122500", "174611.912500", "174612.700000", "174613.487500", "174614.275000", "174615.065000", "174615.852500"],
      "ContentTime": ["173900.546000", "173900.546000", "173900.562000", "173900.562000", "173900.562000", "173900.562000", "173900.562000", "173900.562000", "173900.562000", "173900.578000", "173900.578000", "173900.578000", "173900.578000", "173900.578000", "173900.578000", "173900.578000", "173900.593000", "173900.593000", "173900.593000", "173900.593000", "173900.593000", "173900.593000", "173900.609000", "173900.609000", "173920.515000", "173920.515000", "173920.515000", "173920.531000", "173920.531000", "173920.531000", "173920.531000", "173920.531000", "173920.531000", "173920.546000", "173920.546000", "173920.546000", "173920.546000", "173920.546000", "173920.546000", "173920.546000", "173920.562000", "173920.562000", "173920.562000", "173920.562000", "173920.562000", "173920.562000", "173920.562000", "173920.578000", "173920.578000", "173940.515000", "173940.515000", "173940.515000", "173940.531000", "173940.531000", "173940.531000", "173940.531000", "173940.546000", "173940.546000", "173940.546000", "173940.546000", "173940.546000", "173940.562000", "173940.562000", "173940.562000", "173940.562000", "173940.562000", "173940.562000", "173940.562000", "173940.578000", "173940.578000", "173940.578000", "173940.578000", "173940.578000", "173940.578000", "173940.593000", "174000.515000", "174000.515000", "174000.515000", "174000.531000", "174000.531000", "174000.531000", "174000.531000", "174000.531000", "174000.531000", "174000.531000", "174000.546000", "174000.546000", "174000.546000", "174000.546000", "174000.546000", "174000.546000", "174000.562000", "174000.562000", "174000.562000", "174000.562000", "174000.562000", "174000.562000", "174000.562000", "174000.578000", "174000.578000", "174020.515000", "174020.515000", "174020.515000", "174020.531000", "174020.531000", "174020.531000", "174020.531000", "174020.531000", "174020.531000", "174020.546000", "174020.546000", "174020.546000", "174020.546000", "174020.546000", "174020.546000", "174020.546000", "174020.562000", "174020.562000", "174020.562000", "174020.562000", "174020.562000", "174020.562000", "174020.562000", "174020.578000", "174020.578000", "174040.515000", "174040.515000", "174040.515000", "174040.531000", "174040.531000", "174040.531000", "174040.531000", "174040.531000", "174040.531000", "174040.546000", "174040.546000", "174040.546000", "174040.546000", "174040.546000", "174040.562000", "174040.562000", "174040.562000", "174040.562000", "174040.562000", "174040.562000", "174040.562000", "174040.578000", "174040.578000", "174040.578000", "174040.578000", "174040.578000", "174100.515000", "174100.515000", "174100.531000", "174100.531000", "174100.531000", "174100.531000", "174100.546000", "174100.546000", "174100.546000", "174100.546000", "174100.546000", "174100.546000", "174100.546000", "174100.562000", "174100.562000", "174100.562000", "174100.562000", "174100.562000", "174100.562000", "174100.578000", "174100.578000", "174100.578000", "174100.578000", "174100.578000", "174100.578000", "174120.515000", "174120.515000", "174120.515000", "174120.531000", "174120.531000", "174120.531000", "174120.531000", "174120.531000", "174120.531000", "174120.531000", "174120.546000", "174120.546000", "174120.546000", "174120.546000", "174120.546000", "174120.546000", "174120.546000", "174120.562000", "174120.562000", "174120.562000", "174120.562000", "174120.562000", "174120.562000", "174120.578000", "174120.578000", "174120.578000", "174140.515000", "174140.515000", "174140.515000", "174140.531000", "174140.531000", "174140.531000", "174140.531000", "174140.531000", "174140.531000", "174140.546000", "174140.546000", "174140.546000", "174140.546000", "174140.546000", "174140.546000", "174140.546000", "174140.562000", "174140.562000", "174140.562000", "174140.562000", "174140.562000", "174140.562000", "174140.578000", "174140.578000", "174140.578000", "174200.515000", "174200.515000", "174200.515000", "174200.531000", "174200.531000", "174200.531000", "174200.531000", "174200.531000", "174200.531000", "174200.531000", "174200.546000", "174200.546000", "174200.546000", "174200.546000", "174200.546000", "174200.546000", "174200.546000", "174200.562000", "174200.562000", "174200.562000", "174200.562000", "174200.562000", "174200.562000", "174200.562000", "174200.578000", "174200.578000", "174220.515000", "174220.515000", "174220.515000", "174220.531000", "174220.531000", "174220.531000", "174220.531000", "174220.531000", "174220.531000", "174220.531000", "174220.546000", "174220.546000", "174220.546000", "174220.546000", "174220.546000", "174220.546000", "174220.562000", "174220.562000", "174220.562000", "174220.562000", "174220.562000", "174220.562000", "174220.562000", "174220.578000", "174220.578000", "174240.515000", "174240.515000", "174240.515000", "174240.531000", "174240.531000", "174240.531000", "174240.531000", "174240.531000", "174240.531000", "174240.531000", "174240.546000", "174240.546000", "174240.546000", "174240.546000", "174240.546000", "174240.546000", "174240.562000", "174240.562000", "174240.562000", "174240.562000", "174240.562000", "174240.562000", "174240.562000", "174240.562000", "174240.578000", "174240.578000", "174300.515000", "174300.515000", "174300.515000", "174300.531000", "174300.531000", "174300.531000", "174300.531000", "174300.531000", "174300.531000", "174300.531000", "174300.546000", "174300.546000", "174300.546000", "174300.546000", "174300.546000", "174300.546000", "174300.546000", "174300.562000", "174300.562000", "174300.562000", "174300.562000", "174300.562000", "174300.562000", "174300.578000", "174300.578000", "174320.515000", "174320.515000", "174320.515000", "174320.531000", "174320.531000", "174320.531000", "174320.531000", "174320.531000", "174320.531000", "174320.531000", "174320.546000", "174320.546000", "174320.546000", "174320.546000", "174320.546000", "174320.546000", "174320.546000", "174320.562000", "174320.562000", "174320.562000", "174320.562000", "174320.562000", "174320.562000", "174320.562000", "174320.578000", "174320.578000", "174340.515000", "174340.515000", "174340.515000", "174340.531000", "174340.531000", "174340.531000", "174340.531000", "174340.531000", "174340.546000", "174340.546000", "174340.546000", "174340.546000", "174340.546000", "174340.562000", "174340.562000", "174340.562000", "174340.562000", "174340.562000", "174340.562000", "174340.562000", "174340.578000", "174340.578000", "174340.578000", "174340.578000", "174340.578000", "174400.515000", "174400.515000", "174400.515000", "174400.531000", "174400.531000", "174400.531000", "174400.531000", "174400.531000", "174400.531000", "174400.531000", "174400.546000", "174400.546000", "174400.546000", "174400.546000", "174400.546000", "174400.546000", "174400.562000", "174400.562000", "174400.562000", "174400.562000", "174400.562000", "174400.578000", "174400.578000", "174400.578000", "174400.578000", "174400.578000", "174420.515000", "174420.515000", "174420.515000", "174420.531000", "174420.531000", "174420.531000", "174420.531000", "174420.531000", "174420.531000", "174420.531000", "174420.546000", "174420.546000", "174420.546000", "174420.546000", "174420.546000", "174420.546000", "174420.562000", "174420.562000", "174420.562000", "174420.562000", "174420.562000", "174420.562000", "174420.578000", "174420.578000", "174420.578000", "174440.515000", "174440.515000", "174440.515000", "174440.531000", "174440.531000", "174440.531000", "174440.531000", "174440.531000", "174440.531000", "174440.531000", "174440.546000", "174440.546000", "174440.546000", "174440.546000", "174440.546000", "174440.546000", "174440.546000", "174440.562000", "174440.562000", "174440.562000", "174440.562000", "174440.562000", "174440.562000", "174440.562000", "174440.578000", "174440.578000", "174500.515000", "174500.515000", "174500.515000", "174500.531000", "174500.531000", "174500.531000", "174500.531000", "174500.531000", "174500.531000", "174500.531000", "174500.546000", "174500.546000", "174500.546000", "174500.546000", "174500.546000", "174500.546000", "174500.562000", "174500.562000", "174500.562000", "174500.562000", "174500.562000", "174500.562000", "174500.562000", "174500.578000", "174500.578000", "174520.515000", "174520.515000", "174520.515000", "174520.531000", "174520.531000", "174520.531000", "174520.531000", "174520.531000", "174520.531000", "174520.546000", "174520.546000", "174520.546000", "174520.546000", "174520.546000", "174520.546000", "174520.546000", "174520.562000", "174520.562000", "174520.562000", "174520.562000", "174520.562000", "174520.562000", "174520.562000", "174520.578000", "174520.578000", "174520.578000", "174540.515000", "174540.515000", "174540.515000", "174540.531000", "174540.531000", "174540.531000", "174540.531000", "174540.531000", "174540.531000", "174540.531000", "174540.546000", "174540.546000", "174540.546000", "174540.546000", "174540.546000", "174540.546000", "174540.546000", "174540.562000", "174540.562000", "174540.562000", "174540.562000", "174540.562000", "174540.562000", "174540.578000", "174540.578000", "174600.515000", "174600.515000", "174600.515000", "174600.531000", "174600.531000", "174600.531000", "174600.531000", "174600.531000", "174600.531000", "174600.531000", "174600.546000", "174600.546000", "174600.546000", "174600.546000", "174600.546000", "174600.546000", "174600.546000", "174600.562000", "174600.562000", "174600.562000", "174600.562000", "174600.562000", "174600.562000", "174600.578000", "174600.578000", "174600.578000", "174617.765000", "174617.765000", "174617.765000", "174617.765000", "174617.781000", "174617.781000", "174617.781000", "174617.796000", "174617.796000", "174617.796000", "174617.796000", "174617.796000", "174617.796000", "174617.796000", "174617.812000", "174617.812000", "174617.812000", "174617.812000", "174617.812000", "174617.812000", "174617.812000", "174617.828000"],
      "DataSetTrailingPadding": [
