{
  "AcquisitionMatrixPE": 104,
  "AcquisitionNumber": 1,
  "AcquisitionTime": "17:22:11.732500",
  "BandwidthPerPixelPhaseEncode": 13.935,
  "BaseResolution": 104,
  "CoilString": "C:HEA;HEP",
  "ConversionSoftware": "dcm2niix",
  "ConversionSoftwareVersion": "v1.0.20210317",
  "DerivedVendorReportedEchoSpacing": 0.000690017,
  "DeviceSerialNumber": "35450",
  "DwellTime": 2.5e-06,
  "EchoTime": 0.0348,
  "EffectiveEchoSpacing": 0.000690017,
  "FlipAngle": 55,
  "ImageComments": "Unaliased MB8/PE3 (remote)",
  "ImageOrientationPatientDICOM": [0.999986, 0.000501827, 0.00521186, 1.72622e-08, 0.995396, -0.0958458],
  "ImageType": [
    "ORIGINAL",
    "PRIMARY",
    "M",
    "MB",
    "ND",
    "MOSAIC"
],
  "ImagingFrequency": 123.234,
  "InPlanePhaseEncodingDirectionDICOM": "COL",
  "InstitutionAddress": "Univeristy Ave. 197,Newark,North East,US,07102-1814",
  "InstitutionName": "RUBIC",
  "InstitutionalDepartmentName": "Department",
  "MRAcquisitionType": "2D",
  "MagneticFieldStrength": 3,
  "Manufacturer": "Siemens",
  "ManufacturersModelName": "TrioTim",
  "Modality": "MR",
  "MultibandAccelerationFactor": 8,
  "PartialFourier": 0.875,
  "PatientPosition": "HFS",
  "PercentPhaseFOV": 100,
  "PercentSampling": 100,
  "PhaseEncodingDirection": "j-",
  "PhaseEncodingSteps": 91,
  "PhaseResolution": 1,
  "PixelBandwidth": 1923,
  "ProcedureStepDescription": "Cole^Michael",
  "ProtocolName": "cmrr_mbep2d_bold_2mm_MB8_Task_8x",
  "PulseSequenceDetails": "%CustomerSeq%\\cmrr_mbep2d_bold",
  "ReceiveCoilName": "32Ch_Head",
  "ReconMatrixPE": 104,
  "RepetitionTime": 0.785,
  "SAR": 0.114845,
  "ScanOptions": "PFP\\FS",
  "ScanningSequence": "EP",
  "SequenceName": "epfid2d1_104",
  "SequenceVariant": "SK\\SS",
  "SeriesDescription": "cmrr_mbep2d_bold_2mm_MB8_Task_8x",
  "SeriesNumber": 23,
  "ShimSetting": [2106, -357, -7304, 404, 24, -464, 92, 61],
  "SliceThickness": 2,
  "SliceTiming": [0, 0.4375, 0.0875, 0.525, 0.175, 0.6125, 0.2625, 0.7, 0.35, 0, 0.4375, 0.0875, 0.525, 0.175, 0.6125, 0.2625, 0.7, 0.35, 0, 0.4375, 0.0875, 0.525, 0.175, 0.6125, 0.2625, 0.7, 0.35, 0, 0.4375, 0.0875, 0.525, 0.175, 0.6125, 0.2625, 0.7, 0.35, 0, 0.4375, 0.0875, 0.525, 0.175, 0.6125, 0.2625, 0.7, 0.35, 0, 0.4375, 0.0875, 0.525, 0.175, 0.6125, 0.2625, 0.7, 0.35, 0, 0.4375, 0.0875, 0.525, 0.175, 0.6125, 0.2625, 0.7, 0.35, 0, 0.4375, 0.0875, 0.525, 0.175, 0.6125, 0.2625, 0.7, 0.35],
  "SoftwareVersions": "syngo MR B19",
  "SpacingBetweenSlices": 2,
  "StationName": "MRC35450",
  "TaskName": "cpro",
  "TotalReadoutTime": 0.0710717,
  "TxRefAmp": 319.053,
  "dcmmeta_affine": [
    [-1.9999725818634033, 3.4524390457590926e-08, 0.010471921414136887, 102.9488525390625],
    [-0.001003654790110886, 1.9907923936843872, -0.1916888803243637, -82.06574249267578],
    [0.01042371429502964, 0.19169150292873383, 1.99076509475708, -93.67761993408203],
    [0.0, 0.0, 0.0, 1.0]
],
  "dcmmeta_reorient_transform": [
    [0.0, -1.0, 0.0, 103.0],
    [1.0, 0.0, 0.0, 0.0],
    [0.0, 0.0, 1.0, 0.0],
    [0.0, 0.0, 0.0, 1.0]
],
  "dcmmeta_shape": [104, 104, 72, 581],
  "dcmmeta_slice_dim": 2,
  "dcmmeta_version": 0.6,
  "global": {
    "const": {
      "AcquisitionMatrix": [104, 0, 0, 104],
      "AngioFlag": "N",
      "BitsAllocated": 16,
      "BitsStored": 12,
      "Columns": 936,
      "EchoNumbers": 1,
      "EchoTime": 34.8,
      "EchoTrainLength": 1,
      "FlipAngle": 55.0,
      "HighBit": 11,
      "ImageOrientationPatient": [0.99998629226404, 0.00050182740353, 0.00521185698867, 1.7262196e-08, 0.9953961984302, -0.0958457518657],
      "ImagePositionPatient": [-934.93746614449, -951.5730353957, 1.4740040106946],
      "ImageType": [
        "ORIGINAL",
        "PRIMARY",
        "M",
        "MB",
        "ND",
        "MOSAIC"
],
      "ImagedNucleus": "1H",
      "ImagingFrequency": 123.234411,
      "InPlanePhaseEncodingDirection": "COL",
      "MRAcquisitionType": "2D",
      "MagneticFieldStrength": 3.0,
      "Manufacturer": "SIEMENS",
      "ManufacturerModelName": "TrioTim",
      "Modality": "MR",
      "NumberOfAverages": 1.0,
      "NumberOfPhaseEncodingSteps": 91,
      "PercentPhaseFieldOfView": 100.0,
      "PercentSampling": 100.0,
      "PerformedProcedureStepStartTime": "153153.734000",
      "PhotometricInterpretation": "MONOCHROME2",
      "PixelBandwidth": 1923.0,
      "PixelRepresentation": 0,
      "PixelSpacing": [2.0, 2.0],
      "ProtocolName": "cmrr_mbep2d_bold_2mm_MB8_Task_8x",
      "RepetitionTime": 785.0,
      "Rows": 936,
      "SAR": 0.11484491269478,
      "SamplesPerPixel": 1,
      "ScanOptions": [
        "PFP",
        "FS"
],
      "ScanningSequence": "EP",
      "SequenceName": "epfid2d1_104",
      "SequenceVariant": [
        "SK",
        "SS"
],
      "SeriesDescription": "cmrr_mbep2d_bold_2mm_MB8_Task_8x",
      "SeriesNumber": 23,
      "SeriesTime": "172246.359000",
      "SliceLocation": -84.840489247761,
      "SliceThickness": 2.0,
      "SmallestImagePixelValue": 0,
      "SoftwareVersions": "syngo MR B19",
      "SpacingBetweenSlices": 1.9999999949627,
      "SpecificCharacterSet": "ISO_IR 100",
      "StudyID": "1",
      "StudyTime": "153153.687000",
      "TransmitCoilName": "Body",
      "VariableFlipAngleFlag": "N",
      "WindowCenterWidthExplanation": "Algo1",
      "dBdt": 0.0},
    "slices": {}
  },
  "time": {
    "samples": {
      "AcquisitionNumber": [1, 2, 3, 4, 5, 6, 7, 8, 9, 10, 11, 12, 13, 14, 15, 16, 17, 18, 19, 20, 21, 22, 23, 24, 25, 26, 27, 28, 29, 30, 31, 32, 33, 34, 35, 36, 37, 38, 39, 40, 41, 42, 43, 44, 45, 46, 47, 48, 49, 50, 51, 52, 53, 54, 55, 56, 57, 58, 59, 60, 61, 62, 63, 64, 65, 66, 67, 68, 69, 70, 71, 72, 73, 74, 75, 76, 77, 78, 79, 80, 81, 82, 83, 84, 85, 86, 87, 88, 89, 90, 91, 92, 93, 94, 95, 96, 97, 98, 99, 100, 101, 102, 103, 104, 105, 106, 107, 108, 109, 110, 111, 112, 113, 114, 115, 116, 117, 118, 119, 120, 121, 122, 123, 124, 125, 126, 127, 128, 129, 130, 131, 132, 133, 134, 135, 136, 137, 138, 139, 140, 141, 142, 143, 144, 145, 146, 147, 148, 149, 150, 151, 152, 153, 154, 155, 156, 157, 158, 159, 160, 161, 162, 163, 164, 165, 166, 167, 168, 169, 170, 171, 172, 173, 174, 175, 176, 177, 178, 179, 180, 181, 182, 183, 184, 185, 186, 187, 188, 189, 190, 191, 192, 193, 194, 195, 196, 197, 198, 199, 200, 201, 202, 203, 204, 205, 206, 207, 208, 209, 210, 211, 212, 213, 214, 215, 216, 217, 218, 219, 220, 221, 222, 223, 224, 225, 226, 227, 228, 229, 230, 231, 232, 233, 234, 235, 236, 237, 238, 239, 240, 241, 242, 243, 244, 245, 246, 247, 248, 249, 250, 251, 252, 253, 254, 255, 256, 257, 258, 259, 260, 261, 262, 263, 264, 265, 266, 267, 268, 269, 270, 271, 272, 273, 274, 275, 276, 277, 278, 279, 280, 281, 282, 283, 284, 285, 286, 287, 288, 289, 290, 291, 292, 293, 294, 295, 296, 297, 298, 299, 300, 301, 302, 303, 304, 305, 306, 307, 308, 309, 310, 311, 312, 313, 314, 315, 316, 317, 318, 319, 320, 321, 322, 323, 324, 325, 326, 327, 328, 329, 330, 331, 332, 333, 334, 335, 336, 337, 338, 339, 340, 341, 342, 343, 344, 345, 346, 347, 348, 349, 350, 351, 352, 353, 354, 355, 356, 357, 358, 359, 360, 361, 362, 363, 364, 365, 366, 367, 368, 369, 370, 371, 372, 373, 374, 375, 376, 377, 378, 379, 380, 381, 382, 383, 384, 385, 386, 387, 388, 389, 390, 391, 392, 393, 394, 395, 396, 397, 398, 399, 400, 401, 402, 403, 404, 405, 406, 407, 408, 409, 410, 411, 412, 413, 414, 415, 416, 417, 418, 419, 420, 421, 422, 423, 424, 425, 426, 427, 428, 429, 430, 431, 432, 433, 434, 435, 436, 437, 438, 439, 440, 441, 442, 443, 444, 445, 446, 447, 448, 449, 450, 451, 452, 453, 454, 455, 456, 457, 458, 459, 460, 461, 462, 463, 464, 465, 466, 467, 468, 469, 470, 471, 472, 473, 474, 475, 476, 477, 478, 479, 480, 481, 482, 483, 484, 485, 486, 487, 488, 489, 490, 491, 492, 493, 494, 495, 496, 497, 498, 499, 500, 501, 502, 503, 504, 505, 506, 507, 508, 509, 510, 511, 512, 513, 514, 515, 516, 517, 518, 519, 520, 521, 522, 523, 524, 525, 526, 527, 528, 529, 530, 531, 532, 533, 534, 535, 536, 537, 538, 539, 540, 541, 542, 543, 544, 545, 546, 547, 548, 549, 550, 551, 552, 553, 554, 555, 556, 557, 558, 559, 560, 561, 562, 563, 564, 565, 566, 567, 568, 569, 570, 571, 572, 573, 574, 575, 576, 577, 578, 579, 580, 581],
      "AcquisitionTime": ["172211.732500", "172212.520000", "172213.307500", "172214.095000", "172214.885000", "172215.672500", "172216.460000", "172217.247500", "172218.037500", "172218.825000", "172219.612500", "172220.400000", "172221.190000", "172221.977500", "172222.765000", "172223.552500", "172224.342500", "172225.130000", "172225.917500", "172226.707500", "172227.495000", "172228.282500", "172229.070000", "172229.860000", "172230.647500", "172231.435000", "172232.222500", "172233.012500", "172233.800000", "172234.587500", "172235.375000", "172236.165000", "172236.952500", "172237.740000", "172238.527500", "172239.317500", "172240.105000", "172240.892500", "172241.680000", "172242.470000", "172243.257500", "172244.045000", "172244.835000", "172245.622500", "172246.410000", "172247.197500", "172247.987500", "172248.775000", "172249.562500", "172250.350000", "172251.140000", "172251.927500", "172252.715000", "172253.502500", "172254.292500", "172255.080000", "172255.867500", "172256.655000", "172257.445000", "172258.232500", "172259.020000", "172259.807500", "172300.597500", "172301.385000", "172302.172500", "172302.962500", "172303.750000", "172304.537500", "172305.325000", "172306.115000", "172306.902500", "172307.690000", "172308.477500", "172309.267500", "172310.055000", "172310.842500", "172311.630000", "172312.420000", "172313.207500", "172313.995000", "172314.782500", "172315.572500", "172316.360000", "172317.147500", "172317.935000", "172318.725000", "172319.512500", "172320.300000", "172321.090000", "172321.877500", "172322.665000", "172323.452500", "172324.242500", "172325.030000", "172325.817500", "172326.605000", "172327.395000", "172328.182500", "172328.970000", "172329.757500", "172330.547500", "172331.335000", "172332.122500", "172332.910000", "172333.700000", "172334.487500", "172335.275000", "172336.062500", "172336.852500", "172337.640000", "172338.427500", "172339.217500", "172340.005000", "172340.792500", "172341.580000", "172342.370000", "172343.157500", "172343.945000", "172344.732500", "172345.522500", "172346.310000", "172347.097500", "172347.885000", "172348.675000", "172349.462500", "172350.250000", "172351.037500", "172351.827500", "172352.615000", "172353.402500", "172354.192500", "172354.980000", "172355.767500", "172356.555000", "172357.345000", "172358.132500", "172358.920000", "172359.707500", "172400.497500", "172401.285000", "172402.072500", "172402.860000", "172403.650000", "172404.437500", "172405.225000", "172406.012500", "172406.802500", "172407.590000", "172408.377500", "172409.165000", "172409.955000", "172410.742500", "172411.530000", "172412.320000", "172413.107500", "172413.895000", "172414.682500", "172415.472500", "172416.260000", "172417.047500", "172417.835000", "172418.625000", "172419.412500", "172420.200000", "172420.987500", "172421.777500", "172422.565000", "172423.352500", "172424.140000", "172424.930000", "172425.717500", "172426.505000", "172427.292500", "172428.082500", "172428.870000", "172429.657500", "172430.447500", "172431.235000", "172432.022500", "172432.810000", "172433.600000", "172434.387500", "172435.175000", "172435.962500", "172436.752500", "172437.540000", "172438.327500", "172439.115000", "172439.905000", "172440.692500", "172441.480000", "172442.267500", "172443.057500", "172443.845000", "172444.632500", "172445.420000", "172446.210000", "172446.997500", "172447.785000", "172448.575000", "172449.362500", "172450.150000", "172450.937500", "172451.727500", "172452.515000", "172453.302500", "172454.090000", "172454.880000", "172455.667500", "172456.455000", "172457.242500", "172458.032500", "172458.820000", "172459.607500", "172500.395000", "172501.185000", "172501.972500", "172502.760000", "172503.547500", "172504.337500", "172505.125000", "172505.912500", "172506.702500", "172507.490000", "172508.277500", "172509.065000", "172509.855000", "172510.642500", "172511.430000", "172512.217500", "172513.007500", "172513.795000", "172514.582500", "172515.370000", "172516.160000", "172516.947500", "172517.735000", "172518.522500", "172519.312500", "172520.100000", "172520.887500", "172521.675000", "172522.465000", "172523.252500", "172524.040000", "172524.830000", "172525.617500", "172526.405000", "172527.192500", "172527.982500", "172528.770000", "172529.557500", "172530.345000", "172531.135000", "172531.922500", "172532.710000", "172533.497500", "172534.287500", "172535.075000", "172535.862500", "172536.650000", "172537.440000", "172538.227500", "172539.015000", "172539.802500", "172540.592500", "172541.380000", "172542.167500", "172542.957500", "172543.745000", "172544.532500", "172545.320000", "172546.110000", "172546.897500", "172547.685000", "172548.472500", "172549.262500", "172550.050000", "172550.837500", "172551.625000", "172552.415000", "172553.202500", "172553.990000", "172554.777500", "172555.567500", "172556.355000", "172557.142500", "172557.930000", "172558.720000", "172559.507500", "172600.295000", "172601.085000", "172601.872500", "172602.660000", "172603.447500", "172604.237500", "172605.025000", "172605.812500", "172606.600000", "172607.390000", "172608.177500", "172608.965000", "172609.752500", "172610.542500", "172611.330000", "172612.117500", "172612.905000", "172613.695000", "172614.482500", "172615.270000", "172616.057500", "172616.847500", "172617.635000", "172618.422500", "172619.212500", "172620.000000", "172620.787500", "172621.575000", "172622.365000", "172623.152500", "172623.940000", "172624.727500", "172625.517500", "172626.305000", "172627.092500", "172627.880000", "172628.670000", "172629.457500", "172630.245000", "172631.032500", "172631.822500", "172632.610000", "172633.397500", "172634.185000", "172634.975000", "172635.762500", "172636.550000", "172637.340000", "172638.127500", "172638.915000", "172639.702500", "172640.492500", "172641.280000", "172642.067500", "172642.855000", "172643.645000", "172644.432500", "172645.220000", "172646.007500", "172646.797500", "172647.585000", "172648.372500", "172649.160000", "172649.950000", "172650.737500", "172651.525000", "172652.312500", "172653.102500", "172653.890000", "172654.677500", "172655.467500", "172656.255000", "172657.042500", "172657.830000", "172658.620000", "172659.407500", "172700.195000", "172700.982500", "172701.772500", "172702.560000", "172703.347500", "172704.135000", "172704.925000", "172705.712500", "172706.500000", "172707.287500", "172708.077500", "172708.865000", "172709.652500", "172710.442500", "172711.230000", "172712.017500", "172712.805000", "172713.595000", "172714.382500", "172715.170000", "172715.957500", "172716.747500", "172717.535000", "172718.322500", "172719.110000", "172719.900000", "172720.687500", "172721.475000", "172722.262500", "172723.052500", "172723.840000", "172724.627500", "172725.415000", "172726.205000", "172726.992500", "172727.780000", "172728.570000", "172729.357500", "172730.145000", "172730.932500", "172731.722500", "172732.510000", "172733.297500", "172734.085000", "172734.875000", "172735.662500", "172736.450000", "172737.237500", "172738.027500", "172738.815000", "172739.602500", "172740.390000", "172741.180000", "172741.967500", "172742.755000", "172743.542500", "172744.332500", "172745.120000", "172745.907500", "172746.697500", "172747.485000", "172748.272500", "172749.060000", "172749.850000", "172750.637500", "172751.425000", "172752.212500", "172753.002500", "172753.790000", "172754.577500", "172755.365000", "172756.155000", "172756.942500", "172757.730000", "172758.517500", "172759.307500", "172800.095000", "172800.882500", "172801.670000", "172802.460000", "172803.247500", "172804.035000", "172804.825000", "172805.612500", "172806.400000", "172807.187500", "172807.977500", "172808.765000", "172809.552500", "172810.340000", "172811.130000", "172811.917500", "172812.705000", "172813.492500", "172814.282500", "172815.070000", "172815.857500", "172816.645000", "172817.435000", "172818.222500", "172819.010000", "172819.797500", "172820.587500", "172821.375000", "172822.162500", "172822.952500", "172823.740000", "172824.527500", "172825.315000", "172826.105000", "172826.892500", "172827.680000", "172828.467500", "172829.257500", "172830.045000", "172830.832500", "172831.620000", "172832.410000", "172833.197500", "172833.985000", "172834.772500", "172835.562500", "172836.350000", "172837.137500", "172837.925000", "172838.715000", "172839.502500", "172840.290000", "172841.080000", "172841.867500", "172842.655000", "172843.442500", "172844.232500", "172845.020000", "172845.807500", "172846.595000", "172847.385000", "172848.172500", "172848.960000", "172849.747500", "172850.537500", "172851.325000", "172852.112500", "172852.900000", "172853.690000", "172854.477500", "172855.265000", "172856.052500", "172856.842500", "172857.630000", "172858.417500", "172859.207500", "172859.995000", "172900.782500", "172901.570000", "172902.360000", "172903.147500", "172903.935000", "172904.722500", "172905.512500", "172906.300000", "172907.087500", "172907.875000", "172908.665000", "172909.452500", "172910.240000", "172911.027500", "172911.817500", "172912.605000", "172913.392500", "172914.180000", "172914.970000", "172915.757500", "172916.545000", "172917.335000", "172918.122500", "172918.910000", "172919.697500", "172920.487500", "172921.275000", "172922.062500", "172922.850000", "172923.640000", "172924.427500", "172925.215000", "172926.002500", "172926.792500", "172927.580000", "172928.367500", "172929.155000", "172929.945000", "172930.732500", "172931.520000", "172932.307500", "172933.097500", "172933.885000", "172934.672500", "172935.462500", "172936.250000", "172937.037500", "172937.825000", "172938.615000", "172939.402500", "172940.190000", "172940.977500", "172941.767500", "172942.555000", "172943.342500", "172944.130000", "172944.920000", "172945.707500", "172946.495000", "172947.282500", "172948.072500", "172948.860000"],
      "ContentTime": ["172246.359000", "172246.359000", "172246.359000", "172246.359000", "172246.359000", "172246.375000", "172246.375000", "172246.375000", "172246.375000", "172246.375000", "172246.375000", "172246.375000", "172246.390000", "172246.390000", "172246.390000", "172246.390000", "172246.390000", "172246.390000", "172246.390000", "172246.406000", "172246.406000", "172246.406000", "172246.406000", "172246.406000", "172246.406000", "172246.406000", "172246.421000", "172246.421000", "172246.421000", "172246.421000", "172246.421000", "172246.421000", "172246.421000", "172246.437000", "172246.437000", "172246.437000", "172246.437000", "172246.437000", "172246.437000", "172246.437000", "172246.453000", "172306.328000", "172306.328000", "172306.328000", "172306.343000", "172306.343000", "172306.343000", "172306.343000", "172306.343000", "172306.343000", "172306.359000", "172306.359000", "172306.359000", "172306.359000", "172306.359000", "172306.359000", "172306.359000", "172306.375000", "172306.375000", "172306.375000", "172306.375000", "172306.375000", "172306.375000", "172306.375000", "172306.390000", "172306.390000", "172306.390000", "172326.328000", "172326.328000", "172326.343000", "172326.343000", "172326.343000", "172326.343000", "172326.343000", "172326.343000", "172326.343000", "172326.359000", "172326.359000", "172326.359000", "172326.359000", "172326.359000", "172326.359000", "172326.359000", "172326.375000", "172326.375000", "172326.375000", "172326.375000", "172326.375000", "172326.390000", "172326.390000", "172326.390000", "172326.390000", "172346.328000", "172346.328000", "172346.343000", "172346.343000", "172346.343000", "172346.343000", "172346.343000", "172346.343000", "172346.359000", "172346.359000", "172346.359000", "172346.359000", "172346.359000", "172346.359000", "172346.359000", "172346.375000", "172346.375000", "172346.375000", "172346.375000", "172346.390000", "172346.390000", "172346.390000", "172346.390000", "172346.406000", "172346.406000", "172346.406000", "172406.328000", "172406.328000", "172406.328000", "172406.343000", "172406.343000", "172406.343000", "172406.343000", "172406.343000", "172406.343000", "172406.359000", "172406.359000", "172406.359000", "172406.359000", "172406.359000", "172406.359000", "172406.359000", "172406.375000", "172406.375000", "172406.375000", "172406.375000", "172406.375000", "172406.375000", "172406.375000", "172406.375000", "172406.390000", "172426.328000", "172426.328000", "172426.328000", "172426.343000", "172426.343000", "172426.343000", "172426.343000", "172426.343000", "172426.343000", "172426.359000", "172426.359000", "172426.359000", "172426.359000", "172426.359000", "172426.359000", "172426.359000", "172426.375000", "172426.375000", "172426.375000", "172426.375000", "172426.375000", "172426.375000", "172426.390000", "172426.390000", "172426.390000", "172426.390000", "172446.328000", "172446.328000", "172446.328000", "172446.343000", "172446.343000", "172446.343000", "172446.343000", "172446.343000", "172446.343000", "172446.359000", "172446.359000", "172446.359000", "172446.359000", "172446.359000", "172446.359000", "172446.375000", "172446.375000", "172446.375000", "172446.375000", "172446.375000", "172446.375000", "172446.375000", "172446.390000", "172446.390000", "172446.390000", "172506.328000", "172506.328000", "172506.343000", "172506.343000", "172506.343000", "172506.343000", "172506.343000", "172506.343000", "172506.343000", "172506.359000", "172506.359000", "172506.359000", "172506.359000", "172506.359000", "172506.359000", "172506.359000", "172506.375000", "172506.375000", "172506.375000", "172506.375000", "172506.375000", "172506.375000", "172506.375000", "172506.390000", "172506.390000", "172506.390000", "172526.328000", "172526.328000", "172526.343000", "172526.343000", "172526.343000", "172526.343000", "172526.343000", "172526.343000", "172526.343000", "172526.359000", "172526.359000", "172526.359000", "172526.359000", "172526.359000", "172526.359000", "172526.359000", "172526.375000", "172526.375000", "172526.375000", "172526.375000", "172526.390000", "172526.390000", "172526.390000", "172526.390000", "172526.390000", "172546.328000", "172546.328000", "172546.328000", "172546.343000", "172546.343000", "172546.343000", "172546.343000", "172546.343000", "172546.343000", "172546.359000", "172546.359000", "172546.359000", "172546.359000", "172546.375000", "172546.375000", "172546.375000", "172546.375000", "172546.375000", "172546.390000", "172546.390000", "172546.390000", "172546.390000", "172546.390000", "172546.390000", "172546.390000", "172606.328000", "172606.328000", "172606.343000", "172606.343000", "172606.343000", "172606.343000", "172606.343000", "172606.343000", "172606.359000", "172606.359000", "172606.359000", "172606.359000", "172606.359000", "172606.359000", "172606.359000", "172606.375000", "172606.375000", "172606.375000", "172606.375000", "172606.375000", "172606.375000", "172606.375000", "172606.390000", "172606.390000", "172606.390000", "172606.390000", "172626.328000", "172626.328000", "172626.343000", "172626.343000", "172626.343000", "172626.343000", "172626.343000", "172626.343000", "172626.343000", "172626.359000", "172626.359000", "172626.359000", "172626.359000", "172626.359000", "172626.359000", "172626.359000", "172626.375000", "172626.375000", "172626.375000", "172626.375000", "172626.375000", "172626.375000", "172626.375000", "172626.390000", "172626.390000", "172646.328000", "172646.328000", "172646.343000", "172646.343000", "172646.343000", "172646.343000", "172646.343000", "172646.343000", "172646.359000", "172646.359000", "172646.359000", "172646.359000", "172646.359000", "172646.359000", "172646.359000", "172646.375000", "172646.375000", "172646.375000", "172646.375000", "172646.375000", "172646.375000", "172646.375000", "172646.390000", "172646.390000", "172646.390000", "172646.390000", "172706.328000", "172706.328000", "172706.343000", "172706.343000", "172706.343000", "172706.343000", "172706.343000", "172706.343000", "172706.343000", "172706.359000", "172706.359000", "172706.359000", "172706.359000", "172706.359000", "172706.359000", "172706.359000", "172706.375000", "172706.375000", "172706.375000", "172706.375000", "172706.375000", "172706.375000", "172706.390000", "172706.390000", "172706.390000", "172726.328000", "172726.328000", "172726.328000", "172726.343000", "172726.343000", "172726.343000", "172726.343000", "172726.343000", "172726.343000", "172726.359000", "172726.359000", "172726.359000", "172726.359000", "172726.359000", "172726.359000", "172726.359000", "172726.375000", "172726.375000", "172726.375000", "172726.375000", "172726.375000", "172726.375000", "172726.375000", "172726.390000", "172726.390000", "172726.390000", "172746.328000", "172746.328000", "172746.328000", "172746.343000", "172746.343000", "172746.343000", "172746.343000", "172746.343000", "172746.343000", "172746.359000", "172746.359000", "172746.359000", "172746.359000", "172746.359000", "172746.359000", "172746.359000", "172746.375000", "172746.375000", "172746.375000", "172746.375000", "172746.375000", "172746.375000", "172746.375000", "172746.390000", "172746.390000", "172806.328000", "172806.328000", "172806.328000", "172806.343000", "172806.343000", "172806.343000", "172806.343000", "172806.343000", "172806.343000", "172806.359000", "172806.359000", "172806.359000", "172806.359000", "172806.359000", "172806.359000", "172806.359000", "172806.375000", "172806.375000", "172806.375000", "172806.375000", "172806.375000", "172806.375000", "172806.375000", "172806.390000", "172806.390000", "172806.390000", "172826.328000", "172826.328000", "172826.343000", "172826.343000", "172826.343000", "172826.343000", "172826.343000", "172826.343000", "172826.343000", "172826.359000", "172826.359000", "172826.359000", "172826.359000", "172826.359000", "172826.359000", "172826.359000", "172826.375000", "172826.375000", "172826.375000", "172826.375000", "172826.375000", "172826.375000", "172826.390000", "172826.390000", "172826.390000", "172846.328000", "172846.328000", "172846.343000", "172846.343000", "172846.343000", "172846.343000", "172846.343000", "172846.343000", "172846.343000", "172846.359000", "172846.359000", "172846.359000", "172846.359000", "172846.359000", "172846.359000", "172846.359000", "172846.375000", "172846.375000", "172846.375000", "172846.375000", "172846.375000", "172846.375000", "172846.390000", "172846.390000", "172846.390000", "172846.390000", "172906.328000", "172906.343000", "172906.343000", "172906.343000", "172906.343000", "172906.343000", "172906.343000", "172906.359000", "172906.359000", "172906.359000", "172906.359000", "172906.359000", "172906.359000", "172906.359000", "172906.375000", "172906.375000", "172906.375000", "172906.375000", "172906.375000", "172906.375000", "172906.390000", "172906.390000", "172906.390000", "172906.390000", "172906.390000", "172926.328000", "172926.328000", "172926.328000", "172926.343000", "172926.343000", "172926.343000", "172926.343000", "172926.343000", "172926.343000", "172926.359000", "172926.359000", "172926.359000", "172926.359000", "172926.359000", "172926.359000", "172926.359000", "172926.375000", "172926.375000", "172926.375000", "172926.375000", "172926.375000", "172926.375000", "172926.390000", "172926.390000", "172926.390000", "172926.390000", "172946.328000", "172946.328000", "172946.328000", "172946.343000", "172946.343000", "172946.343000", "172946.343000", "172946.343000", "172946.343000", "172946.359000", "172946.359000", "172946.359000", "172946.359000", "172946.359000", "172946.359000", "172946.359000", "172946.375000", "172946.375000", "172946.375000", "172946.375000", "172946.375000", "172946.375000", "172946.375000", "172946.390000", "172946.390000", "172949.734000", "172949.750000", "172949.750000", "172949.750000", "172949.750000"],
      "DataSetTrailingPadding": [
