{
  "AcquisitionMatrixPE": 104,
  "AcquisitionNumber": 1,
  "AcquisitionTime": "16:41:22.962500",
  "BandwidthPerPixelPhaseEncode": 13.935,
  "BaseResolution": 104,
  "CoilString": "C:HEA;HEP",
  "ConversionSoftware": "dcm2niix",
  "ConversionSoftwareVersion": "v1.0.20210317",
  "DerivedVendorReportedEchoSpacing": 0.000690017,
  "DeviceSerialNumber": "35450",
  "DwellTime": 2.5e-06,
  "EchoTime": 0.0348,
  "EffectiveEchoSpacing": 0.000690017,
  "FlipAngle": 55,
  "ImageComments": "Unaliased MB8/PE3 (remote)",
  "ImageOrientationPatientDICOM": [0.999986, 0.000501827, 0.00521186, 1.72622e-08, 0.995396, -0.0958458],
  "ImageType": [
    "ORIGINAL",
    "PRIMARY",
    "M",
    "MB",
    "ND",
    "MOSAIC"
],
  "ImagingFrequency": 123.234,
  "InPlanePhaseEncodingDirectionDICOM": "COL",
  "InstitutionAddress": "Univeristy Ave. 197,Newark,North East,US,07102-1814",
  "InstitutionName": "RUBIC",
  "InstitutionalDepartmentName": "Department",
  "MRAcquisitionType": "2D",
  "MagneticFieldStrength": 3,
  "Manufacturer": "Siemens",
  "ManufacturersModelName": "TrioTim",
  "Modality": "MR",
  "MultibandAccelerationFactor": 8,
  "PartialFourier": 0.875,
  "PatientPosition": "HFS",
  "PercentPhaseFOV": 100,
  "PercentSampling": 100,
  "PhaseEncodingDirection": "j-",
  "PhaseEncodingSteps": 91,
  "PhaseResolution": 1,
  "PixelBandwidth": 1923,
  "ProcedureStepDescription": "Cole^Michael",
  "ProtocolName": "cmrr_mbep2d_bold_2mm_MB8_Task_8x",
  "PulseSequenceDetails": "%CustomerSeq%\\cmrr_mbep2d_bold",
  "ReceiveCoilName": "32Ch_Head",
  "ReconMatrixPE": 104,
  "RepetitionTime": 0.785,
  "SAR": 0.128229,
  "ScanOptions": "PFP\\FS",
  "ScanningSequence": "EP",
  "SequenceName": "epfid2d1_104",
  "SequenceVariant": "SK\\SS",
  "SeriesDescription": "cmrr_mbep2d_bold_2mm_MB8_Task_8x",
  "SeriesNumber": 13,
  "ShimSetting": [2106, -357, -7304, 404, 24, -464, 92, 61],
  "SliceThickness": 2,
  "SliceTiming": [0, 0.4375, 0.0875, 0.525, 0.175, 0.6125, 0.2625, 0.7, 0.35, 0, 0.4375, 0.0875, 0.525, 0.175, 0.6125, 0.2625, 0.7, 0.35, 0, 0.4375, 0.0875, 0.525, 0.175, 0.6125, 0.2625, 0.7, 0.35, 0, 0.4375, 0.0875, 0.525, 0.175, 0.6125, 0.2625, 0.7, 0.35, 0, 0.4375, 0.0875, 0.525, 0.175, 0.6125, 0.2625, 0.7, 0.35, 0, 0.4375, 0.0875, 0.525, 0.175, 0.6125, 0.2625, 0.7, 0.35, 0, 0.4375, 0.0875, 0.525, 0.175, 0.6125, 0.2625, 0.7, 0.35, 0, 0.4375, 0.0875, 0.525, 0.175, 0.6125, 0.2625, 0.7, 0.35],
  "SoftwareVersions": "syngo MR B19",
  "SpacingBetweenSlices": 2,
  "StationName": "MRC35450",
  "TaskName": "cpro",
  "TotalReadoutTime": 0.0710717,
  "TxRefAmp": 319.053,
  "dcmmeta_affine": [
    [-1.9999725818634033, 3.4524390457590926e-08, 0.010471921414136887, 102.9488525390625],
    [-0.001003654790110886, 1.9907923936843872, -0.1916888803243637, -82.06574249267578],
    [0.01042371429502964, 0.19169150292873383, 1.99076509475708, -93.67761993408203],
    [0.0, 0.0, 0.0, 1.0]
],
  "dcmmeta_reorient_transform": [
    [0.0, -1.0, 0.0, 103.0],
    [1.0, 0.0, 0.0, 0.0],
    [0.0, 0.0, 1.0, 0.0],
    [0.0, 0.0, 0.0, 1.0]
],
  "dcmmeta_shape": [104, 104, 72, 581],
  "dcmmeta_slice_dim": 2,
  "dcmmeta_version": 0.6,
  "global": {
    "const": {
      "AcquisitionMatrix": [104, 0, 0, 104],
      "AngioFlag": "N",
      "BitsAllocated": 16,
      "BitsStored": 12,
      "Columns": 936,
      "EchoNumbers": 1,
      "EchoTime": 34.8,
      "EchoTrainLength": 1,
      "FlipAngle": 55.0,
      "HighBit": 11,
      "ImageOrientationPatient": [0.99998629226404, 0.00050182740353, 0.00521185698867, 1.7262196e-08, 0.9953961984302, -0.0958457518657],
      "ImagePositionPatient": [-934.93746614449, -951.5730353957, 1.4740040106946],
      "ImageType": [
        "ORIGINAL",
        "PRIMARY",
        "M",
        "MB",
        "ND",
        "MOSAIC"
],
      "ImagedNucleus": "1H",
      "ImagingFrequency": 123.234411,
      "InPlanePhaseEncodingDirection": "COL",
      "MRAcquisitionType": "2D",
      "MagneticFieldStrength": 3.0,
      "Manufacturer": "SIEMENS",
      "ManufacturerModelName": "TrioTim",
      "Modality": "MR",
      "NumberOfAverages": 1.0,
      "NumberOfPhaseEncodingSteps": 91,
      "PercentPhaseFieldOfView": 100.0,
      "PercentSampling": 100.0,
      "PerformedProcedureStepStartTime": "153153.734000",
      "PhotometricInterpretation": "MONOCHROME2",
      "PixelBandwidth": 1923.0,
      "PixelRepresentation": 0,
      "PixelSpacing": [2.0, 2.0],
      "ProtocolName": "cmrr_mbep2d_bold_2mm_MB8_Task_8x",
      "RepetitionTime": 785.0,
      "Rows": 936,
      "SAR": 0.1282290752408,
      "SamplesPerPixel": 1,
      "ScanOptions": [
        "PFP",
        "FS"
],
      "ScanningSequence": "EP",
      "SequenceName": "epfid2d1_104",
      "SequenceVariant": [
        "SK",
        "SS"
],
      "SeriesDescription": "cmrr_mbep2d_bold_2mm_MB8_Task_8x",
      "SeriesNumber": 13,
      "SeriesTime": "164141.015000",
      "SliceLocation": -84.840489247761,
      "SliceThickness": 2.0,
      "SmallestImagePixelValue": 0,
      "SoftwareVersions": "syngo MR B19",
      "SpacingBetweenSlices": 1.9999999949627,
      "SpecificCharacterSet": "ISO_IR 100",
      "StudyID": "1",
      "StudyTime": "153153.687000",
      "TransmitCoilName": "Body",
      "VariableFlipAngleFlag": "N",
      "WindowCenterWidthExplanation": "Algo1",
      "dBdt": 0.0},
    "slices": {}
  },
  "time": {
    "samples": {
      "AcquisitionNumber": [1, 2, 3, 4, 5, 6, 7, 8, 9, 10, 11, 12, 13, 14, 15, 16, 17, 18, 19, 20, 21, 22, 23, 24, 25, 26, 27, 28, 29, 30, 31, 32, 33, 34, 35, 36, 37, 38, 39, 40, 41, 42, 43, 44, 45, 46, 47, 48, 49, 50, 51, 52, 53, 54, 55, 56, 57, 58, 59, 60, 61, 62, 63, 64, 65, 66, 67, 68, 69, 70, 71, 72, 73, 74, 75, 76, 77, 78, 79, 80, 81, 82, 83, 84, 85, 86, 87, 88, 89, 90, 91, 92, 93, 94, 95, 96, 97, 98, 99, 100, 101, 102, 103, 104, 105, 106, 107, 108, 109, 110, 111, 112, 113, 114, 115, 116, 117, 118, 119, 120, 121, 122, 123, 124, 125, 126, 127, 128, 129, 130, 131, 132, 133, 134, 135, 136, 137, 138, 139, 140, 141, 142, 143, 144, 145, 146, 147, 148, 149, 150, 151, 152, 153, 154, 155, 156, 157, 158, 159, 160, 161, 162, 163, 164, 165, 166, 167, 168, 169, 170, 171, 172, 173, 174, 175, 176, 177, 178, 179, 180, 181, 182, 183, 184, 185, 186, 187, 188, 189, 190, 191, 192, 193, 194, 195, 196, 197, 198, 199, 200, 201, 202, 203, 204, 205, 206, 207, 208, 209, 210, 211, 212, 213, 214, 215, 216, 217, 218, 219, 220, 221, 222, 223, 224, 225, 226, 227, 228, 229, 230, 231, 232, 233, 234, 235, 236, 237, 238, 239, 240, 241, 242, 243, 244, 245, 246, 247, 248, 249, 250, 251, 252, 253, 254, 255, 256, 257, 258, 259, 260, 261, 262, 263, 264, 265, 266, 267, 268, 269, 270, 271, 272, 273, 274, 275, 276, 277, 278, 279, 280, 281, 282, 283, 284, 285, 286, 287, 288, 289, 290, 291, 292, 293, 294, 295, 296, 297, 298, 299, 300, 301, 302, 303, 304, 305, 306, 307, 308, 309, 310, 311, 312, 313, 314, 315, 316, 317, 318, 319, 320, 321, 322, 323, 324, 325, 326, 327, 328, 329, 330, 331, 332, 333, 334, 335, 336, 337, 338, 339, 340, 341, 342, 343, 344, 345, 346, 347, 348, 349, 350, 351, 352, 353, 354, 355, 356, 357, 358, 359, 360, 361, 362, 363, 364, 365, 366, 367, 368, 369, 370, 371, 372, 373, 374, 375, 376, 377, 378, 379, 380, 381, 382, 383, 384, 385, 386, 387, 388, 389, 390, 391, 392, 393, 394, 395, 396, 397, 398, 399, 400, 401, 402, 403, 404, 405, 406, 407, 408, 409, 410, 411, 412, 413, 414, 415, 416, 417, 418, 419, 420, 421, 422, 423, 424, 425, 426, 427, 428, 429, 430, 431, 432, 433, 434, 435, 436, 437, 438, 439, 440, 441, 442, 443, 444, 445, 446, 447, 448, 449, 450, 451, 452, 453, 454, 455, 456, 457, 458, 459, 460, 461, 462, 463, 464, 465, 466, 467, 468, 469, 470, 471, 472, 473, 474, 475, 476, 477, 478, 479, 480, 481, 482, 483, 484, 485, 486, 487, 488, 489, 490, 491, 492, 493, 494, 495, 496, 497, 498, 499, 500, 501, 502, 503, 504, 505, 506, 507, 508, 509, 510, 511, 512, 513, 514, 515, 516, 517, 518, 519, 520, 521, 522, 523, 524, 525, 526, 527, 528, 529, 530, 531, 532, 533, 534, 535, 536, 537, 538, 539, 540, 541, 542, 543, 544, 545, 546, 547, 548, 549, 550, 551, 552, 553, 554, 555, 556, 557, 558, 559, 560, 561, 562, 563, 564, 565, 566, 567, 568, 569, 570, 571, 572, 573, 574, 575, 576, 577, 578, 579, 580, 581],
      "AcquisitionTime": ["164122.962500", "164123.750000", "164124.540000", "164125.327500", "164126.115000", "164126.902500", "164127.692500", "164128.480000", "164129.267500", "164130.055000", "164130.845000", "164131.632500", "164132.420000", "164133.207500", "164133.997500", "164134.785000", "164135.572500", "164136.360000", "164137.150000", "164137.937500", "164138.725000", "164139.515000", "164140.302500", "164141.090000", "164141.877500", "164142.667500", "164143.455000", "164144.242500", "164145.030000", "164145.820000", "164146.607500", "164147.395000", "164148.182500", "164148.972500", "164149.760000", "164150.547500", "164151.335000", "164152.125000", "164152.912500", "164153.700000", "164154.487500", "164155.277500", "164156.065000", "164156.852500", "164157.642500", "164158.430000", "164159.217500", "164200.005000", "164200.795000", "164201.582500", "164202.370000", "164203.157500", "164203.947500", "164204.735000", "164205.522500", "164206.310000", "164207.100000", "164207.887500", "164208.675000", "164209.462500", "164210.252500", "164211.040000", "164211.827500", "164212.615000", "164213.405000", "164214.192500", "164214.980000", "164215.770000", "164216.557500", "164217.345000", "164218.132500", "164218.922500", "164219.710000", "164220.497500", "164221.285000", "164222.075000", "164222.862500", "164223.650000", "164224.437500", "164225.227500", "164226.015000", "164226.802500", "164227.590000", "164228.380000", "164229.167500", "164229.955000", "164230.742500", "164231.532500", "164232.320000", "164233.107500", "164233.897500", "164234.685000", "164235.472500", "164236.260000", "164237.050000", "164237.837500", "164238.625000", "164239.412500", "164240.202500", "164240.990000", "164241.777500", "164242.565000", "164243.355000", "164244.142500", "164244.930000", "164245.717500", "164246.507500", "164247.295000", "164248.082500", "164248.870000", "164249.660000", "164250.447500", "164251.235000", "164252.025000", "164252.812500", "164253.600000", "164254.387500", "164255.177500", "164255.965000", "164256.752500", "164257.540000", "164258.330000", "164259.117500", "164259.905000", "164300.692500", "164301.482500", "164302.270000", "164303.057500", "164303.845000", "164304.635000", "164305.422500", "164306.210000", "164306.997500", "164307.787500", "164308.575000", "164309.362500", "164310.152500", "164310.940000", "164311.727500", "164312.515000", "164313.305000", "164314.092500", "164314.880000", "164315.667500", "164316.457500", "164317.245000", "164318.032500", "164318.820000", "164319.610000", "164320.397500", "164321.185000", "164321.972500", "164322.762500", "164323.550000", "164324.337500", "164325.125000", "164325.915000", "164326.702500", "164327.490000", "164328.280000", "164329.067500", "164329.855000", "164330.642500", "164331.432500", "164332.220000", "164333.007500", "164333.795000", "164334.585000", "164335.372500", "164336.160000", "164336.947500", "164337.737500", "164338.525000", "164339.312500", "164340.100000", "164340.890000", "164341.677500", "164342.465000", "164343.255000", "164344.042500", "164344.830000", "164345.617500", "164346.407500", "164347.195000", "164347.982500", "164348.770000", "164349.560000", "164350.347500", "164351.135000", "164351.922500", "164352.712500", "164353.500000", "164354.287500", "164355.075000", "164355.865000", "164356.652500", "164357.440000", "164358.227500", "164359.017500", "164359.805000", "164400.592500", "164401.382500", "164402.170000", "164402.957500", "164403.745000", "164404.535000", "164405.322500", "164406.110000", "164406.897500", "164407.687500", "164408.475000", "164409.262500", "164410.050000", "164410.840000", "164411.627500", "164412.415000", "164413.202500", "164413.992500", "164414.780000", "164415.567500", "164416.355000", "164417.145000", "164417.932500", "164418.720000", "164419.510000", "164420.297500", "164421.085000", "164421.872500", "164422.662500", "164423.450000", "164424.237500", "164425.025000", "164425.815000", "164426.602500", "164427.390000", "164428.177500", "164428.967500", "164429.755000", "164430.542500", "164431.330000", "164432.120000", "164432.907500", "164433.695000", "164434.482500", "164435.272500", "164436.060000", "164436.847500", "164437.637500", "164438.425000", "164439.212500", "164440.000000", "164440.790000", "164441.577500", "164442.365000", "164443.152500", "164443.942500", "164444.730000", "164445.517500", "164446.305000", "164447.095000", "164447.882500", "164448.670000", "164449.457500", "164450.247500", "164451.035000", "164451.822500", "164452.610000", "164453.400000", "164454.187500", "164454.975000", "164455.765000", "164456.552500", "164457.340000", "164458.127500", "164458.917500", "164459.705000", "164500.492500", "164501.280000", "164502.070000", "164502.857500", "164503.645000", "164504.432500", "164505.222500", "164506.010000", "164506.797500", "164507.585000", "164508.375000", "164509.162500", "164509.950000", "164510.737500", "164511.527500", "164512.315000", "164513.102500", "164513.892500", "164514.680000", "164515.467500", "164516.255000", "164517.045000", "164517.832500", "164518.620000", "164519.407500", "164520.197500", "164520.985000", "164521.772500", "164522.560000", "164523.350000", "164524.137500", "164524.925000", "164525.712500", "164526.502500", "164527.290000", "164528.077500", "164528.865000", "164529.655000", "164530.442500", "164531.230000", "164532.020000", "164532.807500", "164533.595000", "164534.382500", "164535.172500", "164535.960000", "164536.747500", "164537.535000", "164538.325000", "164539.112500", "164539.900000", "164540.687500", "164541.477500", "164542.265000", "164543.052500", "164543.840000", "164544.630000", "164545.417500", "164546.205000", "164546.992500", "164547.782500", "164548.570000", "164549.357500", "164550.147500", "164550.935000", "164551.722500", "164552.510000", "164553.300000", "164554.087500", "164554.875000", "164555.662500", "164556.452500", "164557.240000", "164558.027500", "164558.815000", "164559.605000", "164600.392500", "164601.180000", "164601.967500", "164602.757500", "164603.545000", "164604.332500", "164605.120000", "164605.910000", "164606.697500", "164607.485000", "164608.275000", "164609.062500", "164609.850000", "164610.637500", "164611.427500", "164612.215000", "164613.002500", "164613.790000", "164614.580000", "164615.367500", "164616.155000", "164616.942500", "164617.732500", "164618.520000", "164619.307500", "164620.095000", "164620.885000", "164621.672500", "164622.460000", "164623.247500", "164624.037500", "164624.825000", "164625.612500", "164626.402500", "164627.190000", "164627.977500", "164628.765000", "164629.555000", "164630.342500", "164631.130000", "164631.917500", "164632.707500", "164633.495000", "164634.282500", "164635.070000", "164635.860000", "164636.647500", "164637.435000", "164638.222500", "164639.012500", "164639.800000", "164640.587500", "164641.375000", "164642.165000", "164642.952500", "164643.740000", "164644.530000", "164645.317500", "164646.105000", "164646.892500", "164647.682500", "164648.470000", "164649.257500", "164650.045000", "164650.835000", "164651.622500", "164652.410000", "164653.197500", "164653.987500", "164654.775000", "164655.562500", "164656.350000", "164657.140000", "164657.927500", "164658.715000", "164659.505000", "164700.292500", "164701.080000", "164701.867500", "164702.657500", "164703.445000", "164704.232500", "164705.020000", "164705.810000", "164706.597500", "164707.385000", "164708.172500", "164708.962500", "164709.750000", "164710.537500", "164711.325000", "164712.115000", "164712.902500", "164713.690000", "164714.477500", "164715.267500", "164716.055000", "164716.842500", "164717.632500", "164718.420000", "164719.207500", "164719.995000", "164720.785000", "164721.572500", "164722.360000", "164723.147500", "164723.937500", "164724.725000", "164725.512500", "164726.300000", "164727.090000", "164727.877500", "164728.665000", "164729.452500", "164730.242500", "164731.030000", "164731.817500", "164732.605000", "164733.395000", "164734.182500", "164734.970000", "164735.760000", "164736.547500", "164737.335000", "164738.122500", "164738.912500", "164739.700000", "164740.487500", "164741.275000", "164742.065000", "164742.852500", "164743.640000", "164744.427500", "164745.217500", "164746.005000", "164746.792500", "164747.580000", "164748.370000", "164749.157500", "164749.945000", "164750.732500", "164751.522500", "164752.310000", "164753.097500", "164753.887500", "164754.675000", "164755.462500", "164756.250000", "164757.040000", "164757.827500", "164758.615000", "164759.402500", "164800.192500", "164800.980000", "164801.767500", "164802.555000", "164803.345000", "164804.132500", "164804.920000", "164805.707500", "164806.497500", "164807.285000", "164808.072500", "164808.860000", "164809.650000", "164810.437500", "164811.225000", "164812.015000", "164812.802500", "164813.590000", "164814.377500", "164815.167500", "164815.955000", "164816.742500", "164817.530000", "164818.320000", "164819.107500", "164819.895000", "164820.682500", "164821.472500", "164822.260000", "164823.047500", "164823.835000", "164824.625000", "164825.412500", "164826.200000", "164826.987500", "164827.777500", "164828.565000", "164829.352500", "164830.142500", "164830.930000", "164831.717500", "164832.505000", "164833.295000", "164834.082500", "164834.870000", "164835.657500", "164836.447500", "164837.235000", "164838.022500", "164838.810000", "164839.600000", "164840.387500", "164841.175000", "164841.962500", "164842.752500", "164843.540000", "164844.327500", "164845.115000", "164845.905000", "164846.692500", "164847.480000", "164848.270000", "164849.057500", "164849.845000", "164850.632500", "164851.422500", "164852.210000", "164852.997500", "164853.785000", "164854.575000", "164855.362500", "164856.150000", "164856.937500", "164857.727500", "164858.515000", "164859.302500", "164900.090000"],
      "ContentTime": ["164141.015000", "164141.015000", "164141.015000", "164141.031000", "164141.031000", "164141.031000", "164141.046000", "164141.046000", "164141.046000", "164141.046000", "164141.062000", "164141.062000", "164141.062000", "164141.062000", "164141.062000", "164141.078000", "164141.078000", "164141.078000", "164141.078000", "164141.078000", "164200.984000", "164200.984000", "164200.984000", "164201.000000", "164201.000000", "164201.000000", "164201.000000", "164201.000000", "164201.000000", "164201.000000", "164201.015000", "164201.015000", "164201.015000", "164201.015000", "164201.015000", "164201.031000", "164201.031000", "164201.031000", "164201.031000", "164201.031000", "164201.031000", "164201.031000", "164201.046000", "164201.046000", "164201.046000", "164201.046000", "164220.984000", "164220.984000", "164221.000000", "164221.000000", "164221.000000", "164221.000000", "164221.000000", "164221.000000", "164221.000000", "164221.015000", "164221.015000", "164221.015000", "164221.015000", "164221.015000", "164221.015000", "164221.015000", "164221.031000", "164221.031000", "164221.031000", "164221.031000", "164221.031000", "164221.046000", "164221.046000", "164221.046000", "164221.046000", "164240.984000", "164240.984000", "164240.984000", "164241.000000", "164241.000000", "164241.000000", "164241.000000", "164241.000000", "164241.000000", "164241.000000", "164241.015000", "164241.015000", "164241.015000", "164241.015000", "164241.015000", "164241.015000", "164241.015000", "164241.031000", "164241.031000", "164241.031000", "164241.031000", "164241.031000", "164241.031000", "164241.046000", "164241.046000", "164241.046000", "164300.984000", "164300.984000", "164300.984000", "164301.000000", "164301.000000", "164301.000000", "164301.000000", "164301.000000", "164301.000000", "164301.015000", "164301.015000", "164301.015000", "164301.015000", "164301.015000", "164301.015000", "164301.015000", "164301.031000", "164301.031000", "164301.031000", "164301.031000", "164301.031000", "164301.031000", "164301.046000", "164301.046000", "164301.046000", "164320.984000", "164320.984000", "164320.984000", "164321.000000", "164321.000000", "164321.000000", "164321.000000", "164321.000000", "164321.000000", "164321.015000", "164321.015000", "164321.015000", "164321.015000", "164321.015000", "164321.015000", "164321.015000", "164321.031000", "164321.031000", "164321.031000", "164321.031000", "164321.031000", "164321.031000", "164321.031000", "164321.046000", "164321.046000", "164321.046000", "164340.984000", "164340.984000", "164340.984000", "164341.000000", "164341.000000", "164341.000000", "164341.000000", "164341.000000", "164341.000000", "164341.000000", "164341.015000", "164341.015000", "164341.015000", "164341.015000", "164341.031000", "164341.031000", "164341.031000", "164341.031000", "164341.031000", "164341.031000", "164341.031000", "164341.046000", "164341.046000", "164341.046000", "164341.046000", "164400.984000", "164400.984000", "164400.984000", "164401.000000", "164401.000000", "164401.000000", "164401.000000", "164401.000000", "164401.000000", "164401.015000", "164401.015000", "164401.015000", "164401.015000", "164401.015000", "164401.015000", "164401.015000", "164401.031000", "164401.031000", "164401.031000", "164401.031000", "164401.031000", "164401.031000", "164401.031000", "164401.046000", "164401.046000", "164401.046000", "164420.984000", "164420.984000", "164420.984000", "164421.000000", "164421.000000", "164421.000000", "164421.000000", "164421.000000", "164421.000000", "164421.015000", "164421.015000", "164421.015000", "164421.015000", "164421.015000", "164421.015000", "164421.062000", "164421.062000", "164421.062000", "164421.078000", "164421.078000", "164421.078000", "164421.093000", "164421.093000", "164421.093000", "164421.093000", "164440.984000", "164440.984000", "164440.984000", "164441.000000", "164441.000000", "164441.000000", "164441.000000", "164441.000000", "164441.000000", "164441.015000", "164441.015000", "164441.015000", "164441.015000", "164441.015000", "164441.015000", "164441.015000", "164441.031000", "164441.031000", "164441.031000", "164441.031000", "164441.031000", "164441.046000", "164441.046000", "164441.046000", "164441.062000", "164441.062000", "164500.984000", "164500.984000", "164500.984000", "164501.000000", "164501.000000", "164501.000000", "164501.000000", "164501.000000", "164501.000000", "164501.000000", "164501.015000", "164501.015000", "164501.015000", "164501.015000", "164501.031000", "164501.031000", "164501.031000", "164501.046000", "164501.046000", "164501.046000", "164501.046000", "164501.046000", "164501.046000", "164501.046000", "164501.062000", "164520.984000", "164520.984000", "164520.984000", "164521.000000", "164521.000000", "164521.000000", "164521.000000", "164521.000000", "164521.000000", "164521.000000", "164521.015000", "164521.015000", "164521.015000", "164521.015000", "164521.015000", "164521.015000", "164521.031000", "164521.031000", "164521.031000", "164521.031000", "164521.031000", "164521.031000", "164521.046000", "164521.046000", "164521.046000", "164521.046000", "164540.984000", "164540.984000", "164540.984000", "164541.000000", "164541.000000", "164541.000000", "164541.000000", "164541.000000", "164541.000000", "164541.015000", "164541.015000", "164541.015000", "164541.015000", "164541.015000", "164541.015000", "164541.031000", "164541.031000", "164541.031000", "164541.046000", "164541.046000", "164541.046000", "164541.046000", "164541.062000", "164541.062000", "164541.062000", "164600.984000", "164600.984000", "164600.984000", "164601.000000", "164601.000000", "164601.000000", "164601.000000", "164601.000000", "164601.000000", "164601.015000", "164601.015000", "164601.015000", "164601.015000", "164601.015000", "164601.015000", "164601.015000", "164601.031000", "164601.031000", "164601.031000", "164601.031000", "164601.031000", "164601.046000", "164601.046000", "164601.046000", "164601.046000", "164601.046000", "164620.984000", "164620.984000", "164621.000000", "164621.000000", "164621.000000", "164621.000000", "164621.000000", "164621.000000", "164621.000000", "164621.015000", "164621.015000", "164621.015000", "164621.015000", "164621.015000", "164621.015000", "164621.031000", "164621.031000", "164621.046000", "164621.046000", "164621.046000", "164621.046000", "164621.046000", "164621.046000", "164621.062000", "164621.062000", "164640.984000", "164640.984000", "164640.984000", "164641.000000", "164641.000000", "164641.000000", "164641.000000", "164641.000000", "164641.015000", "164641.015000", "164641.015000", "164641.015000", "164641.015000", "164641.015000", "164641.015000", "164641.031000", "164641.031000", "164641.031000", "164641.031000", "164641.031000", "164641.031000", "164641.046000", "164641.046000", "164641.046000", "164641.046000", "164641.046000", "164700.984000", "164700.984000", "164700.984000", "164701.000000", "164701.000000", "164701.000000", "164701.000000", "164701.000000", "164701.000000", "164701.000000", "164701.015000", "164701.015000", "164701.015000", "164701.015000", "164701.015000", "164701.015000", "164701.031000", "164701.031000", "164701.031000", "164701.031000", "164701.031000", "164701.031000", "164701.046000", "164701.046000", "164701.046000", "164720.984000", "164720.984000", "164720.984000", "164721.000000", "164721.000000", "164721.000000", "164721.000000", "164721.000000", "164721.000000", "164721.015000", "164721.015000", "164721.015000", "164721.015000", "164721.015000", "164721.015000", "164721.015000", "164721.031000", "164721.031000", "164721.031000", "164721.046000", "164721.046000", "164721.046000", "164721.046000", "164721.062000", "164721.062000", "164721.062000", "164740.984000", "164740.984000", "164740.984000", "164741.000000", "164741.000000", "164741.000000", "164741.000000", "164741.000000", "164741.000000", "164741.000000", "164741.015000", "164741.015000", "164741.015000", "164741.015000", "164741.015000", "164741.015000", "164741.031000", "164741.031000", "164741.031000", "164741.031000", "164741.031000", "164741.046000", "164741.046000", "164741.046000", "164741.046000", "164800.984000", "164800.984000", "164800.984000", "164801.000000", "164801.000000", "164801.000000", "164801.000000", "164801.000000", "164801.015000", "164801.015000", "164801.015000", "164801.015000", "164801.015000", "164801.015000", "164801.031000", "164801.031000", "164801.031000", "164801.031000", "164801.031000", "164801.046000", "164801.046000", "164801.046000", "164801.046000", "164801.046000", "164801.046000", "164820.984000", "164820.984000", "164821.000000", "164821.000000", "164821.000000", "164821.000000", "164821.000000", "164821.015000", "164821.015000", "164821.015000", "164821.015000", "164821.015000", "164821.031000", "164821.031000", "164821.031000", "164821.031000", "164821.031000", "164821.031000", "164821.031000", "164821.046000", "164821.046000", "164821.062000", "164821.062000", "164821.062000", "164821.062000", "164821.062000", "164840.984000", "164840.984000", "164841.000000", "164841.000000", "164841.000000", "164841.000000", "164841.000000", "164841.000000", "164841.000000", "164841.015000", "164841.015000", "164841.015000", "164841.015000", "164841.015000", "164841.015000", "164841.015000", "164841.031000", "164841.031000", "164841.031000", "164841.046000", "164841.046000", "164841.046000", "164841.046000", "164841.046000", "164841.062000", "164900.671000", "164900.671000", "164900.671000", "164900.671000", "164900.671000", "164900.687000", "164900.687000", "164900.687000", "164900.687000", "164900.687000", "164900.687000", "164900.687000", "164900.703000", "164900.703000", "164900.703000", "164900.703000", "164900.703000", "164900.703000", "164900.703000", "164900.718000", "164900.718000", "164900.718000", "164900.718000", "164900.718000", "164900.718000", "164900.718000"],
      "DataSetTrailingPadding": [
