{
  "AcquisitionMatrixPE": 104,
  "AcquisitionNumber": 1,
  "AcquisitionTime": "17:30:26.707500",
  "BandwidthPerPixelPhaseEncode": 13.935,
  "BaseResolution": 104,
  "CoilString": "C:HEA;HEP",
  "ConversionSoftware": "dcm2niix",
  "ConversionSoftwareVersion": "v1.0.20210317",
  "DerivedVendorReportedEchoSpacing": 0.000690017,
  "DeviceSerialNumber": "35450",
  "DwellTime": 2.5e-06,
  "EchoTime": 0.0348,
  "EffectiveEchoSpacing": 0.000690017,
  "FlipAngle": 55,
  "ImageComments": "Unaliased MB8/PE3 (remote)",
  "ImageOrientationPatientDICOM": [0.999986, 0.000501827, 0.00521186, 1.72622e-08, 0.995396, -0.0958458],
  "ImageType": [
    "ORIGINAL",
    "PRIMARY",
    "M",
    "MB",
    "ND",
    "MOSAIC"
],
  "ImagingFrequency": 123.234,
  "InPlanePhaseEncodingDirectionDICOM": "COL",
  "InstitutionAddress": "Univeristy Ave. 197,Newark,North East,US,07102-1814",
  "InstitutionName": "RUBIC",
  "InstitutionalDepartmentName": "Department",
  "MRAcquisitionType": "2D",
  "MagneticFieldStrength": 3,
  "Manufacturer": "Siemens",
  "ManufacturersModelName": "TrioTim",
  "Modality": "MR",
  "MultibandAccelerationFactor": 8,
  "PartialFourier": 0.875,
  "PatientPosition": "HFS",
  "PercentPhaseFOV": 100,
  "PercentSampling": 100,
  "PhaseEncodingDirection": "j-",
  "PhaseEncodingSteps": 91,
  "PhaseResolution": 1,
  "PixelBandwidth": 1923,
  "ProcedureStepDescription": "Cole^Michael",
  "ProtocolName": "cmrr_mbep2d_bold_2mm_MB8_Task_8x",
  "PulseSequenceDetails": "%CustomerSeq%\\cmrr_mbep2d_bold",
  "ReceiveCoilName": "32Ch_Head",
  "ReconMatrixPE": 104,
  "RepetitionTime": 0.785,
  "SAR": 0.114845,
  "ScanOptions": "PFP\\FS",
  "ScanningSequence": "EP",
  "SequenceName": "epfid2d1_104",
  "SequenceVariant": "SK\\SS",
  "SeriesDescription": "cmrr_mbep2d_bold_2mm_MB8_Task_8x",
  "SeriesNumber": 25,
  "ShimSetting": [2106, -357, -7304, 404, 24, -464, 92, 61],
  "SliceThickness": 2,
  "SliceTiming": [0, 0.4375, 0.0875, 0.525, 0.175, 0.6125, 0.2625, 0.7, 0.35, 0, 0.4375, 0.0875, 0.525, 0.175, 0.6125, 0.2625, 0.7, 0.35, 0, 0.4375, 0.0875, 0.525, 0.175, 0.6125, 0.2625, 0.7, 0.35, 0, 0.4375, 0.0875, 0.525, 0.175, 0.6125, 0.2625, 0.7, 0.35, 0, 0.4375, 0.0875, 0.525, 0.175, 0.6125, 0.2625, 0.7, 0.35, 0, 0.4375, 0.0875, 0.525, 0.175, 0.6125, 0.2625, 0.7, 0.35, 0, 0.4375, 0.0875, 0.525, 0.175, 0.6125, 0.2625, 0.7, 0.35, 0, 0.4375, 0.0875, 0.525, 0.175, 0.6125, 0.2625, 0.7, 0.35],
  "SoftwareVersions": "syngo MR B19",
  "SpacingBetweenSlices": 2,
  "StationName": "MRC35450",
  "TaskName": "cpro",
  "TotalReadoutTime": 0.0710717,
  "TxRefAmp": 319.053,
  "dcmmeta_affine": [
    [-1.9999725818634033, 3.4524390457590926e-08, 0.010471921414136887, 102.9488525390625],
    [-0.001003654790110886, 1.9907923936843872, -0.1916888803243637, -82.06574249267578],
    [0.01042371429502964, 0.19169150292873383, 1.99076509475708, -93.67761993408203],
    [0.0, 0.0, 0.0, 1.0]
],
  "dcmmeta_reorient_transform": [
    [0.0, -1.0, 0.0, 103.0],
    [1.0, 0.0, 0.0, 0.0],
    [0.0, 0.0, 1.0, 0.0],
    [0.0, 0.0, 0.0, 1.0]
],
  "dcmmeta_shape": [104, 104, 72, 581],
  "dcmmeta_slice_dim": 2,
  "dcmmeta_version": 0.6,
  "global": {
    "const": {
      "AcquisitionMatrix": [104, 0, 0, 104],
      "AngioFlag": "N",
      "BitsAllocated": 16,
      "BitsStored": 12,
      "Columns": 936,
      "EchoNumbers": 1,
      "EchoTime": 34.8,
      "EchoTrainLength": 1,
      "FlipAngle": 55.0,
      "HighBit": 11,
      "ImageOrientationPatient": [0.99998629226404, 0.00050182740353, 0.00521185698867, 1.7262196e-08, 0.9953961984302, -0.0958457518657],
      "ImagePositionPatient": [-934.93746614449, -951.5730353957, 1.4740040106946],
      "ImageType": [
        "ORIGINAL",
        "PRIMARY",
        "M",
        "MB",
        "ND",
        "MOSAIC"
],
      "ImagedNucleus": "1H",
      "ImagingFrequency": 123.234411,
      "InPlanePhaseEncodingDirection": "COL",
      "MRAcquisitionType": "2D",
      "MagneticFieldStrength": 3.0,
      "Manufacturer": "SIEMENS",
      "ManufacturerModelName": "TrioTim",
      "Modality": "MR",
      "NumberOfAverages": 1.0,
      "NumberOfPhaseEncodingSteps": 91,
      "PercentPhaseFieldOfView": 100.0,
      "PercentSampling": 100.0,
      "PerformedProcedureStepStartTime": "153153.734000",
      "PhotometricInterpretation": "MONOCHROME2",
      "PixelBandwidth": 1923.0,
      "PixelRepresentation": 0,
      "PixelSpacing": [2.0, 2.0],
      "ProtocolName": "cmrr_mbep2d_bold_2mm_MB8_Task_8x",
      "RepetitionTime": 785.0,
      "Rows": 936,
      "SAR": 0.11484491269478,
      "SamplesPerPixel": 1,
      "ScanOptions": [
        "PFP",
        "FS"
],
      "ScanningSequence": "EP",
      "SequenceName": "epfid2d1_104",
      "SequenceVariant": [
        "SK",
        "SS"
],
      "SeriesDescription": "cmrr_mbep2d_bold_2mm_MB8_Task_8x",
      "SeriesNumber": 25,
      "SeriesTime": "173101.015000",
      "SliceLocation": -84.840489247761,
      "SliceThickness": 2.0,
      "SmallestImagePixelValue": 0,
      "SoftwareVersions": "syngo MR B19",
      "SpacingBetweenSlices": 1.9999999949627,
      "SpecificCharacterSet": "ISO_IR 100",
      "StudyID": "1",
      "StudyTime": "153153.687000",
      "TransmitCoilName": "Body",
      "VariableFlipAngleFlag": "N",
      "WindowCenterWidthExplanation": "Algo1",
      "dBdt": 0.0},
    "slices": {}
  },
  "time": {
    "samples": {
      "AcquisitionNumber": [1, 2, 3, 4, 5, 6, 7, 8, 9, 10, 11, 12, 13, 14, 15, 16, 17, 18, 19, 20, 21, 22, 23, 24, 25, 26, 27, 28, 29, 30, 31, 32, 33, 34, 35, 36, 37, 38, 39, 40, 41, 42, 43, 44, 45, 46, 47, 48, 49, 50, 51, 52, 53, 54, 55, 56, 57, 58, 59, 60, 61, 62, 63, 64, 65, 66, 67, 68, 69, 70, 71, 72, 73, 74, 75, 76, 77, 78, 79, 80, 81, 82, 83, 84, 85, 86, 87, 88, 89, 90, 91, 92, 93, 94, 95, 96, 97, 98, 99, 100, 101, 102, 103, 104, 105, 106, 107, 108, 109, 110, 111, 112, 113, 114, 115, 116, 117, 118, 119, 120, 121, 122, 123, 124, 125, 126, 127, 128, 129, 130, 131, 132, 133, 134, 135, 136, 137, 138, 139, 140, 141, 142, 143, 144, 145, 146, 147, 148, 149, 150, 151, 152, 153, 154, 155, 156, 157, 158, 159, 160, 161, 162, 163, 164, 165, 166, 167, 168, 169, 170, 171, 172, 173, 174, 175, 176, 177, 178, 179, 180, 181, 182, 183, 184, 185, 186, 187, 188, 189, 190, 191, 192, 193, 194, 195, 196, 197, 198, 199, 200, 201, 202, 203, 204, 205, 206, 207, 208, 209, 210, 211, 212, 213, 214, 215, 216, 217, 218, 219, 220, 221, 222, 223, 224, 225, 226, 227, 228, 229, 230, 231, 232, 233, 234, 235, 236, 237, 238, 239, 240, 241, 242, 243, 244, 245, 246, 247, 248, 249, 250, 251, 252, 253, 254, 255, 256, 257, 258, 259, 260, 261, 262, 263, 264, 265, 266, 267, 268, 269, 270, 271, 272, 273, 274, 275, 276, 277, 278, 279, 280, 281, 282, 283, 284, 285, 286, 287, 288, 289, 290, 291, 292, 293, 294, 295, 296, 297, 298, 299, 300, 301, 302, 303, 304, 305, 306, 307, 308, 309, 310, 311, 312, 313, 314, 315, 316, 317, 318, 319, 320, 321, 322, 323, 324, 325, 326, 327, 328, 329, 330, 331, 332, 333, 334, 335, 336, 337, 338, 339, 340, 341, 342, 343, 344, 345, 346, 347, 348, 349, 350, 351, 352, 353, 354, 355, 356, 357, 358, 359, 360, 361, 362, 363, 364, 365, 366, 367, 368, 369, 370, 371, 372, 373, 374, 375, 376, 377, 378, 379, 380, 381, 382, 383, 384, 385, 386, 387, 388, 389, 390, 391, 392, 393, 394, 395, 396, 397, 398, 399, 400, 401, 402, 403, 404, 405, 406, 407, 408, 409, 410, 411, 412, 413, 414, 415, 416, 417, 418, 419, 420, 421, 422, 423, 424, 425, 426, 427, 428, 429, 430, 431, 432, 433, 434, 435, 436, 437, 438, 439, 440, 441, 442, 443, 444, 445, 446, 447, 448, 449, 450, 451, 452, 453, 454, 455, 456, 457, 458, 459, 460, 461, 462, 463, 464, 465, 466, 467, 468, 469, 470, 471, 472, 473, 474, 475, 476, 477, 478, 479, 480, 481, 482, 483, 484, 485, 486, 487, 488, 489, 490, 491, 492, 493, 494, 495, 496, 497, 498, 499, 500, 501, 502, 503, 504, 505, 506, 507, 508, 509, 510, 511, 512, 513, 514, 515, 516, 517, 518, 519, 520, 521, 522, 523, 524, 525, 526, 527, 528, 529, 530, 531, 532, 533, 534, 535, 536, 537, 538, 539, 540, 541, 542, 543, 544, 545, 546, 547, 548, 549, 550, 551, 552, 553, 554, 555, 556, 557, 558, 559, 560, 561, 562, 563, 564, 565, 566, 567, 568, 569, 570, 571, 572, 573, 574, 575, 576, 577, 578, 579, 580, 581],
      "AcquisitionTime": ["173026.707500", "173027.495000", "173028.282500", "173029.072500", "173029.860000", "173030.647500", "173031.435000", "173032.225000", "173033.012500", "173033.800000", "173034.587500", "173035.377500", "173036.165000", "173036.952500", "173037.740000", "173038.530000", "173039.317500", "173040.105000", "173040.892500", "173041.682500", "173042.470000", "173043.257500", "173044.045000", "173044.835000", "173045.622500", "173046.410000", "173047.200000", "173047.987500", "173048.775000", "173049.562500", "173050.352500", "173051.140000", "173051.927500", "173052.715000", "173053.505000", "173054.292500", "173055.080000", "173055.867500", "173056.657500", "173057.445000", "173058.232500", "173059.020000", "173059.810000", "173100.597500", "173101.385000", "173102.172500", "173102.962500", "173103.750000", "173104.537500", "173105.327500", "173106.115000", "173106.902500", "173107.690000", "173108.480000", "173109.267500", "173110.055000", "173110.842500", "173111.632500", "173112.420000", "173113.207500", "173113.995000", "173114.785000", "173115.572500", "173116.360000", "173117.147500", "173117.937500", "173118.725000", "173119.512500", "173120.300000", "173121.090000", "173121.877500", "173122.665000", "173123.455000", "173124.242500", "173125.030000", "173125.817500", "173126.607500", "173127.395000", "173128.182500", "173128.970000", "173129.760000", "173130.547500", "173131.335000", "173132.122500", "173132.912500", "173133.700000", "173134.487500", "173135.275000", "173136.065000", "173136.852500", "173137.640000", "173138.427500", "173139.217500", "173140.005000", "173140.792500", "173141.582500", "173142.370000", "173143.157500", "173143.945000", "173144.735000", "173145.522500", "173146.310000", "173147.097500", "173147.887500", "173148.675000", "173149.462500", "173150.250000", "173151.040000", "173151.827500", "173152.615000", "173153.402500", "173154.192500", "173154.980000", "173155.767500", "173156.555000", "173157.345000", "173158.132500", "173158.920000", "173159.710000", "173200.497500", "173201.285000", "173202.072500", "173202.862500", "173203.650000", "173204.437500", "173205.225000", "173206.015000", "173206.802500", "173207.590000", "173208.377500", "173209.167500", "173209.955000", "173210.742500", "173211.530000", "173212.320000", "173213.107500", "173213.895000", "173214.682500", "173215.472500", "173216.260000", "173217.047500", "173217.837500", "173218.625000", "173219.412500", "173220.200000", "173220.990000", "173221.777500", "173222.565000", "173223.352500", "173224.142500", "173224.930000", "173225.717500", "173226.505000", "173227.295000", "173228.082500", "173228.870000", "173229.657500", "173230.447500", "173231.235000", "173232.022500", "173232.810000", "173233.600000", "173234.387500", "173235.175000", "173235.965000", "173236.752500", "173237.540000", "173238.327500", "173239.117500", "173239.905000", "173240.692500", "173241.480000", "173242.270000", "173243.057500", "173243.845000", "173244.632500", "173245.422500", "173246.210000", "173246.997500", "173247.785000", "173248.575000", "173249.362500", "173250.150000", "173250.937500", "173251.727500", "173252.515000", "173253.302500", "173254.092500", "173254.880000", "173255.667500", "173256.455000", "173257.245000", "173258.032500", "173258.820000", "173259.607500", "173300.397500", "173301.185000", "173301.972500", "173302.760000", "173303.550000", "173304.337500", "173305.125000", "173305.912500", "173306.702500", "173307.490000", "173308.277500", "173309.065000", "173309.855000", "173310.642500", "173311.430000", "173312.220000", "173313.007500", "173313.795000", "173314.582500", "173315.372500", "173316.160000", "173316.947500", "173317.735000", "173318.525000", "173319.312500", "173320.100000", "173320.887500", "173321.677500", "173322.465000", "173323.252500", "173324.040000", "173324.830000", "173325.617500", "173326.405000", "173327.195000", "173327.982500", "173328.770000", "173329.557500", "173330.347500", "173331.135000", "173331.922500", "173332.710000", "173333.500000", "173334.287500", "173335.075000", "173335.862500", "173336.652500", "173337.440000", "173338.227500", "173339.015000", "173339.805000", "173340.592500", "173341.380000", "173342.167500", "173342.957500", "173343.745000", "173344.532500", "173345.322500", "173346.110000", "173346.897500", "173347.685000", "173348.475000", "173349.262500", "173350.050000", "173350.837500", "173351.627500", "173352.415000", "173353.202500", "173353.990000", "173354.780000", "173355.567500", "173356.355000", "173357.142500", "173357.932500", "173358.720000", "173359.507500", "173400.295000", "173401.085000", "173401.872500", "173402.660000", "173403.450000", "173404.237500", "173405.025000", "173405.812500", "173406.602500", "173407.390000", "173408.177500", "173408.965000", "173409.755000", "173410.542500", "173411.330000", "173412.117500", "173412.907500", "173413.695000", "173414.482500", "173415.270000", "173416.060000", "173416.847500", "173417.635000", "173418.422500", "173419.212500", "173420.000000", "173420.787500", "173421.577500", "173422.365000", "173423.152500", "173423.940000", "173424.730000", "173425.517500", "173426.305000", "173427.092500", "173427.882500", "173428.670000", "173429.457500", "173430.245000", "173431.035000", "173431.822500", "173432.610000", "173433.397500", "173434.187500", "173434.975000", "173435.762500", "173436.550000", "173437.340000", "173438.127500", "173438.915000", "173439.705000", "173440.492500", "173441.280000", "173442.067500", "173442.857500", "173443.645000", "173444.432500", "173445.220000", "173446.010000", "173446.797500", "173447.585000", "173448.372500", "173449.162500", "173449.950000", "173450.737500", "173451.525000", "173452.315000", "173453.102500", "173453.890000", "173454.677500", "173455.467500", "173456.255000", "173457.042500", "173457.832500", "173458.620000", "173459.407500", "173500.195000", "173500.985000", "173501.772500", "173502.560000", "173503.347500", "173504.137500", "173504.925000", "173505.712500", "173506.500000", "173507.290000", "173508.077500", "173508.865000", "173509.652500", "173510.442500", "173511.230000", "173512.017500", "173512.805000", "173513.595000", "173514.382500", "173515.170000", "173515.960000", "173516.747500", "173517.535000", "173518.322500", "173519.112500", "173519.900000", "173520.687500", "173521.475000", "173522.265000", "173523.052500", "173523.840000", "173524.627500", "173525.417500", "173526.205000", "173526.992500", "173527.780000", "173528.570000", "173529.357500", "173530.145000", "173530.932500", "173531.722500", "173532.510000", "173533.297500", "173534.087500", "173534.875000", "173535.662500", "173536.450000", "173537.240000", "173538.027500", "173538.815000", "173539.602500", "173540.392500", "173541.180000", "173541.967500", "173542.755000", "173543.545000", "173544.332500", "173545.120000", "173545.907500", "173546.697500", "173547.485000", "173548.272500", "173549.060000", "173549.850000", "173550.637500", "173551.425000", "173552.215000", "173553.002500", "173553.790000", "173554.577500", "173555.367500", "173556.155000", "173556.942500", "173557.730000", "173558.520000", "173559.307500", "173600.095000", "173600.882500", "173601.672500", "173602.460000", "173603.247500", "173604.035000", "173604.825000", "173605.612500", "173606.400000", "173607.187500", "173607.977500", "173608.765000", "173609.552500", "173610.342500", "173611.130000", "173611.917500", "173612.705000", "173613.495000", "173614.282500", "173615.070000", "173615.857500", "173616.647500", "173617.435000", "173618.222500", "173619.010000", "173619.800000", "173620.587500", "173621.375000", "173622.162500", "173622.952500", "173623.740000", "173624.527500", "173625.315000", "173626.105000", "173626.892500", "173627.680000", "173628.470000", "173629.257500", "173630.045000", "173630.832500", "173631.622500", "173632.410000", "173633.197500", "173633.985000", "173634.775000", "173635.562500", "173636.350000", "173637.137500", "173637.927500", "173638.715000", "173639.502500", "173640.290000", "173641.080000", "173641.867500", "173642.655000", "173643.445000", "173644.232500", "173645.020000", "173645.807500", "173646.597500", "173647.385000", "173648.172500", "173648.960000", "173649.750000", "173650.537500", "173651.325000", "173652.112500", "173652.902500", "173653.690000", "173654.477500", "173655.265000", "173656.055000", "173656.842500", "173657.630000", "173658.417500", "173659.207500", "173659.995000", "173700.782500", "173701.572500", "173702.360000", "173703.147500", "173703.935000", "173704.725000", "173705.512500", "173706.300000", "173707.087500", "173707.877500", "173708.665000", "173709.452500", "173710.240000", "173711.030000", "173711.817500", "173712.605000", "173713.392500", "173714.182500", "173714.970000", "173715.757500", "173716.545000", "173717.335000", "173718.122500", "173718.910000", "173719.700000", "173720.487500", "173721.275000", "173722.062500", "173722.852500", "173723.640000", "173724.427500", "173725.215000", "173726.005000", "173726.792500", "173727.580000", "173728.367500", "173729.157500", "173729.945000", "173730.732500", "173731.520000", "173732.310000", "173733.097500", "173733.885000", "173734.672500", "173735.462500", "173736.250000", "173737.037500", "173737.827500", "173738.615000", "173739.402500", "173740.190000", "173740.980000", "173741.767500", "173742.555000", "173743.342500", "173744.132500", "173744.920000", "173745.707500", "173746.495000", "173747.285000", "173748.072500", "173748.860000", "173749.647500", "173750.437500", "173751.225000", "173752.012500", "173752.800000", "173753.590000", "173754.377500", "173755.165000", "173755.955000", "173756.742500", "173757.530000", "173758.317500", "173759.107500", "173759.895000", "173800.682500", "173801.470000", "173802.260000", "173803.047500", "173803.835000"],
      "ContentTime": ["173101.015000", "173101.015000", "173101.015000", "173101.015000", "173101.031000", "173101.031000", "173101.031000", "173101.031000", "173101.046000", "173101.046000", "173101.046000", "173101.046000", "173101.062000", "173101.062000", "173101.062000", "173101.062000", "173101.078000", "173101.078000", "173101.078000", "173101.078000", "173101.078000", "173101.078000", "173101.078000", "173101.093000", "173101.093000", "173101.093000", "173101.093000", "173101.093000", "173101.093000", "173101.109000", "173101.109000", "173101.109000", "173101.109000", "173101.109000", "173101.109000", "173101.109000", "173101.125000", "173101.125000", "173101.125000", "173101.125000", "173120.984000", "173120.984000", "173120.984000", "173121.000000", "173121.000000", "173121.000000", "173121.000000", "173121.000000", "173121.000000", "173121.000000", "173121.015000", "173121.015000", "173121.015000", "173121.015000", "173121.015000", "173121.015000", "173121.031000", "173121.031000", "173121.031000", "173121.031000", "173121.031000", "173121.031000", "173121.031000", "173121.046000", "173121.046000", "173121.046000", "173140.984000", "173140.984000", "173140.984000", "173141.000000", "173141.000000", "173141.000000", "173141.000000", "173141.000000", "173141.000000", "173141.015000", "173141.015000", "173141.015000", "173141.015000", "173141.015000", "173141.015000", "173141.015000", "173141.031000", "173141.031000", "173141.031000", "173141.031000", "173141.031000", "173141.046000", "173141.046000", "173141.046000", "173141.046000", "173200.984000", "173200.984000", "173200.984000", "173201.000000", "173201.000000", "173201.000000", "173201.000000", "173201.000000", "173201.000000", "173201.000000", "173201.015000", "173201.015000", "173201.015000", "173201.015000", "173201.015000", "173201.015000", "173201.015000", "173201.031000", "173201.031000", "173201.031000", "173201.031000", "173201.046000", "173201.046000", "173201.046000", "173201.046000", "173201.046000", "173220.984000", "173220.984000", "173220.984000", "173221.000000", "173221.000000", "173221.000000", "173221.000000", "173221.000000", "173221.000000", "173221.015000", "173221.015000", "173221.015000", "173221.015000", "173221.015000", "173221.015000", "173221.015000", "173221.031000", "173221.031000", "173221.031000", "173221.031000", "173221.031000", "173221.031000", "173221.031000", "173221.046000", "173221.046000", "173240.984000", "173240.984000", "173240.984000", "173241.000000", "173241.000000", "173241.000000", "173241.000000", "173241.000000", "173241.000000", "173241.015000", "173241.015000", "173241.015000", "173241.015000", "173241.015000", "173241.015000", "173241.015000", "173241.031000", "173241.031000", "173241.031000", "173241.031000", "173241.031000", "173241.031000", "173241.031000", "173241.046000", "173241.046000", "173241.046000", "173300.984000", "173300.984000", "173300.984000", "173301.000000", "173301.000000", "173301.000000", "173301.000000", "173301.000000", "173301.000000", "173301.000000", "173301.015000", "173301.015000", "173301.015000", "173301.015000", "173301.015000", "173301.015000", "173301.031000", "173301.031000", "173301.031000", "173301.031000", "173301.031000", "173301.031000", "173301.031000", "173301.046000", "173301.046000", "173320.984000", "173320.984000", "173320.984000", "173321.000000", "173321.000000", "173321.000000", "173321.000000", "173321.000000", "173321.000000", "173321.000000", "173321.015000", "173321.015000", "173321.015000", "173321.015000", "173321.015000", "173321.015000", "173321.015000", "173321.031000", "173321.031000", "173321.031000", "173321.031000", "173321.046000", "173321.046000", "173321.046000", "173321.046000", "173321.046000", "173340.984000", "173340.984000", "173340.984000", "173341.000000", "173341.000000", "173341.000000", "173341.000000", "173341.000000", "173341.000000", "173341.015000", "173341.015000", "173341.015000", "173341.015000", "173341.015000", "173341.015000", "173341.015000", "173341.031000", "173341.031000", "173341.031000", "173341.031000", "173341.031000", "173341.031000", "173341.031000", "173341.046000", "173341.046000", "173400.984000", "173400.984000", "173400.984000", "173401.000000", "173401.000000", "173401.000000", "173401.000000", "173401.000000", "173401.000000", "173401.000000", "173401.015000", "173401.015000", "173401.015000", "173401.015000", "173401.015000", "173401.015000", "173401.031000", "173401.031000", "173401.031000", "173401.031000", "173401.031000", "173401.031000", "173401.046000", "173401.046000", "173401.046000", "173401.046000", "173420.984000", "173420.984000", "173420.984000", "173421.000000", "173421.000000", "173421.000000", "173421.000000", "173421.000000", "173421.000000", "173421.000000", "173421.015000", "173421.015000", "173421.015000", "173421.015000", "173421.015000", "173421.015000", "173421.015000", "173421.031000", "173421.031000", "173421.031000", "173421.031000", "173421.031000", "173421.031000", "173421.031000", "173421.046000", "173440.984000", "173440.984000", "173440.984000", "173441.000000", "173441.000000", "173441.000000", "173441.000000", "173441.000000", "173441.000000", "173441.015000", "173441.015000", "173441.015000", "173441.015000", "173441.015000", "173441.031000", "173441.031000", "173441.031000", "173441.031000", "173441.031000", "173441.046000", "173441.046000", "173441.046000", "173441.046000", "173441.046000", "173441.046000", "173441.046000", "173500.984000", "173500.984000", "173500.984000", "173501.000000", "173501.000000", "173501.000000", "173501.000000", "173501.000000", "173501.000000", "173501.000000", "173501.015000", "173501.015000", "173501.015000", "173501.015000", "173501.015000", "173501.015000", "173501.031000", "173501.031000", "173501.031000", "173501.031000", "173501.031000", "173501.031000", "173501.031000", "173501.046000", "173501.046000", "173520.984000", "173520.984000", "173520.984000", "173521.000000", "173521.000000", "173521.000000", "173521.000000", "173521.000000", "173521.015000", "173521.015000", "173521.015000", "173521.015000", "173521.031000", "173521.031000", "173521.031000", "173521.031000", "173521.031000", "173521.031000", "173521.031000", "173521.046000", "173521.046000", "173521.046000", "173521.046000", "173521.046000", "173521.046000", "173521.046000", "173540.984000", "173540.984000", "173540.984000", "173541.000000", "173541.000000", "173541.000000", "173541.000000", "173541.000000", "173541.000000", "173541.015000", "173541.015000", "173541.015000", "173541.015000", "173541.015000", "173541.015000", "173541.015000", "173541.031000", "173541.031000", "173541.031000", "173541.031000", "173541.031000", "173541.046000", "173541.046000", "173541.046000", "173541.046000", "173600.984000", "173600.984000", "173601.000000", "173601.000000", "173601.000000", "173601.000000", "173601.000000", "173601.000000", "173601.000000", "173601.015000", "173601.015000", "173601.015000", "173601.015000", "173601.015000", "173601.015000", "173601.015000", "173601.031000", "173601.031000", "173601.031000", "173601.031000", "173601.031000", "173601.031000", "173601.046000", "173601.046000", "173601.046000", "173601.046000", "173620.984000", "173620.984000", "173620.984000", "173621.000000", "173621.000000", "173621.000000", "173621.000000", "173621.000000", "173621.000000", "173621.000000", "173621.015000", "173621.015000", "173621.015000", "173621.015000", "173621.015000", "173621.015000", "173621.031000", "173621.031000", "173621.031000", "173621.031000", "173621.031000", "173621.031000", "173621.031000", "173621.046000", "173621.046000", "173640.984000", "173640.984000", "173640.984000", "173641.000000", "173641.000000", "173641.000000", "173641.000000", "173641.000000", "173641.000000", "173641.015000", "173641.015000", "173641.015000", "173641.015000", "173641.015000", "173641.015000", "173641.015000", "173641.031000", "173641.031000", "173641.031000", "173641.031000", "173641.031000", "173641.031000", "173641.031000", "173641.046000", "173641.046000", "173641.046000", "173700.984000", "173700.984000", "173700.984000", "173701.000000", "173701.000000", "173701.000000", "173701.000000", "173701.000000", "173701.000000", "173701.015000", "173701.015000", "173701.015000", "173701.015000", "173701.015000", "173701.015000", "173701.015000", "173701.031000", "173701.031000", "173701.031000", "173701.031000", "173701.031000", "173701.031000", "173701.031000", "173701.046000", "173701.046000", "173720.984000", "173721.000000", "173721.000000", "173721.000000", "173721.000000", "173721.000000", "173721.000000", "173721.015000", "173721.015000", "173721.015000", "173721.015000", "173721.015000", "173721.015000", "173721.015000", "173721.031000", "173721.031000", "173721.031000", "173721.031000", "173721.031000", "173721.031000", "173721.031000", "173721.046000", "173721.046000", "173721.046000", "173721.046000", "173740.984000", "173740.984000", "173740.984000", "173741.000000", "173741.000000", "173741.000000", "173741.000000", "173741.000000", "173741.000000", "173741.015000", "173741.015000", "173741.015000", "173741.015000", "173741.015000", "173741.015000", "173741.015000", "173741.031000", "173741.031000", "173741.031000", "173741.031000", "173741.031000", "173741.031000", "173741.031000", "173741.046000", "173741.046000", "173741.046000", "173800.984000", "173800.984000", "173800.984000", "173801.000000", "173801.000000", "173801.000000", "173801.000000", "173801.015000", "173801.015000", "173801.015000", "173801.015000", "173801.015000", "173801.031000", "173801.031000", "173801.031000", "173801.031000", "173801.031000", "173801.046000", "173801.046000", "173801.046000", "173801.046000", "173801.046000", "173801.046000", "173801.046000", "173801.062000", "173804.968000", "173804.968000", "173804.984000", "173804.984000", "173804.984000", "173804.984000"],
      "DataSetTrailingPadding": [
