{
  "AcquisitionMatrixPE": 104,
  "AcquisitionNumber": 1,
  "AcquisitionTime": "16:49:29.707500",
  "BandwidthPerPixelPhaseEncode": 13.935,
  "BaseResolution": 104,
  "CoilString": "C:HEA;HEP",
  "ConversionSoftware": "dcm2niix",
  "ConversionSoftwareVersion": "v1.0.20210317",
  "DerivedVendorReportedEchoSpacing": 0.000690017,
  "DeviceSerialNumber": "35450",
  "DwellTime": 2.5e-06,
  "EchoTime": 0.0348,
  "EffectiveEchoSpacing": 0.000690017,
  "FlipAngle": 55,
  "ImageComments": "Unaliased MB8/PE3 (remote)",
  "ImageOrientationPatientDICOM": [0.999986, 0.000501827, 0.00521186, 1.72622e-08, 0.995396, -0.0958458],
  "ImageType": [
    "ORIGINAL",
    "PRIMARY",
    "M",
    "MB",
    "ND",
    "MOSAIC"
],
  "ImagingFrequency": 123.234,
  "InPlanePhaseEncodingDirectionDICOM": "COL",
  "InstitutionAddress": "Univeristy Ave. 197,Newark,North East,US,07102-1814",
  "InstitutionName": "RUBIC",
  "InstitutionalDepartmentName": "Department",
  "MRAcquisitionType": "2D",
  "MagneticFieldStrength": 3,
  "Manufacturer": "Siemens",
  "ManufacturersModelName": "TrioTim",
  "Modality": "MR",
  "MultibandAccelerationFactor": 8,
  "PartialFourier": 0.875,
  "PatientPosition": "HFS",
  "PercentPhaseFOV": 100,
  "PercentSampling": 100,
  "PhaseEncodingDirection": "j-",
  "PhaseEncodingSteps": 91,
  "PhaseResolution": 1,
  "PixelBandwidth": 1923,
  "ProcedureStepDescription": "Cole^Michael",
  "ProtocolName": "cmrr_mbep2d_bold_2mm_MB8_Task_8x",
  "PulseSequenceDetails": "%CustomerSeq%\\cmrr_mbep2d_bold",
  "ReceiveCoilName": "32Ch_Head",
  "ReconMatrixPE": 104,
  "RepetitionTime": 0.785,
  "SAR": 0.114845,
  "ScanOptions": "PFP\\FS",
  "ScanningSequence": "EP",
  "SequenceName": "epfid2d1_104",
  "SequenceVariant": "SK\\SS",
  "SeriesDescription": "cmrr_mbep2d_bold_2mm_MB8_Task_8x",
  "SeriesNumber": 15,
  "ShimSetting": [2106, -357, -7304, 404, 24, -464, 92, 61],
  "SliceThickness": 2,
  "SliceTiming": [0, 0.4375, 0.0875, 0.525, 0.175, 0.6125, 0.2625, 0.7, 0.35, 0, 0.4375, 0.0875, 0.525, 0.175, 0.6125, 0.2625, 0.7, 0.35, 0, 0.4375, 0.0875, 0.525, 0.175, 0.6125, 0.2625, 0.7, 0.35, 0, 0.4375, 0.0875, 0.525, 0.175, 0.6125, 0.2625, 0.7, 0.35, 0, 0.4375, 0.0875, 0.525, 0.175, 0.6125, 0.2625, 0.7, 0.35, 0, 0.4375, 0.0875, 0.525, 0.175, 0.6125, 0.2625, 0.7, 0.35, 0, 0.4375, 0.0875, 0.525, 0.175, 0.6125, 0.2625, 0.7, 0.35, 0, 0.4375, 0.0875, 0.525, 0.175, 0.6125, 0.2625, 0.7, 0.35],
  "SoftwareVersions": "syngo MR B19",
  "SpacingBetweenSlices": 2,
  "StationName": "MRC35450",
  "TaskName": "cpro",
  "TotalReadoutTime": 0.0710717,
  "TxRefAmp": 319.053,
  "dcmmeta_affine": [
    [-1.9999725818634033, 3.4524390457590926e-08, 0.010471921414136887, 102.9488525390625],
    [-0.001003654790110886, 1.9907923936843872, -0.1916888803243637, -82.06574249267578],
    [0.01042371429502964, 0.19169150292873383, 1.99076509475708, -93.67761993408203],
    [0.0, 0.0, 0.0, 1.0]
],
  "dcmmeta_reorient_transform": [
    [0.0, -1.0, 0.0, 103.0],
    [1.0, 0.0, 0.0, 0.0],
    [0.0, 0.0, 1.0, 0.0],
    [0.0, 0.0, 0.0, 1.0]
],
  "dcmmeta_shape": [104, 104, 72, 581],
  "dcmmeta_slice_dim": 2,
  "dcmmeta_version": 0.6,
  "global": {
    "const": {
      "AcquisitionMatrix": [104, 0, 0, 104],
      "AngioFlag": "N",
      "BitsAllocated": 16,
      "BitsStored": 12,
      "Columns": 936,
      "EchoNumbers": 1,
      "EchoTime": 34.8,
      "EchoTrainLength": 1,
      "FlipAngle": 55.0,
      "HighBit": 11,
      "ImageOrientationPatient": [0.99998629226404, 0.00050182740353, 0.00521185698867, 1.7262196e-08, 0.9953961984302, -0.0958457518657],
      "ImagePositionPatient": [-934.93746614449, -951.5730353957, 1.4740040106946],
      "ImageType": [
        "ORIGINAL",
        "PRIMARY",
        "M",
        "MB",
        "ND",
        "MOSAIC"
],
      "ImagedNucleus": "1H",
      "ImagingFrequency": 123.234411,
      "InPlanePhaseEncodingDirection": "COL",
      "MRAcquisitionType": "2D",
      "MagneticFieldStrength": 3.0,
      "Manufacturer": "SIEMENS",
      "ManufacturerModelName": "TrioTim",
      "Modality": "MR",
      "NumberOfAverages": 1.0,
      "NumberOfPhaseEncodingSteps": 91,
      "PercentPhaseFieldOfView": 100.0,
      "PercentSampling": 100.0,
      "PerformedProcedureStepStartTime": "153153.734000",
      "PhotometricInterpretation": "MONOCHROME2",
      "PixelBandwidth": 1923.0,
      "PixelRepresentation": 0,
      "PixelSpacing": [2.0, 2.0],
      "ProtocolName": "cmrr_mbep2d_bold_2mm_MB8_Task_8x",
      "RepetitionTime": 785.0,
      "Rows": 936,
      "SAR": 0.11484491269478,
      "SamplesPerPixel": 1,
      "ScanOptions": [
        "PFP",
        "FS"
],
      "ScanningSequence": "EP",
      "SequenceName": "epfid2d1_104",
      "SequenceVariant": [
        "SK",
        "SS"
],
      "SeriesDescription": "cmrr_mbep2d_bold_2mm_MB8_Task_8x",
      "SeriesNumber": 15,
      "SeriesTime": "165000.531000",
      "SliceLocation": -84.840489247761,
      "SliceThickness": 2.0,
      "SmallestImagePixelValue": 0,
      "SoftwareVersions": "syngo MR B19",
      "SpacingBetweenSlices": 1.9999999949627,
      "SpecificCharacterSet": "ISO_IR 100",
      "StudyID": "1",
      "StudyTime": "153153.687000",
      "TransmitCoilName": "Body",
      "VariableFlipAngleFlag": "N",
      "WindowCenterWidthExplanation": "Algo1",
      "dBdt": 0.0},
    "slices": {}
  },
  "time": {
    "samples": {
      "AcquisitionNumber": [1, 2, 3, 4, 5, 6, 7, 8, 9, 10, 11, 12, 13, 14, 15, 16, 17, 18, 19, 20, 21, 22, 23, 24, 25, 26, 27, 28, 29, 30, 31, 32, 33, 34, 35, 36, 37, 38, 39, 40, 41, 42, 43, 44, 45, 46, 47, 48, 49, 50, 51, 52, 53, 54, 55, 56, 57, 58, 59, 60, 61, 62, 63, 64, 65, 66, 67, 68, 69, 70, 71, 72, 73, 74, 75, 76, 77, 78, 79, 80, 81, 82, 83, 84, 85, 86, 87, 88, 89, 90, 91, 92, 93, 94, 95, 96, 97, 98, 99, 100, 101, 102, 103, 104, 105, 106, 107, 108, 109, 110, 111, 112, 113, 114, 115, 116, 117, 118, 119, 120, 121, 122, 123, 124, 125, 126, 127, 128, 129, 130, 131, 132, 133, 134, 135, 136, 137, 138, 139, 140, 141, 142, 143, 144, 145, 146, 147, 148, 149, 150, 151, 152, 153, 154, 155, 156, 157, 158, 159, 160, 161, 162, 163, 164, 165, 166, 167, 168, 169, 170, 171, 172, 173, 174, 175, 176, 177, 178, 179, 180, 181, 182, 183, 184, 185, 186, 187, 188, 189, 190, 191, 192, 193, 194, 195, 196, 197, 198, 199, 200, 201, 202, 203, 204, 205, 206, 207, 208, 209, 210, 211, 212, 213, 214, 215, 216, 217, 218, 219, 220, 221, 222, 223, 224, 225, 226, 227, 228, 229, 230, 231, 232, 233, 234, 235, 236, 237, 238, 239, 240, 241, 242, 243, 244, 245, 246, 247, 248, 249, 250, 251, 252, 253, 254, 255, 256, 257, 258, 259, 260, 261, 262, 263, 264, 265, 266, 267, 268, 269, 270, 271, 272, 273, 274, 275, 276, 277, 278, 279, 280, 281, 282, 283, 284, 285, 286, 287, 288, 289, 290, 291, 292, 293, 294, 295, 296, 297, 298, 299, 300, 301, 302, 303, 304, 305, 306, 307, 308, 309, 310, 311, 312, 313, 314, 315, 316, 317, 318, 319, 320, 321, 322, 323, 324, 325, 326, 327, 328, 329, 330, 331, 332, 333, 334, 335, 336, 337, 338, 339, 340, 341, 342, 343, 344, 345, 346, 347, 348, 349, 350, 351, 352, 353, 354, 355, 356, 357, 358, 359, 360, 361, 362, 363, 364, 365, 366, 367, 368, 369, 370, 371, 372, 373, 374, 375, 376, 377, 378, 379, 380, 381, 382, 383, 384, 385, 386, 387, 388, 389, 390, 391, 392, 393, 394, 395, 396, 397, 398, 399, 400, 401, 402, 403, 404, 405, 406, 407, 408, 409, 410, 411, 412, 413, 414, 415, 416, 417, 418, 419, 420, 421, 422, 423, 424, 425, 426, 427, 428, 429, 430, 431, 432, 433, 434, 435, 436, 437, 438, 439, 440, 441, 442, 443, 444, 445, 446, 447, 448, 449, 450, 451, 452, 453, 454, 455, 456, 457, 458, 459, 460, 461, 462, 463, 464, 465, 466, 467, 468, 469, 470, 471, 472, 473, 474, 475, 476, 477, 478, 479, 480, 481, 482, 483, 484, 485, 486, 487, 488, 489, 490, 491, 492, 493, 494, 495, 496, 497, 498, 499, 500, 501, 502, 503, 504, 505, 506, 507, 508, 509, 510, 511, 512, 513, 514, 515, 516, 517, 518, 519, 520, 521, 522, 523, 524, 525, 526, 527, 528, 529, 530, 531, 532, 533, 534, 535, 536, 537, 538, 539, 540, 541, 542, 543, 544, 545, 546, 547, 548, 549, 550, 551, 552, 553, 554, 555, 556, 557, 558, 559, 560, 561, 562, 563, 564, 565, 566, 567, 568, 569, 570, 571, 572, 573, 574, 575, 576, 577, 578, 579, 580, 581],
      "AcquisitionTime": ["164929.707500", "164930.497500", "164931.285000", "164932.072500", "164932.860000", "164933.650000", "164934.437500", "164935.225000", "164936.012500", "164936.802500", "164937.590000", "164938.377500", "164939.165000", "164939.955000", "164940.742500", "164941.530000", "164942.317500", "164943.107500", "164943.895000", "164944.682500", "164945.470000", "164946.260000", "164947.047500", "164947.835000", "164948.625000", "164949.412500", "164950.200000", "164950.987500", "164951.777500", "164952.565000", "164953.352500", "164954.140000", "164954.930000", "164955.717500", "164956.505000", "164957.292500", "164958.082500", "164958.870000", "164959.657500", "165000.445000", "165001.235000", "165002.022500", "165002.810000", "165003.597500", "165004.387500", "165005.175000", "165005.962500", "165006.752500", "165007.540000", "165008.327500", "165009.115000", "165009.905000", "165010.692500", "165011.480000", "165012.267500", "165013.057500", "165013.845000", "165014.632500", "165015.420000", "165016.210000", "165016.997500", "165017.785000", "165018.572500", "165019.362500", "165020.150000", "165020.937500", "165021.725000", "165022.515000", "165023.302500", "165024.090000", "165024.880000", "165025.667500", "165026.455000", "165027.242500", "165028.032500", "165028.820000", "165029.607500", "165030.395000", "165031.185000", "165031.972500", "165032.760000", "165033.547500", "165034.337500", "165035.125000", "165035.912500", "165036.700000", "165037.490000", "165038.277500", "165039.065000", "165039.852500", "165040.642500", "165041.430000", "165042.217500", "165043.007500", "165043.795000", "165044.582500", "165045.370000", "165046.160000", "165046.947500", "165047.735000", "165048.522500", "165049.312500", "165050.100000", "165050.887500", "165051.675000", "165052.465000", "165053.252500", "165054.040000", "165054.827500", "165055.617500", "165056.405000", "165057.192500", "165057.980000", "165058.770000", "165059.557500", "165100.345000", "165101.135000", "165101.922500", "165102.710000", "165103.497500", "165104.287500", "165105.075000", "165105.862500", "165106.650000", "165107.440000", "165108.227500", "165109.015000", "165109.802500", "165110.592500", "165111.380000", "165112.167500", "165112.955000", "165113.745000", "165114.532500", "165115.320000", "165116.107500", "165116.897500", "165117.685000", "165118.472500", "165119.262500", "165120.050000", "165120.837500", "165121.625000", "165122.415000", "165123.202500", "165123.990000", "165124.777500", "165125.567500", "165126.355000", "165127.142500", "165127.930000", "165128.720000", "165129.507500", "165130.295000", "165131.082500", "165131.872500", "165132.660000", "165133.447500", "165134.235000", "165135.025000", "165135.812500", "165136.600000", "165137.390000", "165138.177500", "165138.965000", "165139.752500", "165140.542500", "165141.330000", "165142.117500", "165142.905000", "165143.695000", "165144.482500", "165145.270000", "165146.057500", "165146.847500", "165147.635000", "165148.422500", "165149.210000", "165150.000000", "165150.787500", "165151.575000", "165152.362500", "165153.152500", "165153.940000", "165154.727500", "165155.517500", "165156.305000", "165157.092500", "165157.880000", "165158.670000", "165159.457500", "165200.245000", "165201.032500", "165201.822500", "165202.610000", "165203.397500", "165204.185000", "165204.975000", "165205.762500", "165206.550000", "165207.337500", "165208.127500", "165208.915000", "165209.702500", "165210.492500", "165211.280000", "165212.067500", "165212.855000", "165213.645000", "165214.432500", "165215.220000", "165216.007500", "165216.797500", "165217.585000", "165218.372500", "165219.160000", "165219.950000", "165220.737500", "165221.525000", "165222.312500", "165223.102500", "165223.890000", "165224.677500", "165225.465000", "165226.255000", "165227.042500", "165227.830000", "165228.620000", "165229.407500", "165230.195000", "165230.982500", "165231.772500", "165232.560000", "165233.347500", "165234.135000", "165234.925000", "165235.712500", "165236.500000", "165237.287500", "165238.077500", "165238.865000", "165239.652500", "165240.440000", "165241.230000", "165242.017500", "165242.805000", "165243.592500", "165244.382500", "165245.170000", "165245.957500", "165246.747500", "165247.535000", "165248.322500", "165249.110000", "165249.900000", "165250.687500", "165251.475000", "165252.262500", "165253.052500", "165253.840000", "165254.627500", "165255.415000", "165256.205000", "165256.992500", "165257.780000", "165258.567500", "165259.357500", "165300.145000", "165300.932500", "165301.720000", "165302.510000", "165303.297500", "165304.085000", "165304.875000", "165305.662500", "165306.450000", "165307.237500", "165308.027500", "165308.815000", "165309.602500", "165310.390000", "165311.180000", "165311.967500", "165312.755000", "165313.542500", "165314.332500", "165315.120000", "165315.907500", "165316.695000", "165317.485000", "165318.272500", "165319.060000", "165319.847500", "165320.637500", "165321.425000", "165322.212500", "165323.002500", "165323.790000", "165324.577500", "165325.365000", "165326.155000", "165326.942500", "165327.730000", "165328.517500", "165329.307500", "165330.095000", "165330.882500", "165331.670000", "165332.460000", "165333.247500", "165334.035000", "165334.822500", "165335.612500", "165336.400000", "165337.187500", "165337.975000", "165338.765000", "165339.552500", "165340.340000", "165341.130000", "165341.917500", "165342.705000", "165343.492500", "165344.282500", "165345.070000", "165345.857500", "165346.645000", "165347.435000", "165348.222500", "165349.010000", "165349.797500", "165350.587500", "165351.375000", "165352.162500", "165352.950000", "165353.740000", "165354.527500", "165355.315000", "165356.102500", "165356.892500", "165357.680000", "165358.467500", "165359.257500", "165400.045000", "165400.832500", "165401.620000", "165402.410000", "165403.197500", "165403.985000", "165404.772500", "165405.562500", "165406.350000", "165407.137500", "165407.925000", "165408.715000", "165409.502500", "165410.290000", "165411.077500", "165411.867500", "165412.655000", "165413.442500", "165414.230000", "165415.020000", "165415.807500", "165416.595000", "165417.385000", "165418.172500", "165418.960000", "165419.747500", "165420.537500", "165421.325000", "165422.112500", "165422.900000", "165423.690000", "165424.477500", "165425.265000", "165426.052500", "165426.842500", "165427.630000", "165428.417500", "165429.205000", "165429.995000", "165430.782500", "165431.570000", "165432.357500", "165433.147500", "165433.935000", "165434.722500", "165435.512500", "165436.300000", "165437.087500", "165437.875000", "165438.665000", "165439.452500", "165440.240000", "165441.027500", "165441.817500", "165442.605000", "165443.392500", "165444.180000", "165444.970000", "165445.757500", "165446.545000", "165447.332500", "165448.122500", "165448.910000", "165449.697500", "165450.485000", "165451.275000", "165452.062500", "165452.850000", "165453.640000", "165454.427500", "165455.215000", "165456.002500", "165456.792500", "165457.580000", "165458.367500", "165459.155000", "165459.945000", "165500.732500", "165501.520000", "165502.307500", "165503.097500", "165503.885000", "165504.672500", "165505.460000", "165506.250000", "165507.037500", "165507.825000", "165508.612500", "165509.402500", "165510.190000", "165510.977500", "165511.767500", "165512.555000", "165513.342500", "165514.130000", "165514.920000", "165515.707500", "165516.495000", "165517.282500", "165518.072500", "165518.860000", "165519.647500", "165520.435000", "165521.225000", "165522.012500", "165522.800000", "165523.587500", "165524.377500", "165525.165000", "165525.952500", "165526.742500", "165527.530000", "165528.317500", "165529.105000", "165529.895000", "165530.682500", "165531.470000", "165532.257500", "165533.047500", "165533.835000", "165534.622500", "165535.410000", "165536.200000", "165536.987500", "165537.775000", "165538.562500", "165539.352500", "165540.140000", "165540.927500", "165541.715000", "165542.505000", "165543.292500", "165544.080000", "165544.870000", "165545.657500", "165546.445000", "165547.232500", "165548.022500", "165548.810000", "165549.597500", "165550.385000", "165551.175000", "165551.962500", "165552.750000", "165553.537500", "165554.327500", "165555.115000", "165555.902500", "165556.690000", "165557.480000", "165558.267500", "165559.055000", "165559.842500", "165600.632500", "165601.420000", "165602.207500", "165602.997500", "165603.785000", "165604.572500", "165605.360000", "165606.150000", "165606.937500", "165607.725000", "165608.512500", "165609.302500", "165610.090000", "165610.877500", "165611.665000", "165612.455000", "165613.242500", "165614.030000", "165614.817500", "165615.607500", "165616.395000", "165617.182500", "165617.970000", "165618.760000", "165619.547500", "165620.335000", "165621.125000", "165621.912500", "165622.700000", "165623.487500", "165624.277500", "165625.065000", "165625.852500", "165626.640000", "165627.430000", "165628.217500", "165629.005000", "165629.792500", "165630.582500", "165631.370000", "165632.157500", "165632.945000", "165633.735000", "165634.522500", "165635.310000", "165636.097500", "165636.887500", "165637.675000", "165638.462500", "165639.252500", "165640.040000", "165640.827500", "165641.615000", "165642.405000", "165643.192500", "165643.980000", "165644.767500", "165645.557500", "165646.345000", "165647.132500", "165647.920000", "165648.710000", "165649.497500", "165650.285000", "165651.072500", "165651.862500", "165652.650000", "165653.437500", "165654.225000", "165655.015000", "165655.802500", "165656.590000", "165657.380000", "165658.167500", "165658.955000", "165659.742500", "165700.532500", "165701.320000", "165702.107500", "165702.895000", "165703.685000", "165704.472500", "165705.260000", "165706.047500", "165706.837500"],
      "ContentTime": ["165000.546000", "165000.546000", "165000.546000", "165000.546000", "165000.546000", "165000.546000", "165000.546000", "165000.562000", "165000.562000", "165000.562000", "165000.562000", "165000.562000", "165000.562000", "165000.562000", "165000.578000", "165000.578000", "165000.578000", "165000.578000", "165000.578000", "165000.593000", "165000.593000", "165000.593000", "165000.593000", "165000.593000", "165000.609000", "165000.609000", "165000.609000", "165000.609000", "165000.609000", "165000.609000", "165000.609000", "165000.625000", "165000.625000", "165000.625000", "165000.625000", "165000.625000", "165020.515000", "165020.515000", "165020.515000", "165020.531000", "165020.531000", "165020.531000", "165020.531000", "165020.531000", "165020.531000", "165020.531000", "165020.546000", "165020.546000", "165020.546000", "165020.546000", "165020.546000", "165020.546000", "165020.562000", "165020.562000", "165020.562000", "165020.562000", "165020.562000", "165020.562000", "165020.562000", "165020.578000", "165020.578000", "165020.578000", "165040.515000", "165040.515000", "165040.515000", "165040.531000", "165040.531000", "165040.531000", "165040.531000", "165040.531000", "165040.531000", "165040.546000", "165040.546000", "165040.546000", "165040.546000", "165040.546000", "165040.546000", "165040.546000", "165040.562000", "165040.562000", "165040.562000", "165040.562000", "165040.562000", "165040.562000", "165040.578000", "165040.578000", "165040.578000", "165100.515000", "165100.515000", "165100.531000", "165100.531000", "165100.531000", "165100.531000", "165100.531000", "165100.531000", "165100.531000", "165100.546000", "165100.546000", "165100.546000", "165100.546000", "165100.562000", "165100.562000", "165100.562000", "165100.562000", "165100.562000", "165100.562000", "165100.578000", "165100.578000", "165100.578000", "165100.578000", "165100.578000", "165100.578000", "165120.515000", "165120.515000", "165120.515000", "165120.531000", "165120.531000", "165120.531000", "165120.531000", "165120.531000", "165120.531000", "165120.546000", "165120.546000", "165120.546000", "165120.546000", "165120.546000", "165120.546000", "165120.546000", "165120.562000", "165120.562000", "165120.562000", "165120.562000", "165120.562000", "165120.562000", "165120.562000", "165120.578000", "165120.578000", "165120.578000", "165140.515000", "165140.515000", "165140.531000", "165140.531000", "165140.531000", "165140.531000", "165140.531000", "165140.531000", "165140.531000", "165140.546000", "165140.546000", "165140.546000", "165140.546000", "165140.546000", "165140.546000", "165140.546000", "165140.562000", "165140.562000", "165140.562000", "165140.562000", "165140.562000", "165140.578000", "165140.578000", "165140.578000", "165140.578000", "165200.515000", "165200.515000", "165200.515000", "165200.531000", "165200.531000", "165200.531000", "165200.531000", "165200.531000", "165200.531000", "165200.546000", "165200.546000", "165200.546000", "165200.546000", "165200.546000", "165200.546000", "165200.562000", "165200.562000", "165200.562000", "165200.562000", "165200.562000", "165200.562000", "165200.562000", "165200.578000", "165200.578000", "165200.578000", "165200.578000", "165220.515000", "165220.515000", "165220.515000", "165220.531000", "165220.531000", "165220.531000", "165220.531000", "165220.531000", "165220.531000", "165220.546000", "165220.546000", "165220.546000", "165220.546000", "165220.546000", "165220.546000", "165220.546000", "165220.562000", "165220.562000", "165220.562000", "165220.562000", "165220.562000", "165220.562000", "165220.578000", "165220.578000", "165220.578000", "165240.515000", "165240.515000", "165240.515000", "165240.531000", "165240.531000", "165240.531000", "165240.531000", "165240.531000", "165240.531000", "165240.531000", "165240.546000", "165240.546000", "165240.546000", "165240.546000", "165240.546000", "165240.546000", "165240.562000", "165240.562000", "165240.562000", "165240.562000", "165240.562000", "165240.562000", "165240.562000", "165240.578000", "165240.578000", "165240.578000", "165300.515000", "165300.515000", "165300.515000", "165300.531000", "165300.531000", "165300.531000", "165300.531000", "165300.531000", "165300.531000", "165300.531000", "165300.546000", "165300.546000", "165300.546000", "165300.546000", "165300.546000", "165300.546000", "165300.546000", "165300.562000", "165300.562000", "165300.562000", "165300.562000", "165300.562000", "165300.562000", "165300.578000", "165300.578000", "165320.515000", "165320.515000", "165320.515000", "165320.531000", "165320.531000", "165320.531000", "165320.531000", "165320.531000", "165320.531000", "165320.531000", "165320.546000", "165320.546000", "165320.546000", "165320.546000", "165320.546000", "165320.546000", "165320.562000", "165320.562000", "165320.562000", "165320.562000", "165320.562000", "165320.562000", "165320.562000", "165320.578000", "165320.578000", "165320.578000", "165340.515000", "165340.515000", "165340.515000", "165340.531000", "165340.531000", "165340.531000", "165340.531000", "165340.531000", "165340.531000", "165340.531000", "165340.546000", "165340.546000", "165340.546000", "165340.546000", "165340.546000", "165340.562000", "165340.562000", "165340.562000", "165340.562000", "165340.562000", "165340.562000", "165340.578000", "165340.578000", "165340.578000", "165340.578000", "165400.515000", "165400.515000", "165400.515000", "165400.531000", "165400.531000", "165400.531000", "165400.531000", "165400.531000", "165400.531000", "165400.546000", "165400.546000", "165400.546000", "165400.546000", "165400.546000", "165400.546000", "165400.546000", "165400.562000", "165400.562000", "165400.562000", "165400.562000", "165400.562000", "165400.562000", "165400.562000", "165400.578000", "165400.578000", "165400.578000", "165420.515000", "165420.515000", "165420.515000", "165420.531000", "165420.531000", "165420.531000", "165420.531000", "165420.531000", "165420.531000", "165420.546000", "165420.546000", "165420.546000", "165420.546000", "165420.546000", "165420.546000", "165420.546000", "165420.562000", "165420.562000", "165420.562000", "165420.562000", "165420.562000", "165420.562000", "165420.562000", "165420.578000", "165420.578000", "165440.515000", "165440.515000", "165440.515000", "165440.531000", "165440.531000", "165440.531000", "165440.531000", "165440.531000", "165440.531000", "165440.531000", "165440.546000", "165440.546000", "165440.546000", "165440.546000", "165440.546000", "165440.546000", "165440.562000", "165440.562000", "165440.562000", "165440.562000", "165440.562000", "165440.562000", "165440.562000", "165440.578000", "165440.578000", "165440.578000", "165500.515000", "165500.515000", "165500.515000", "165500.531000", "165500.531000", "165500.531000", "165500.531000", "165500.531000", "165500.531000", "165500.546000", "165500.546000", "165500.546000", "165500.546000", "165500.546000", "165500.546000", "165500.546000", "165500.562000", "165500.562000", "165500.562000", "165500.562000", "165500.562000", "165500.562000", "165500.562000", "165500.578000", "165500.578000", "165520.515000", "165520.515000", "165520.515000", "165520.531000", "165520.531000", "165520.531000", "165520.531000", "165520.531000", "165520.531000", "165520.531000", "165520.546000", "165520.546000", "165520.546000", "165520.546000", "165520.546000", "165520.546000", "165520.562000", "165520.562000", "165520.562000", "165520.562000", "165520.562000", "165520.562000", "165520.562000", "165520.578000", "165520.578000", "165520.578000", "165540.515000", "165540.515000", "165540.515000", "165540.531000", "165540.531000", "165540.531000", "165540.531000", "165540.531000", "165540.531000", "165540.546000", "165540.546000", "165540.546000", "165540.546000", "165540.546000", "165540.546000", "165540.546000", "165540.562000", "165540.562000", "165540.562000", "165540.562000", "165540.562000", "165540.562000", "165540.562000", "165540.578000", "165540.578000", "165600.515000", "165600.515000", "165600.531000", "165600.531000", "165600.531000", "165600.531000", "165600.531000", "165600.531000", "165600.531000", "165600.546000", "165600.546000", "165600.546000", "165600.546000", "165600.546000", "165600.546000", "165600.546000", "165600.562000", "165600.562000", "165600.562000", "165600.562000", "165600.562000", "165600.562000", "165600.562000", "165600.578000", "165600.578000", "165600.578000", "165620.515000", "165620.515000", "165620.515000", "165620.531000", "165620.531000", "165620.531000", "165620.531000", "165620.531000", "165620.531000", "165620.546000", "165620.546000", "165620.546000", "165620.546000", "165620.546000", "165620.546000", "165620.546000", "165620.562000", "165620.562000", "165620.562000", "165620.562000", "165620.562000", "165620.562000", "165620.562000", "165620.578000", "165620.578000", "165640.515000", "165640.515000", "165640.515000", "165640.531000", "165640.531000", "165640.531000", "165640.531000", "165640.531000", "165640.531000", "165640.546000", "165640.546000", "165640.546000", "165640.546000", "165640.546000", "165640.546000", "165640.546000", "165640.562000", "165640.562000", "165640.562000", "165640.562000", "165640.562000", "165640.562000", "165640.562000", "165640.578000", "165640.578000", "165640.578000", "165700.515000", "165700.515000", "165700.515000", "165700.531000", "165700.531000", "165700.531000", "165700.531000", "165700.531000", "165700.531000", "165700.546000", "165700.546000", "165700.546000", "165700.546000", "165700.546000", "165700.562000", "165700.562000", "165700.562000", "165700.562000", "165700.562000", "165700.562000", "165700.578000", "165700.578000", "165700.578000", "165700.578000", "165700.578000", "165708.015000", "165708.031000", "165708.031000", "165708.031000", "165708.031000", "165708.031000", "165708.031000", "165708.046000", "165708.046000", "165708.046000"],
      "DataSetTrailingPadding": [
