{
  "AcquisitionMatrixPE": 104,
  "AcquisitionNumber": 1,
  "AcquisitionTime": "12:03:17.765000",
  "BandwidthPerPixelPhaseEncode": 13.935,
  "BaseResolution": 104,
  "CoilString": "C:HEA;HEP",
  "ConversionSoftware": "dcm2niix",
  "ConversionSoftwareVersion": "v1.0.20210317",
  "DerivedVendorReportedEchoSpacing": 0.000690017,
  "DeviceSerialNumber": "35450",
  "DwellTime": 2.5e-06,
  "EchoTime": 0.0348,
  "EffectiveEchoSpacing": 0.000690017,
  "FlipAngle": 55,
  "ImageComments": "Unaliased MB8/PE3 (remote)",
  "ImageOrientationPatientDICOM": [0.999323, 0.00314123, 0.0366549, -2.58362e-08, 0.996348, -0.0853837],
  "ImageType": [
    "ORIGINAL",
    "PRIMARY",
    "M",
    "MB",
    "ND",
    "MOSAIC"
],
  "ImagingFrequency": 123.235,
  "InPlanePhaseEncodingDirectionDICOM": "COL",
  "InstitutionAddress": "Univeristy Ave. 197,Newark,North East,US,07102-1814",
  "InstitutionName": "RUBIC",
  "InstitutionalDepartmentName": "Department",
  "MRAcquisitionType": "2D",
  "MagneticFieldStrength": 3,
  "Manufacturer": "Siemens",
  "ManufacturersModelName": "TrioTim",
  "Modality": "MR",
  "MultibandAccelerationFactor": 8,
  "PartialFourier": 0.875,
  "PatientPosition": "HFS",
  "PercentPhaseFOV": 100,
  "PercentSampling": 100,
  "PhaseEncodingDirection": "j-",
  "PhaseEncodingSteps": 91,
  "PhaseResolution": 1,
  "PixelBandwidth": 1923,
  "ProcedureStepDescription": "Cole^Michael",
  "ProtocolName": "cmrr_mbep2d_bold_2mm_MB8_Task_8x",
  "PulseSequenceDetails": "%CustomerSeq%\\cmrr_mbep2d_bold",
  "ReceiveCoilName": "32Ch_Head",
  "ReconMatrixPE": 104,
  "RepetitionTime": 0.785,
  "SAR": 0.135972,
  "ScanOptions": "PFP\\FS",
  "ScanningSequence": "EP",
  "SequenceName": "epfid2d1_104",
  "SequenceVariant": "SK\\SS",
  "SeriesDescription": "cmrr_mbep2d_bold_2mm_MB8_Task_8x",
  "SeriesNumber": 23,
  "ShimSetting": [2139, -478, -7711, 36, 460, -226, -579, -54],
  "SliceThickness": 2,
  "SliceTiming": [0, 0.4375, 0.0875, 0.525, 0.175, 0.6125, 0.2625, 0.7, 0.35, 0, 0.4375, 0.0875, 0.525, 0.175, 0.6125, 0.2625, 0.7, 0.35, 0, 0.4375, 0.0875, 0.525, 0.175, 0.6125, 0.2625, 0.7, 0.35, 0, 0.4375, 0.0875, 0.525, 0.175, 0.6125, 0.2625, 0.7, 0.35, 0, 0.4375, 0.0875, 0.525, 0.175, 0.6125, 0.2625, 0.7, 0.35, 0, 0.4375, 0.0875, 0.525, 0.175, 0.6125, 0.2625, 0.7, 0.35, 0, 0.4375, 0.0875, 0.525, 0.175, 0.6125, 0.2625, 0.7, 0.35, 0, 0.4375, 0.0875, 0.525, 0.175, 0.6125, 0.2625, 0.7, 0.35],
  "SoftwareVersions": "syngo MR B19",
  "SpacingBetweenSlices": 2,
  "StationName": "MRC35450",
  "TaskName": "cpro",
  "TotalReadoutTime": 0.0710717,
  "TxRefAmp": 336.567,
  "dcmmeta_affine": [
    [-1.9986461400985718, -5.167246541759596e-08, 0.07357855886220932, 102.00381469726562],
    [-0.00628246134147048, 1.9926962852478027, -0.17065182328224182, -85.33047485351562],
    [0.07330985367298126, 0.1707674264907837, 1.991347312927246, -107.18875885009766],
    [0.0, 0.0, 0.0, 1.0]
],
  "dcmmeta_reorient_transform": [
    [0.0, -1.0, 0.0, 103.0],
    [1.0, 0.0, 0.0, 0.0],
    [0.0, 0.0, 1.0, 0.0],
    [0.0, 0.0, 0.0, 1.0]
],
  "dcmmeta_shape": [104, 104, 72, 581],
  "dcmmeta_slice_dim": 2,
  "dcmmeta_version": 0.6,
  "global": {
    "const": {
      "AcquisitionMatrix": [104, 0, 0, 104],
      "AngioFlag": "N",
      "BitsAllocated": 16,
      "BitsStored": 12,
      "Columns": 936,
      "EchoNumbers": 1,
      "EchoTime": 34.8,
      "EchoTrainLength": 1,
      "FlipAngle": 55.0,
      "HighBit": 11,
      "ImageOrientationPatient": [0.99932304540335, 0.003141230777, 0.03665492593061, -2.5836233e-08, 0.9963481428482, -0.0853837118129],
      "ImagePositionPatient": [-933.44056506482, -951.49240111767, -49.057367400535],
      "ImageType": [
        "ORIGINAL",
        "PRIMARY",
        "M",
        "MB",
        "ND",
        "MOSAIC"
],
      "ImagedNucleus": "1H",
      "ImagingFrequency": 123.234717,
      "InPlanePhaseEncodingDirection": "COL",
      "MRAcquisitionType": "2D",
      "MagneticFieldStrength": 3.0,
      "Manufacturer": "SIEMENS",
      "ManufacturerModelName": "TrioTim",
      "Modality": "MR",
      "NumberOfAverages": 1.0,
      "NumberOfPhaseEncodingSteps": 91,
      "PercentPhaseFieldOfView": 100.0,
      "PercentSampling": 100.0,
      "PerformedProcedureStepStartTime": "101411.546000",
      "PhotometricInterpretation": "MONOCHROME2",
      "PixelBandwidth": 1923.0,
      "PixelRepresentation": 0,
      "PixelSpacing": [2.0, 2.0],
      "ProtocolName": "cmrr_mbep2d_bold_2mm_MB8_Task_8x",
      "RepetitionTime": 785.0,
      "Rows": 936,
      "SAR": 0.13597159243223,
      "SamplesPerPixel": 1,
      "ScanOptions": [
        "PFP",
        "FS"
],
      "ScanningSequence": "EP",
      "SequenceName": "epfid2d1_104",
      "SequenceVariant": [
        "SK",
        "SS"
],
      "SeriesDescription": "cmrr_mbep2d_bold_2mm_MB8_Task_8x",
      "SeriesNumber": 23,
      "SeriesTime": "120339.421000",
      "SliceLocation": -95.691479717022,
      "SliceThickness": 2.0,
      "SmallestImagePixelValue": 0,
      "SoftwareVersions": "syngo MR B19",
      "SpacingBetweenSlices": 2.0000000317834,
      "SpecificCharacterSet": "ISO_IR 100",
      "StudyID": "1",
      "StudyTime": "101411.484000",
      "TransmitCoilName": "Body",
      "VariableFlipAngleFlag": "N",
      "WindowCenterWidthExplanation": "Algo1",
      "dBdt": 0.0},
    "slices": {}
  },
  "time": {
    "samples": {
      "AcquisitionNumber": [1, 2, 3, 4, 5, 6, 7, 8, 9, 10, 11, 12, 13, 14, 15, 16, 17, 18, 19, 20, 21, 22, 23, 24, 25, 26, 27, 28, 29, 30, 31, 32, 33, 34, 35, 36, 37, 38, 39, 40, 41, 42, 43, 44, 45, 46, 47, 48, 49, 50, 51, 52, 53, 54, 55, 56, 57, 58, 59, 60, 61, 62, 63, 64, 65, 66, 67, 68, 69, 70, 71, 72, 73, 74, 75, 76, 77, 78, 79, 80, 81, 82, 83, 84, 85, 86, 87, 88, 89, 90, 91, 92, 93, 94, 95, 96, 97, 98, 99, 100, 101, 102, 103, 104, 105, 106, 107, 108, 109, 110, 111, 112, 113, 114, 115, 116, 117, 118, 119, 120, 121, 122, 123, 124, 125, 126, 127, 128, 129, 130, 131, 132, 133, 134, 135, 136, 137, 138, 139, 140, 141, 142, 143, 144, 145, 146, 147, 148, 149, 150, 151, 152, 153, 154, 155, 156, 157, 158, 159, 160, 161, 162, 163, 164, 165, 166, 167, 168, 169, 170, 171, 172, 173, 174, 175, 176, 177, 178, 179, 180, 181, 182, 183, 184, 185, 186, 187, 188, 189, 190, 191, 192, 193, 194, 195, 196, 197, 198, 199, 200, 201, 202, 203, 204, 205, 206, 207, 208, 209, 210, 211, 212, 213, 214, 215, 216, 217, 218, 219, 220, 221, 222, 223, 224, 225, 226, 227, 228, 229, 230, 231, 232, 233, 234, 235, 236, 237, 238, 239, 240, 241, 242, 243, 244, 245, 246, 247, 248, 249, 250, 251, 252, 253, 254, 255, 256, 257, 258, 259, 260, 261, 262, 263, 264, 265, 266, 267, 268, 269, 270, 271, 272, 273, 274, 275, 276, 277, 278, 279, 280, 281, 282, 283, 284, 285, 286, 287, 288, 289, 290, 291, 292, 293, 294, 295, 296, 297, 298, 299, 300, 301, 302, 303, 304, 305, 306, 307, 308, 309, 310, 311, 312, 313, 314, 315, 316, 317, 318, 319, 320, 321, 322, 323, 324, 325, 326, 327, 328, 329, 330, 331, 332, 333, 334, 335, 336, 337, 338, 339, 340, 341, 342, 343, 344, 345, 346, 347, 348, 349, 350, 351, 352, 353, 354, 355, 356, 357, 358, 359, 360, 361, 362, 363, 364, 365, 366, 367, 368, 369, 370, 371, 372, 373, 374, 375, 376, 377, 378, 379, 380, 381, 382, 383, 384, 385, 386, 387, 388, 389, 390, 391, 392, 393, 394, 395, 396, 397, 398, 399, 400, 401, 402, 403, 404, 405, 406, 407, 408, 409, 410, 411, 412, 413, 414, 415, 416, 417, 418, 419, 420, 421, 422, 423, 424, 425, 426, 427, 428, 429, 430, 431, 432, 433, 434, 435, 436, 437, 438, 439, 440, 441, 442, 443, 444, 445, 446, 447, 448, 449, 450, 451, 452, 453, 454, 455, 456, 457, 458, 459, 460, 461, 462, 463, 464, 465, 466, 467, 468, 469, 470, 471, 472, 473, 474, 475, 476, 477, 478, 479, 480, 481, 482, 483, 484, 485, 486, 487, 488, 489, 490, 491, 492, 493, 494, 495, 496, 497, 498, 499, 500, 501, 502, 503, 504, 505, 506, 507, 508, 509, 510, 511, 512, 513, 514, 515, 516, 517, 518, 519, 520, 521, 522, 523, 524, 525, 526, 527, 528, 529, 530, 531, 532, 533, 534, 535, 536, 537, 538, 539, 540, 541, 542, 543, 544, 545, 546, 547, 548, 549, 550, 551, 552, 553, 554, 555, 556, 557, 558, 559, 560, 561, 562, 563, 564, 565, 566, 567, 568, 569, 570, 571, 572, 573, 574, 575, 576, 577, 578, 579, 580, 581],
      "AcquisitionTime": ["120317.765000", "120318.552500", "120319.340000", "120320.127500", "120320.917500", "120321.705000", "120322.492500", "120323.282500", "120324.070000", "120324.857500", "120325.645000", "120326.435000", "120327.222500", "120328.010000", "120328.797500", "120329.587500", "120330.375000", "120331.162500", "120331.950000", "120332.740000", "120333.527500", "120334.315000", "120335.102500", "120335.892500", "120336.680000", "120337.467500", "120338.255000", "120339.045000", "120339.832500", "120340.620000", "120341.410000", "120342.197500", "120342.985000", "120343.772500", "120344.562500", "120345.350000", "120346.137500", "120346.925000", "120347.715000", "120348.502500", "120349.290000", "120350.077500", "120350.867500", "120351.655000", "120352.442500", "120353.230000", "120354.020000", "120354.807500", "120355.595000", "120356.382500", "120357.172500", "120357.960000", "120358.747500", "120359.537500", "120400.325000", "120401.112500", "120401.900000", "120402.690000", "120403.477500", "120404.265000", "120405.052500", "120405.842500", "120406.630000", "120407.417500", "120408.205000", "120408.995000", "120409.782500", "120410.570000", "120411.357500", "120412.147500", "120412.935000", "120413.722500", "120414.510000", "120415.300000", "120416.087500", "120416.875000", "120417.665000", "120418.452500", "120419.240000", "120420.027500", "120420.817500", "120421.605000", "120422.392500", "120423.180000", "120423.970000", "120424.757500", "120425.545000", "120426.332500", "120427.122500", "120427.910000", "120428.697500", "120429.485000", "120430.275000", "120431.062500", "120431.850000", "120432.637500", "120433.427500", "120434.215000", "120435.002500", "120435.792500", "120436.580000", "120437.367500", "120438.155000", "120438.945000", "120439.732500", "120440.520000", "120441.307500", "120442.097500", "120442.885000", "120443.672500", "120444.460000", "120445.250000", "120446.037500", "120446.825000", "120447.612500", "120448.402500", "120449.190000", "120449.977500", "120450.765000", "120451.555000", "120452.342500", "120453.130000", "120453.920000", "120454.707500", "120455.495000", "120456.282500", "120457.072500", "120457.860000", "120458.647500", "120459.435000", "120500.225000", "120501.012500", "120501.800000", "120502.587500", "120503.377500", "120504.165000", "120504.952500", "120505.740000", "120506.530000", "120507.317500", "120508.105000", "120508.892500", "120509.682500", "120510.470000", "120511.257500", "120512.047500", "120512.835000", "120513.622500", "120514.410000", "120515.200000", "120515.987500", "120516.775000", "120517.562500", "120518.352500", "120519.140000", "120519.927500", "120520.715000", "120521.505000", "120522.292500", "120523.080000", "120523.867500", "120524.657500", "120525.445000", "120526.232500", "120527.020000", "120527.810000", "120528.597500", "120529.385000", "120530.175000", "120530.962500", "120531.750000", "120532.537500", "120533.327500", "120534.115000", "120534.902500", "120535.690000", "120536.480000", "120537.267500", "120538.055000", "120538.842500", "120539.632500", "120540.420000", "120541.207500", "120541.995000", "120542.785000", "120543.572500", "120544.360000", "120545.147500", "120545.937500", "120546.725000", "120547.512500", "120548.302500", "120549.090000", "120549.877500", "120550.665000", "120551.455000", "120552.242500", "120553.030000", "120553.817500", "120554.607500", "120555.395000", "120556.182500", "120556.970000", "120557.760000", "120558.547500", "120559.335000", "120600.122500", "120600.912500", "120601.700000", "120602.487500", "120603.277500", "120604.065000", "120604.852500", "120605.640000", "120606.430000", "120607.217500", "120608.005000", "120608.792500", "120609.582500", "120610.370000", "120611.157500", "120611.945000", "120612.735000", "120613.522500", "120614.310000", "120615.097500", "120615.887500", "120616.675000", "120617.462500", "120618.250000", "120619.040000", "120619.827500", "120620.615000", "120621.405000", "120622.192500", "120622.980000", "120623.767500", "120624.557500", "120625.345000", "120626.132500", "120626.920000", "120627.710000", "120628.497500", "120629.285000", "120630.072500", "120630.862500", "120631.650000", "120632.437500", "120633.225000", "120634.015000", "120634.802500", "120635.590000", "120636.377500", "120637.167500", "120637.955000", "120638.742500", "120639.532500", "120640.320000", "120641.107500", "120641.895000", "120642.685000", "120643.472500", "120644.260000", "120645.047500", "120645.837500", "120646.625000", "120647.412500", "120648.200000", "120648.990000", "120649.777500", "120650.565000", "120651.352500", "120652.142500", "120652.930000", "120653.717500", "120654.505000", "120655.295000", "120656.082500", "120656.870000", "120657.660000", "120658.447500", "120659.235000", "120700.022500", "120700.812500", "120701.600000", "120702.387500", "120703.175000", "120703.965000", "120704.752500", "120705.540000", "120706.327500", "120707.117500", "120707.905000", "120708.692500", "120709.480000", "120710.270000", "120711.057500", "120711.845000", "120712.632500", "120713.422500", "120714.210000", "120714.997500", "120715.787500", "120716.575000", "120717.362500", "120718.150000", "120718.940000", "120719.727500", "120720.515000", "120721.302500", "120722.092500", "120722.880000", "120723.667500", "120724.455000", "120725.245000", "120726.032500", "120726.820000", "120727.607500", "120728.397500", "120729.185000", "120729.972500", "120730.760000", "120731.550000", "120732.337500", "120733.125000", "120733.915000", "120734.702500", "120735.490000", "120736.277500", "120737.067500", "120737.855000", "120738.642500", "120739.430000", "120740.220000", "120741.007500", "120741.795000", "120742.582500", "120743.372500", "120744.160000", "120744.947500", "120745.735000", "120746.525000", "120747.312500", "120748.100000", "120748.887500", "120749.677500", "120750.465000", "120751.252500", "120752.042500", "120752.830000", "120753.617500", "120754.405000", "120755.195000", "120755.982500", "120756.770000", "120757.557500", "120758.347500", "120759.135000", "120759.922500", "120800.710000", "120801.500000", "120802.287500", "120803.075000", "120803.862500", "120804.652500", "120805.440000", "120806.227500", "120807.015000", "120807.805000", "120808.592500", "120809.380000", "120810.170000", "120810.957500", "120811.745000", "120812.532500", "120813.322500", "120814.110000", "120814.897500", "120815.685000", "120816.475000", "120817.262500", "120818.050000", "120818.837500", "120819.627500", "120820.415000", "120821.202500", "120821.990000", "120822.780000", "120823.567500", "120824.355000", "120825.142500", "120825.932500", "120826.720000", "120827.507500", "120828.297500", "120829.085000", "120829.872500", "120830.660000", "120831.450000", "120832.237500", "120833.025000", "120833.812500", "120834.602500", "120835.390000", "120836.177500", "120836.965000", "120837.755000", "120838.542500", "120839.330000", "120840.117500", "120840.907500", "120841.695000", "120842.482500", "120843.270000", "120844.060000", "120844.847500", "120845.635000", "120846.425000", "120847.212500", "120848.000000", "120848.787500", "120849.577500", "120850.365000", "120851.152500", "120851.940000", "120852.730000", "120853.517500", "120854.305000", "120855.092500", "120855.882500", "120856.670000", "120857.457500", "120858.245000", "120859.035000", "120859.822500", "120900.610000", "120901.397500", "120902.187500", "120902.975000", "120903.762500", "120904.552500", "120905.340000", "120906.127500", "120906.915000", "120907.705000", "120908.492500", "120909.280000", "120910.067500", "120910.857500", "120911.645000", "120912.432500", "120913.220000", "120914.010000", "120914.797500", "120915.585000", "120916.372500", "120917.162500", "120917.950000", "120918.737500", "120919.527500", "120920.315000", "120921.102500", "120921.890000", "120922.680000", "120923.467500", "120924.255000", "120925.042500", "120925.832500", "120926.620000", "120927.407500", "120928.195000", "120928.985000", "120929.772500", "120930.560000", "120931.347500", "120932.137500", "120932.925000", "120933.712500", "120934.500000", "120935.290000", "120936.077500", "120936.865000", "120937.655000", "120938.442500", "120939.230000", "120940.017500", "120940.807500", "120941.595000", "120942.382500", "120943.170000", "120943.960000", "120944.747500", "120945.535000", "120946.322500", "120947.112500", "120947.900000", "120948.687500", "120949.475000", "120950.265000", "120951.052500", "120951.840000", "120952.627500", "120953.417500", "120954.205000", "120954.992500", "120955.782500", "120956.570000", "120957.357500", "120958.145000", "120958.935000", "120959.722500", "121000.510000", "121001.297500", "121002.087500", "121002.875000", "121003.662500", "121004.450000", "121005.240000", "121006.027500", "121006.815000", "121007.602500", "121008.392500", "121009.180000", "121009.967500", "121010.755000", "121011.545000", "121012.332500", "121013.120000", "121013.910000", "121014.697500", "121015.485000", "121016.272500", "121017.062500", "121017.850000", "121018.637500", "121019.425000", "121020.215000", "121021.002500", "121021.790000", "121022.577500", "121023.367500", "121024.155000", "121024.942500", "121025.730000", "121026.520000", "121027.307500", "121028.095000", "121028.882500", "121029.672500", "121030.460000", "121031.247500", "121032.037500", "121032.825000", "121033.612500", "121034.400000", "121035.190000", "121035.977500", "121036.765000", "121037.552500", "121038.342500", "121039.130000", "121039.917500", "121040.705000", "121041.495000", "121042.282500", "121043.070000", "121043.857500", "121044.647500", "121045.435000", "121046.222500", "121047.010000", "121047.800000", "121048.587500", "121049.375000", "121050.165000", "121050.952500", "121051.740000", "121052.527500", "121053.317500", "121054.105000", "121054.892500"],
      "ContentTime": ["120339.421000", "120339.421000", "120339.421000", "120339.437000", "120339.437000", "120339.437000", "120339.437000", "120339.437000", "120339.437000", "120339.437000", "120339.453000", "120339.453000", "120339.453000", "120339.453000", "120339.453000", "120339.453000", "120339.453000", "120339.468000", "120339.468000", "120339.468000", "120339.468000", "120339.468000", "120339.468000", "120339.468000", "120359.390000", "120359.406000", "120359.406000", "120359.406000", "120359.406000", "120359.406000", "120359.421000", "120359.421000", "120359.421000", "120359.421000", "120359.421000", "120359.421000", "120359.437000", "120359.437000", "120359.437000", "120359.437000", "120359.437000", "120359.437000", "120359.437000", "120359.437000", "120359.453000", "120359.453000", "120359.453000", "120359.453000", "120359.453000", "120419.390000", "120419.406000", "120419.406000", "120419.406000", "120419.406000", "120419.406000", "120419.406000", "120419.406000", "120419.421000", "120419.421000", "120419.421000", "120419.421000", "120419.421000", "120419.421000", "120419.421000", "120419.437000", "120419.437000", "120419.437000", "120419.437000", "120419.437000", "120419.453000", "120419.453000", "120419.453000", "120419.453000", "120419.453000", "120419.453000", "120439.390000", "120439.406000", "120439.406000", "120439.406000", "120439.406000", "120439.406000", "120439.406000", "120439.406000", "120439.421000", "120439.421000", "120439.421000", "120439.421000", "120439.421000", "120439.421000", "120439.421000", "120439.437000", "120439.437000", "120439.437000", "120439.437000", "120439.437000", "120439.437000", "120439.453000", "120439.453000", "120439.453000", "120439.453000", "120459.390000", "120459.406000", "120459.406000", "120459.406000", "120459.406000", "120459.406000", "120459.406000", "120459.406000", "120459.421000", "120459.421000", "120459.421000", "120459.421000", "120459.421000", "120459.421000", "120459.437000", "120459.437000", "120459.437000", "120459.437000", "120459.437000", "120459.437000", "120459.437000", "120459.453000", "120459.453000", "120459.453000", "120459.453000", "120459.468000", "120519.390000", "120519.406000", "120519.406000", "120519.406000", "120519.406000", "120519.406000", "120519.406000", "120519.406000", "120519.421000", "120519.421000", "120519.421000", "120519.421000", "120519.421000", "120519.421000", "120519.421000", "120519.421000", "120519.437000", "120519.437000", "120519.437000", "120519.437000", "120519.437000", "120519.437000", "120519.453000", "120519.453000", "120519.453000", "120539.390000", "120539.406000", "120539.406000", "120539.406000", "120539.406000", "120539.406000", "120539.406000", "120539.406000", "120539.421000", "120539.421000", "120539.421000", "120539.421000", "120539.421000", "120539.421000", "120539.421000", "120539.421000", "120539.437000", "120539.437000", "120539.437000", "120539.437000", "120539.437000", "120539.437000", "120539.437000", "120539.453000", "120539.453000", "120539.453000", "120559.390000", "120559.406000", "120559.406000", "120559.406000", "120559.406000", "120559.406000", "120559.406000", "120559.406000", "120559.421000", "120559.421000", "120559.421000", "120559.421000", "120559.421000", "120559.421000", "120559.421000", "120559.437000", "120559.437000", "120559.437000", "120559.437000", "120559.437000", "120559.437000", "120559.437000", "120559.453000", "120559.453000", "120559.453000", "120619.390000", "120619.406000", "120619.406000", "120619.406000", "120619.406000", "120619.406000", "120619.406000", "120619.406000", "120619.421000", "120619.421000", "120619.421000", "120619.421000", "120619.421000", "120619.421000", "120619.421000", "120619.437000", "120619.437000", "120619.437000", "120619.437000", "120619.437000", "120619.437000", "120619.437000", "120619.437000", "120619.453000", "120619.453000", "120619.453000", "120639.390000", "120639.406000", "120639.406000", "120639.406000", "120639.406000", "120639.406000", "120639.406000", "120639.406000", "120639.421000", "120639.421000", "120639.421000", "120639.421000", "120639.421000", "120639.421000", "120639.421000", "120639.421000", "120639.437000", "120639.437000", "120639.437000", "120639.437000", "120639.437000", "120639.437000", "120639.437000", "120639.453000", "120639.453000", "120659.390000", "120659.406000", "120659.406000", "120659.406000", "120659.406000", "120659.406000", "120659.406000", "120659.406000", "120659.421000", "120659.421000", "120659.421000", "120659.421000", "120659.421000", "120659.421000", "120659.421000", "120659.437000", "120659.437000", "120659.437000", "120659.437000", "120659.437000", "120659.437000", "120659.437000", "120659.437000", "120659.453000", "120659.453000", "120659.453000", "120719.390000", "120719.406000", "120719.406000", "120719.406000", "120719.406000", "120719.406000", "120719.406000", "120719.421000", "120719.421000", "120719.421000", "120719.421000", "120719.421000", "120719.437000", "120719.437000", "120719.453000", "120719.453000", "120719.453000", "120719.453000", "120719.453000", "120719.453000", "120719.453000", "120719.468000", "120719.468000", "120719.468000", "120719.468000", "120739.390000", "120739.406000", "120739.406000", "120739.406000", "120739.406000", "120739.406000", "120739.406000", "120739.406000", "120739.421000", "120739.421000", "120739.421000", "120739.421000", "120739.421000", "120739.421000", "120739.421000", "120739.421000", "120739.437000", "120739.437000", "120739.437000", "120739.437000", "120739.437000", "120739.437000", "120739.437000", "120739.453000", "120739.453000", "120739.453000", "120759.390000", "120759.406000", "120759.406000", "120759.406000", "120759.406000", "120759.406000", "120759.406000", "120759.421000", "120759.421000", "120759.421000", "120759.421000", "120759.421000", "120759.421000", "120759.421000", "120759.437000", "120759.437000", "120759.437000", "120759.437000", "120759.437000", "120759.437000", "120759.437000", "120759.453000", "120759.453000", "120759.453000", "120759.453000", "120819.390000", "120819.406000", "120819.406000", "120819.406000", "120819.406000", "120819.406000", "120819.406000", "120819.406000", "120819.421000", "120819.421000", "120819.421000", "120819.421000", "120819.421000", "120819.421000", "120819.421000", "120819.437000", "120819.437000", "120819.437000", "120819.437000", "120819.437000", "120819.437000", "120819.437000", "120819.437000", "120819.453000", "120819.453000", "120819.453000", "120839.390000", "120839.406000", "120839.406000", "120839.406000", "120839.406000", "120839.406000", "120839.406000", "120839.406000", "120839.421000", "120839.421000", "120839.421000", "120839.421000", "120839.421000", "120839.421000", "120839.421000", "120839.421000", "120839.437000", "120839.437000", "120839.437000", "120839.437000", "120839.437000", "120839.437000", "120839.437000", "120839.453000", "120839.453000", "120859.390000", "120859.406000", "120859.406000", "120859.406000", "120859.406000", "120859.406000", "120859.421000", "120859.421000", "120859.421000", "120859.421000", "120859.421000", "120859.421000", "120859.421000", "120859.437000", "120859.437000", "120859.437000", "120859.437000", "120859.437000", "120859.437000", "120859.453000", "120859.453000", "120859.453000", "120859.453000", "120859.453000", "120859.453000", "120859.453000", "120919.390000", "120919.406000", "120919.406000", "120919.406000", "120919.406000", "120919.406000", "120919.406000", "120919.406000", "120919.421000", "120919.421000", "120919.421000", "120919.421000", "120919.421000", "120919.421000", "120919.421000", "120919.437000", "120919.437000", "120919.437000", "120919.437000", "120919.437000", "120919.437000", "120919.437000", "120919.453000", "120919.453000", "120919.453000", "120939.390000", "120939.406000", "120939.406000", "120939.406000", "120939.406000", "120939.406000", "120939.406000", "120939.406000", "120939.421000", "120939.421000", "120939.421000", "120939.421000", "120939.421000", "120939.421000", "120939.421000", "120939.437000", "120939.437000", "120939.437000", "120939.437000", "120939.437000", "120939.437000", "120939.437000", "120939.437000", "120939.453000", "120939.453000", "120939.453000", "120959.390000", "120959.406000", "120959.406000", "120959.406000", "120959.406000", "120959.406000", "120959.406000", "120959.406000", "120959.421000", "120959.421000", "120959.421000", "120959.421000", "120959.421000", "120959.421000", "120959.421000", "120959.437000", "120959.437000", "120959.437000", "120959.437000", "120959.437000", "120959.437000", "120959.437000", "120959.453000", "120959.453000", "120959.453000", "121019.390000", "121019.406000", "121019.406000", "121019.406000", "121019.406000", "121019.406000", "121019.406000", "121019.406000", "121019.421000", "121019.421000", "121019.421000", "121019.421000", "121019.421000", "121019.421000", "121019.421000", "121019.437000", "121019.437000", "121019.437000", "121019.437000", "121019.437000", "121019.437000", "121019.437000", "121019.437000", "121019.453000", "121019.453000", "121019.453000", "121039.390000", "121039.406000", "121039.406000", "121039.406000", "121039.406000", "121039.406000", "121039.406000", "121039.406000", "121039.421000", "121039.421000", "121039.421000", "121039.421000", "121039.421000", "121039.421000", "121039.421000", "121039.437000", "121039.437000", "121039.437000", "121039.437000", "121039.437000", "121039.437000", "121039.453000", "121039.453000", "121039.453000", "121039.453000", "121056.140000", "121056.140000", "121056.140000", "121056.140000", "121056.140000", "121056.156000", "121056.156000", "121056.156000", "121056.156000", "121056.156000", "121056.156000", "121056.171000", "121056.171000", "121056.171000", "121056.171000", "121056.171000", "121056.171000", "121056.171000", "121056.171000", "121056.187000", "121056.187000", "121056.187000"],
