{
  "AcquisitionMatrixPE": 104,
  "AcquisitionNumber": 1,
  "AcquisitionTime": "15:17:27.635000",
  "BandwidthPerPixelPhaseEncode": 13.935,
  "BaseResolution": 104,
  "CoilString": "C:HEA;HEP",
  "ConversionSoftware": "dcm2niix",
  "ConversionSoftwareVersion": "v1.0.20210317",
  "DerivedVendorReportedEchoSpacing": 0.000690017,
  "DeviceSerialNumber": "35450",
  "DwellTime": 2.5e-06,
  "EchoTime": 0.0348,
  "EffectiveEchoSpacing": 0.000690017,
  "FlipAngle": 55,
  "ImageComments": "Unaliased MB8/PE3",
  "ImageOrientationPatientDICOM": [0.999054, 0.00257886, 0.0433987, 3.85984e-08, 0.998239, -0.0593187],
  "ImageType": [
    "ORIGINAL",
    "PRIMARY",
    "M",
    "MB",
    "ND",
    "MOSAIC"
],
  "ImagingFrequency": 123.235,
  "InPlanePhaseEncodingDirectionDICOM": "COL",
  "InstitutionAddress": "Univeristy Ave. 197,Newark,North East,US,07102-1814",
  "InstitutionName": "RUBIC",
  "InstitutionalDepartmentName": "Department",
  "MRAcquisitionType": "2D",
  "MagneticFieldStrength": 3,
  "Manufacturer": "Siemens",
  "ManufacturersModelName": "TrioTim",
  "Modality": "MR",
  "MultibandAccelerationFactor": 8,
  "PartialFourier": 0.875,
  "PatientPosition": "HFS",
  "PercentPhaseFOV": 100,
  "PercentSampling": 100,
  "PhaseEncodingDirection": "j-",
  "PhaseEncodingSteps": 91,
  "PhaseResolution": 1,
  "PixelBandwidth": 1923,
  "ProcedureStepDescription": "Cole^Michael",
  "ProtocolName": "cmrr_mbep2d_bold_2mm_MB8_Rest",
  "PulseSequenceDetails": "%CustomerSeq%\\cmrr_mbep2d_bold",
  "ReceiveCoilName": "32Ch_Head",
  "ReconMatrixPE": 104,
  "RepetitionTime": 0.785,
  "SAR": 0.123374,
  "ScanOptions": "PFP\\FS",
  "ScanningSequence": "EP",
  "SequenceName": "epfid2d1_104",
  "SequenceVariant": "SK\\SS",
  "SeriesDescription": "cmrr_mbep2d_bold_2mm_MB8_Rest",
  "SeriesNumber": 10,
  "ShimSetting": [2153, -430, -7320, 664, 165, -322, 291, -77],
  "SliceThickness": 2,
  "SliceTiming": [0, 0.4375, 0.0875, 0.525, 0.175, 0.6125, 0.2625, 0.7, 0.35, 0, 0.4375, 0.0875, 0.525, 0.175, 0.6125, 0.2625, 0.7, 0.35, 0, 0.4375, 0.0875, 0.525, 0.175, 0.6125, 0.2625, 0.7, 0.35, 0, 0.4375, 0.0875, 0.525, 0.175, 0.6125, 0.2625, 0.7, 0.35, 0, 0.4375, 0.0875, 0.525, 0.175, 0.6125, 0.2625, 0.7, 0.35, 0, 0.4375, 0.0875, 0.525, 0.175, 0.6125, 0.2625, 0.7, 0.35, 0, 0.4375, 0.0875, 0.525, 0.175, 0.6125, 0.2625, 0.7, 0.35, 0, 0.4375, 0.0875, 0.525, 0.175, 0.6125, 0.2625, 0.7, 0.35],
  "SoftwareVersions": "syngo MR B19",
  "SpacingBetweenSlices": 2,
  "StationName": "MRC35450",
  "TaskName": "rest",
  "TotalReadoutTime": 0.0710717,
  "TxRefAmp": 325.804,
  "dcmmeta_affine": [
    [-1.998108983039856, 7.719675920725422e-08, 0.08695053309202194, 101.9706039428711],
    [-0.005157719366252422, 1.9964781999588013, -0.11852531880140305, -78.15131378173828],
    [0.08679742366075516, 0.11863748729228973, 1.9945905208587646, -88.44955444335938],
    [0.0, 0.0, 0.0, 1.0]
],
  "dcmmeta_reorient_transform": [
    [0.0, -1.0, 0.0, 103.0],
    [1.0, 0.0, 0.0, 0.0],
    [0.0, 0.0, 1.0, 0.0],
    [0.0, 0.0, 0.0, 1.0]
],
  "dcmmeta_shape": [104, 104, 72, 1070],
  "dcmmeta_slice_dim": 2,
  "dcmmeta_version": 0.6,
  "global": {
    "const": {
      "AcquisitionMatrix": [104, 0, 0, 104],
      "AngioFlag": "N",
      "BitsAllocated": 16,
      "BitsStored": 12,
      "Columns": 936,
      "EchoNumbers": 1,
      "EchoTime": 34.8,
      "EchoTrainLength": 1,
      "FlipAngle": 55.0,
      "HighBit": 11,
      "ImageOrientationPatient": [0.99905450361009, 0.00257885971658, 0.04339871310253, 3.8598379e-08, 0.99823909291692, -0.0593187438539],
      "ImagePositionPatient": [-933.18398761667, -960.16647303446, -62.984425557516],
      "ImageType": [
        "ORIGINAL",
        "PRIMARY",
        "M",
        "MB",
        "ND",
        "MOSAIC"
],
      "ImagedNucleus": "1H",
      "ImagingFrequency": 123.234697,
      "InPlanePhaseEncodingDirection": "COL",
      "MRAcquisitionType": "2D",
      "MagneticFieldStrength": 3.0,
      "Manufacturer": "SIEMENS",
      "ManufacturerModelName": "TrioTim",
      "Modality": "MR",
      "NumberOfAverages": 1.0,
      "NumberOfPhaseEncodingSteps": 91,
      "PercentPhaseFieldOfView": 100.0,
      "PercentSampling": 100.0,
      "PerformedProcedureStepStartTime": "142449.140000",
      "PhotometricInterpretation": "MONOCHROME2",
      "PixelBandwidth": 1923.0,
      "PixelRepresentation": 0,
      "PixelSpacing": [2.0, 2.0],
      "ProtocolName": "cmrr_mbep2d_bold_2mm_MB8_Rest",
      "RepetitionTime": 785.0,
      "Rows": 936,
      "SAR": 0.12337358897991,
      "SamplesPerPixel": 1,
      "ScanOptions": [
        "PFP",
        "FS"
],
      "ScanningSequence": "EP",
      "SequenceName": "epfid2d1_104",
      "SequenceVariant": [
        "SK",
        "SS"
],
      "SeriesDescription": "cmrr_mbep2d_bold_2mm_MB8_Rest",
      "SeriesNumber": 10,
      "SeriesTime": "151749.625000",
      "SliceLocation": -79.145665498125,
      "SliceThickness": 2.0,
      "SmallestImagePixelValue": 0,
      "SoftwareVersions": "syngo MR B19",
      "SpacingBetweenSlices": 1.9999999678613,
      "SpecificCharacterSet": "ISO_IR 100",
      "StudyID": "1",
      "StudyTime": "142449.125000",
      "TransmitCoilName": "Body",
      "VariableFlipAngleFlag": "N",
      "WindowCenterWidthExplanation": "Algo1",
      "dBdt": 0.0},
    "slices": {}
  },
  "time": {
    "samples": {
      "AcquisitionNumber": [1, 2, 3, 4, 5, 6, 7, 8, 9, 10, 11, 12, 13, 14, 15, 16, 17, 18, 19, 20, 21, 22, 23, 24, 25, 26, 27, 28, 29, 30, 31, 32, 33, 34, 35, 36, 37, 38, 39, 40, 41, 42, 43, 44, 45, 46, 47, 48, 49, 50, 51, 52, 53, 54, 55, 56, 57, 58, 59, 60, 61, 62, 63, 64, 65, 66, 67, 68, 69, 70, 71, 72, 73, 74, 75, 76, 77, 78, 79, 80, 81, 82, 83, 84, 85, 86, 87, 88, 89, 90, 91, 92, 93, 94, 95, 96, 97, 98, 99, 100, 101, 102, 103, 104, 105, 106, 107, 108, 109, 110, 111, 112, 113, 114, 115, 116, 117, 118, 119, 120, 121, 122, 123, 124, 125, 126, 127, 128, 129, 130, 131, 132, 133, 134, 135, 136, 137, 138, 139, 140, 141, 142, 143, 144, 145, 146, 147, 148, 149, 150, 151, 152, 153, 154, 155, 156, 157, 158, 159, 160, 161, 162, 163, 164, 165, 166, 167, 168, 169, 170, 171, 172, 173, 174, 175, 176, 177, 178, 179, 180, 181, 182, 183, 184, 185, 186, 187, 188, 189, 190, 191, 192, 193, 194, 195, 196, 197, 198, 199, 200, 201, 202, 203, 204, 205, 206, 207, 208, 209, 210, 211, 212, 213, 214, 215, 216, 217, 218, 219, 220, 221, 222, 223, 224, 225, 226, 227, 228, 229, 230, 231, 232, 233, 234, 235, 236, 237, 238, 239, 240, 241, 242, 243, 244, 245, 246, 247, 248, 249, 250, 251, 252, 253, 254, 255, 256, 257, 258, 259, 260, 261, 262, 263, 264, 265, 266, 267, 268, 269, 270, 271, 272, 273, 274, 275, 276, 277, 278, 279, 280, 281, 282, 283, 284, 285, 286, 287, 288, 289, 290, 291, 292, 293, 294, 295, 296, 297, 298, 299, 300, 301, 302, 303, 304, 305, 306, 307, 308, 309, 310, 311, 312, 313, 314, 315, 316, 317, 318, 319, 320, 321, 322, 323, 324, 325, 326, 327, 328, 329, 330, 331, 332, 333, 334, 335, 336, 337, 338, 339, 340, 341, 342, 343, 344, 345, 346, 347, 348, 349, 350, 351, 352, 353, 354, 355, 356, 357, 358, 359, 360, 361, 362, 363, 364, 365, 366, 367, 368, 369, 370, 371, 372, 373, 374, 375, 376, 377, 378, 379, 380, 381, 382, 383, 384, 385, 386, 387, 388, 389, 390, 391, 392, 393, 394, 395, 396, 397, 398, 399, 400, 401, 402, 403, 404, 405, 406, 407, 408, 409, 410, 411, 412, 413, 414, 415, 416, 417, 418, 419, 420, 421, 422, 423, 424, 425, 426, 427, 428, 429, 430, 431, 432, 433, 434, 435, 436, 437, 438, 439, 440, 441, 442, 443, 444, 445, 446, 447, 448, 449, 450, 451, 452, 453, 454, 455, 456, 457, 458, 459, 460, 461, 462, 463, 464, 465, 466, 467, 468, 469, 470, 471, 472, 473, 474, 475, 476, 477, 478, 479, 480, 481, 482, 483, 484, 485, 486, 487, 488, 489, 490, 491, 492, 493, 494, 495, 496, 497, 498, 499, 500, 501, 502, 503, 504, 505, 506, 507, 508, 509, 510, 511, 512, 513, 514, 515, 516, 517, 518, 519, 520, 521, 522, 523, 524, 525, 526, 527, 528, 529, 530, 531, 532, 533, 534, 535, 536, 537, 538, 539, 540, 541, 542, 543, 544, 545, 546, 547, 548, 549, 550, 551, 552, 553, 554, 555, 556, 557, 558, 559, 560, 561, 562, 563, 564, 565, 566, 567, 568, 569, 570, 571, 572, 573, 574, 575, 576, 577, 578, 579, 580, 581, 582, 583, 584, 585, 586, 587, 588, 589, 590, 591, 592, 593, 594, 595, 596, 597, 598, 599, 600, 601, 602, 603, 604, 605, 606, 607, 608, 609, 610, 611, 612, 613, 614, 615, 616, 617, 618, 619, 620, 621, 622, 623, 624, 625, 626, 627, 628, 629, 630, 631, 632, 633, 634, 635, 636, 637, 638, 639, 640, 641, 642, 643, 644, 645, 646, 647, 648, 649, 650, 651, 652, 653, 654, 655, 656, 657, 658, 659, 660, 661, 662, 663, 664, 665, 666, 667, 668, 669, 670, 671, 672, 673, 674, 675, 676, 677, 678, 679, 680, 681, 682, 683, 684, 685, 686, 687, 688, 689, 690, 691, 692, 693, 694, 695, 696, 697, 698, 699, 700, 701, 702, 703, 704, 705, 706, 707, 708, 709, 710, 711, 712, 713, 714, 715, 716, 717, 718, 719, 720, 721, 722, 723, 724, 725, 726, 727, 728, 729, 730, 731, 732, 733, 734, 735, 736, 737, 738, 739, 740, 741, 742, 743, 744, 745, 746, 747, 748, 749, 750, 751, 752, 753, 754, 755, 756, 757, 758, 759, 760, 761, 762, 763, 764, 765, 766, 767, 768, 769, 770, 771, 772, 773, 774, 775, 776, 777, 778, 779, 780, 781, 782, 783, 784, 785, 786, 787, 788, 789, 790, 791, 792, 793, 794, 795, 796, 797, 798, 799, 800, 801, 802, 803, 804, 805, 806, 807, 808, 809, 810, 811, 812, 813, 814, 815, 816, 817, 818, 819, 820, 821, 822, 823, 824, 825, 826, 827, 828, 829, 830, 831, 832, 833, 834, 835, 836, 837, 838, 839, 840, 841, 842, 843, 844, 845, 846, 847, 848, 849, 850, 851, 852, 853, 854, 855, 856, 857, 858, 859, 860, 861, 862, 863, 864, 865, 866, 867, 868, 869, 870, 871, 872, 873, 874, 875, 876, 877, 878, 879, 880, 881, 882, 883, 884, 885, 886, 887, 888, 889, 890, 891, 892, 893, 894, 895, 896, 897, 898, 899, 900, 901, 902, 903, 904, 905, 906, 907, 908, 909, 910, 911, 912, 913, 914, 915, 916, 917, 918, 919, 920, 921, 922, 923, 924, 925, 926, 927, 928, 929, 930, 931, 932, 933, 934, 935, 936, 937, 938, 939, 940, 941, 942, 943, 944, 945, 946, 947, 948, 949, 950, 951, 952, 953, 954, 955, 956, 957, 958, 959, 960, 961, 962, 963, 964, 965, 966, 967, 968, 969, 970, 971, 972, 973, 974, 975, 976, 977, 978, 979, 980, 981, 982, 983, 984, 985, 986, 987, 988, 989, 990, 991, 992, 993, 994, 995, 996, 997, 998, 999, 1000, 1001, 1002, 1003, 1004, 1005, 1006, 1007, 1008, 1009, 1010, 1011, 1012, 1013, 1014, 1015, 1016, 1017, 1018, 1019, 1020, 1021, 1022, 1023, 1024, 1025, 1026, 1027, 1028, 1029, 1030, 1031, 1032, 1033, 1034, 1035, 1036, 1037, 1038, 1039, 1040, 1041, 1042, 1043, 1044, 1045, 1046, 1047, 1048, 1049, 1050, 1051, 1052, 1053, 1054, 1055, 1056, 1057, 1058, 1059, 1060, 1061, 1062, 1063, 1064, 1065, 1066, 1067, 1068, 1069, 1070],
      "AcquisitionTime": ["151727.635000", "151728.422500", "151729.212500", "151730.000000", "151730.787500", "151731.575000", "151732.365000", "151733.152500", "151733.940000", "151734.727500", "151735.517500", "151736.305000", "151737.092500", "151737.880000", "151738.670000", "151739.457500", "151740.245000", "151741.032500", "151741.822500", "151742.610000", "151743.397500", "151744.185000", "151744.975000", "151745.762500", "151746.550000", "151747.340000", "151748.127500", "151748.915000", "151749.702500", "151750.492500", "151751.280000", "151752.067500", "151752.855000", "151753.645000", "151754.432500", "151755.220000", "151756.007500", "151756.797500", "151757.585000", "151758.372500", "151759.160000", "151759.950000", "151800.737500", "151801.525000", "151802.312500", "151803.102500", "151803.890000", "151804.677500", "151805.467500", "151806.255000", "151807.042500", "151807.830000", "151808.620000", "151809.407500", "151810.195000", "151810.982500", "151811.772500", "151812.560000", "151813.347500", "151814.135000", "151814.925000", "151815.712500", "151816.500000", "151817.287500", "151818.077500", "151818.865000", "151819.652500", "151820.440000", "151821.230000", "151822.017500", "151822.805000", "151823.595000", "151824.382500", "151825.170000", "151825.957500", "151826.747500", "151827.535000", "151828.322500", "151829.110000", "151829.900000", "151830.687500", "151831.475000", "151832.262500", "151833.052500", "151833.840000", "151834.627500", "151835.415000", "151836.205000", "151836.992500", "151837.780000", "151838.567500", "151839.357500", "151840.145000", "151840.932500", "151841.722500", "151842.510000", "151843.297500", "151844.085000", "151844.875000", "151845.662500", "151846.450000", "151847.237500", "151848.027500", "151848.815000", "151849.602500", "151850.390000", "151851.180000", "151851.967500", "151852.755000", "151853.542500", "151854.332500", "151855.120000", "151855.907500", "151856.695000", "151857.485000", "151858.272500", "151859.060000", "151859.850000", "151900.637500", "151901.425000", "151902.212500", "151903.002500", "151903.790000", "151904.577500", "151905.365000", "151906.155000", "151906.942500", "151907.730000", "151908.517500", "151909.307500", "151910.095000", "151910.882500", "151911.670000", "151912.460000", "151913.247500", "151914.035000", "151914.822500", "151915.612500", "151916.400000", "151917.187500", "151917.977500", "151918.765000", "151919.552500", "151920.340000", "151921.130000", "151921.917500", "151922.705000", "151923.492500", "151924.282500", "151925.070000", "151925.857500", "151926.645000", "151927.435000", "151928.222500", "151929.010000", "151929.797500", "151930.587500", "151931.375000", "151932.162500", "151932.950000", "151933.740000", "151934.527500", "151935.315000", "151936.105000", "151936.892500", "151937.680000", "151938.467500", "151939.257500", "151940.045000", "151940.832500", "151941.620000", "151942.410000", "151943.197500", "151943.985000", "151944.772500", "151945.562500", "151946.350000", "151947.137500", "151947.925000", "151948.715000", "151949.502500", "151950.290000", "151951.077500", "151951.867500", "151952.655000", "151953.442500", "151954.232500", "151955.020000", "151955.807500", "151956.595000", "151957.385000", "151958.172500", "151958.960000", "151959.747500", "152000.537500", "152001.325000", "152002.112500", "152002.900000", "152003.690000", "152004.477500", "152005.265000", "152006.052500", "152006.842500", "152007.630000", "152008.417500", "152009.205000", "152009.995000", "152010.782500", "152011.570000", "152012.360000", "152013.147500", "152013.935000", "152014.722500", "152015.512500", "152016.300000", "152017.087500", "152017.875000", "152018.665000", "152019.452500", "152020.240000", "152021.027500", "152021.817500", "152022.605000", "152023.392500", "152024.180000", "152024.970000", "152025.757500", "152026.545000", "152027.332500", "152028.122500", "152028.910000", "152029.697500", "152030.487500", "152031.275000", "152032.062500", "152032.850000", "152033.640000", "152034.427500", "152035.215000", "152036.002500", "152036.792500", "152037.580000", "152038.367500", "152039.155000", "152039.945000", "152040.732500", "152041.520000", "152042.307500", "152043.097500", "152043.885000", "152044.672500", "152045.462500", "152046.250000", "152047.037500", "152047.825000", "152048.615000", "152049.402500", "152050.190000", "152050.977500", "152051.767500", "152052.555000", "152053.342500", "152054.130000", "152054.920000", "152055.707500", "152056.495000", "152057.282500", "152058.072500", "152058.860000", "152059.647500", "152100.435000", "152101.225000", "152102.012500", "152102.800000", "152103.590000", "152104.377500", "152105.165000", "152105.952500", "152106.742500", "152107.530000", "152108.317500", "152109.105000", "152109.895000", "152110.682500", "152111.470000", "152112.257500", "152113.047500", "152113.835000", "152114.622500", "152115.410000", "152116.200000", "152116.987500", "152117.775000", "152118.562500", "152119.352500", "152120.140000", "152120.927500", "152121.717500", "152122.505000", "152123.292500", "152124.080000", "152124.870000", "152125.657500", "152126.445000", "152127.232500", "152128.022500", "152128.810000", "152129.597500", "152130.385000", "152131.175000", "152131.962500", "152132.750000", "152133.537500", "152134.327500", "152135.115000", "152135.902500", "152136.690000", "152137.480000", "152138.267500", "152139.055000", "152139.845000", "152140.632500", "152141.420000", "152142.207500", "152142.997500", "152143.785000", "152144.572500", "152145.360000", "152146.150000", "152146.937500", "152147.725000", "152148.512500", "152149.302500", "152150.090000", "152150.877500", "152151.665000", "152152.455000", "152153.242500", "152154.030000", "152154.817500", "152155.607500", "152156.395000", "152157.182500", "152157.972500", "152158.760000", "152159.547500", "152200.335000", "152201.125000", "152201.912500", "152202.700000", "152203.487500", "152204.277500", "152205.065000", "152205.852500", "152206.640000", "152207.430000", "152208.217500", "152209.005000", "152209.792500", "152210.582500", "152211.370000", "152212.157500", "152212.945000", "152213.735000", "152214.522500", "152215.310000", "152216.100000", "152216.887500", "152217.675000", "152218.462500", "152219.252500", "152220.040000", "152220.827500", "152221.615000", "152222.405000", "152223.192500", "152223.980000", "152224.767500", "152225.557500", "152226.345000", "152227.132500", "152227.920000", "152228.710000", "152229.497500", "152230.285000", "152231.072500", "152231.862500", "152232.650000", "152233.437500", "152234.227500", "152235.015000", "152235.802500", "152236.590000", "152237.380000", "152238.167500", "152238.955000", "152239.742500", "152240.532500", "152241.320000", "152242.107500", "152242.895000", "152243.685000", "152244.472500", "152245.260000", "152246.047500", "152246.837500", "152247.625000", "152248.412500", "152249.200000", "152249.990000", "152250.777500", "152251.565000", "152252.355000", "152253.142500", "152253.930000", "152254.717500", "152255.507500", "152256.295000", "152257.082500", "152257.870000", "152258.660000", "152259.447500", "152300.235000", "152301.022500", "152301.812500", "152302.600000", "152303.387500", "152304.175000", "152304.965000", "152305.752500", "152306.540000", "152307.327500", "152308.117500", "152308.905000", "152309.692500", "152310.482500", "152311.270000", "152312.057500", "152312.845000", "152313.635000", "152314.422500", "152315.210000", "152315.997500", "152316.787500", "152317.575000", "152318.362500", "152319.150000", "152319.940000", "152320.727500", "152321.515000", "152322.302500", "152323.092500", "152323.880000", "152324.667500", "152325.455000", "152326.245000", "152327.032500", "152327.820000", "152328.610000", "152329.397500", "152330.185000", "152330.972500", "152331.762500", "152332.550000", "152333.337500", "152334.125000", "152334.915000", "152335.702500", "152336.490000", "152337.277500", "152338.067500", "152338.855000", "152339.642500", "152340.430000", "152341.220000", "152342.007500", "152342.795000", "152343.582500", "152344.372500", "152345.160000", "152345.947500", "152346.737500", "152347.525000", "152348.312500", "152349.100000", "152349.890000", "152350.677500", "152351.465000", "152352.252500", "152353.042500", "152353.830000", "152354.617500", "152355.405000", "152356.195000", "152356.982500", "152357.770000", "152358.557500", "152359.347500", "152400.135000", "152400.922500", "152401.712500", "152402.500000", "152403.287500", "152404.075000", "152404.865000", "152405.652500", "152406.440000", "152407.227500", "152408.017500", "152408.805000", "152409.592500", "152410.380000", "152411.170000", "152411.957500", "152412.745000", "152413.532500", "152414.322500", "152415.110000", "152415.897500", "152416.685000", "152417.475000", "152418.262500", "152419.050000", "152419.840000", "152420.627500", "152421.415000", "152422.202500", "152422.992500", "152423.780000", "152424.567500", "152425.355000", "152426.145000", "152426.932500", "152427.720000", "152428.507500", "152429.297500", "152430.085000", "152430.872500", "152431.660000", "152432.450000", "152433.237500", "152434.025000", "152434.812500", "152435.602500", "152436.390000", "152437.177500", "152437.967500", "152438.755000", "152439.542500", "152440.330000", "152441.120000", "152441.907500", "152442.695000", "152443.482500", "152444.272500", "152445.060000", "152445.847500", "152446.635000", "152447.425000", "152448.212500", "152449.000000", "152449.787500", "152450.577500", "152451.365000", "152452.152500", "152452.940000", "152453.730000", "152454.517500", "152455.305000", "152456.095000", "152456.882500", "152457.670000", "152458.457500", "152459.247500", "152500.035000", "152500.822500", "152501.610000", "152502.400000", "152503.187500", "152503.975000", "152504.762500", "152505.552500", "152506.340000", "152507.127500", "152507.915000", "152508.705000", "152509.492500", "152510.280000", "152511.067500", "152511.857500", "152512.645000", "152513.432500", "152514.222500", "152515.010000", "152515.797500", "152516.585000", "152517.375000", "152518.162500", "152518.950000", "152519.737500", "152520.527500", "152521.315000", "152522.102500", "152522.890000", "152523.680000", "152524.467500", "152525.255000", "152526.042500", "152526.832500", "152527.620000", "152528.407500", "152529.195000", "152529.985000", "152530.772500", "152531.560000", "152532.350000", "152533.137500", "152533.925000", "152534.712500", "152535.502500", "152536.290000", "152537.077500", "152537.865000", "152538.655000", "152539.442500", "152540.230000", "152541.017500", "152541.807500", "152542.595000", "152543.382500", "152544.170000", "152544.960000", "152545.747500", "152546.535000", "152547.322500", "152548.112500", "152548.900000", "152549.687500", "152550.477500", "152551.265000", "152552.052500", "152552.840000", "152553.630000", "152554.417500", "152555.205000", "152555.992500", "152556.782500", "152557.570000", "152558.357500", "152559.145000", "152559.935000", "152600.722500", "152601.510000", "152602.297500", "152603.087500", "152603.875000", "152604.662500", "152605.450000", "152606.240000", "152607.027500", "152607.815000", "152608.605000", "152609.392500", "152610.180000", "152610.967500", "152611.757500", "152612.545000", "152613.332500", "152614.120000", "152614.910000", "152615.697500", "152616.485000", "152617.272500", "152618.062500", "152618.850000", "152619.637500", "152620.425000", "152621.215000", "152622.002500", "152622.790000", "152623.577500", "152624.367500", "152625.155000", "152625.942500", "152626.732500", "152627.520000", "152628.307500", "152629.095000", "152629.885000", "152630.672500", "152631.460000", "152632.247500", "152633.037500", "152633.825000", "152634.612500", "152635.400000", "152636.190000", "152636.977500", "152637.765000", "152638.552500", "152639.342500", "152640.130000", "152640.917500", "152641.705000", "152642.495000", "152643.282500", "152644.070000", "152644.860000", "152645.647500", "152646.435000", "152647.222500", "152648.012500", "152648.800000", "152649.587500", "152650.375000", "152651.165000", "152651.952500", "152652.740000", "152653.527500", "152654.317500", "152655.105000", "152655.892500", "152656.680000", "152657.470000", "152658.257500", "152659.045000", "152659.832500", "152700.622500", "152701.410000", "152702.197500", "152702.987500", "152703.775000", "152704.562500", "152705.350000", "152706.140000", "152706.927500", "152707.715000", "152708.502500", "152709.292500", "152710.080000", "152710.867500", "152711.655000", "152712.445000", "152713.232500", "152714.020000", "152714.807500", "152715.597500", "152716.385000", "152717.172500", "152717.962500", "152718.750000", "152719.537500", "152720.325000", "152721.115000", "152721.902500", "152722.690000", "152723.477500", "152724.267500", "152725.055000", "152725.842500", "152726.630000", "152727.420000", "152728.207500", "152728.995000", "152729.782500", "152730.572500", "152731.360000", "152732.147500", "152732.935000", "152733.725000", "152734.512500", "152735.300000", "152736.090000", "152736.877500", "152737.665000", "152738.452500", "152739.242500", "152740.030000", "152740.817500", "152741.605000", "152742.395000", "152743.182500", "152743.970000", "152744.757500", "152745.547500", "152746.335000", "152747.122500", "152747.910000", "152748.700000", "152749.487500", "152750.275000", "152751.062500", "152751.852500", "152752.640000", "152753.427500", "152754.217500", "152755.005000", "152755.792500", "152756.580000", "152757.370000", "152758.157500", "152758.945000", "152759.732500", "152800.522500", "152801.310000", "152802.097500", "152802.885000", "152803.675000", "152804.462500", "152805.250000", "152806.037500", "152806.827500", "152807.615000", "152808.402500", "152809.190000", "152809.980000", "152810.767500", "152811.555000", "152812.345000", "152813.132500", "152813.920000", "152814.707500", "152815.497500", "152816.285000", "152817.072500", "152817.860000", "152818.650000", "152819.437500", "152820.225000", "152821.012500", "152821.802500", "152822.590000", "152823.377500", "152824.165000", "152824.955000", "152825.742500", "152826.530000", "152827.317500", "152828.107500", "152828.895000", "152829.682500", "152830.472500", "152831.260000", "152832.047500", "152832.835000", "152833.625000", "152834.412500", "152835.200000", "152835.987500", "152836.777500", "152837.565000", "152838.352500", "152839.140000", "152839.930000", "152840.717500", "152841.505000", "152842.292500", "152843.082500", "152843.870000", "152844.657500", "152845.445000", "152846.235000", "152847.022500", "152847.810000", "152848.600000", "152849.387500", "152850.175000", "152850.962500", "152851.752500", "152852.540000", "152853.327500", "152854.115000", "152854.905000", "152855.692500", "152856.480000", "152857.267500", "152858.057500", "152858.845000", "152859.632500", "152900.420000", "152901.210000", "152901.997500", "152902.785000", "152903.572500", "152904.362500", "152905.150000", "152905.937500", "152906.727500", "152907.515000", "152908.302500", "152909.090000", "152909.880000", "152910.667500", "152911.455000", "152912.242500", "152913.032500", "152913.820000", "152914.607500", "152915.395000", "152916.185000", "152916.972500", "152917.760000", "152918.547500", "152919.337500", "152920.125000", "152920.912500", "152921.700000", "152922.490000", "152923.277500", "152924.065000", "152924.855000", "152925.642500", "152926.430000", "152927.217500", "152928.007500", "152928.795000", "152929.582500", "152930.370000", "152931.160000", "152931.947500", "152932.735000", "152933.522500", "152934.312500", "152935.100000", "152935.887500", "152936.675000", "152937.465000", "152938.252500", "152939.040000", "152939.827500", "152940.617500", "152941.405000", "152942.192500", "152942.982500", "152943.770000", "152944.557500", "152945.345000", "152946.135000", "152946.922500", "152947.710000", "152948.497500", "152949.287500", "152950.075000", "152950.862500", "152951.650000", "152952.440000", "152953.227500", "152954.015000", "152954.802500", "152955.592500", "152956.380000", "152957.167500", "152957.955000", "152958.745000", "152959.532500", "153000.320000", "153001.110000", "153001.897500", "153002.685000", "153003.472500", "153004.262500", "153005.050000", "153005.837500", "153006.625000", "153007.415000", "153008.202500", "153008.990000", "153009.777500", "153010.567500", "153011.355000", "153012.142500", "153012.930000", "153013.720000", "153014.507500", "153015.295000", "153016.082500", "153016.872500", "153017.660000", "153018.447500", "153019.237500", "153020.025000", "153020.812500", "153021.600000", "153022.390000", "153023.177500", "153023.965000", "153024.752500", "153025.542500", "153026.330000", "153027.117500", "153027.905000", "153028.695000", "153029.482500", "153030.270000", "153031.057500", "153031.847500", "153032.635000", "153033.422500", "153034.212500", "153035.000000", "153035.787500", "153036.575000", "153037.365000", "153038.152500", "153038.940000", "153039.727500", "153040.517500", "153041.305000", "153042.092500", "153042.880000", "153043.670000", "153044.457500", "153045.245000", "153046.032500", "153046.822500", "153047.610000", "153048.397500", "153049.185000", "153049.975000", "153050.762500", "153051.550000", "153052.340000", "153053.127500", "153053.915000", "153054.702500", "153055.492500", "153056.280000", "153057.067500", "153057.855000", "153058.645000", "153059.432500", "153100.220000", "153101.007500", "153101.797500", "153102.585000", "153103.372500", "153104.160000", "153104.950000", "153105.737500", "153106.525000", "153107.312500", "153108.102500", "153108.890000", "153109.677500", "153110.467500", "153111.255000", "153112.042500", "153112.830000", "153113.620000", "153114.407500", "153115.195000", "153115.982500", "153116.772500", "153117.560000", "153118.347500", "153119.135000", "153119.925000", "153120.712500", "153121.500000", "153122.287500", "153123.077500", "153123.865000", "153124.652500", "153125.440000", "153126.230000", "153127.017500", "153127.805000", "153128.595000", "153129.382500", "153130.170000"],
