{
  "AcquisitionMatrixPE": 104,
  "AcquisitionNumber": 1,
  "AcquisitionTime": "16:20:23.725000",
  "BandwidthPerPixelPhaseEncode": 13.935,
  "BaseResolution": 104,
  "CoilString": "C:HEA;HEP",
  "ConversionSoftware": "dcm2niix",
  "ConversionSoftwareVersion": "v1.0.20210317",
  "DerivedVendorReportedEchoSpacing": 0.000690017,
  "DeviceSerialNumber": "35450",
  "DwellTime": 2.5e-06,
  "EchoTime": 0.0348,
  "EffectiveEchoSpacing": 0.000690017,
  "FlipAngle": 55,
  "ImageComments": "Unaliased MB8/PE3",
  "ImageOrientationPatientDICOM": [0.999054, 0.00257886, 0.0433987, 3.85984e-08, 0.998239, -0.0593187],
  "ImageType": [
    "ORIGINAL",
    "PRIMARY",
    "M",
    "MB",
    "ND",
    "MOSAIC"
],
  "ImagingFrequency": 123.235,
  "InPlanePhaseEncodingDirectionDICOM": "COL",
  "InstitutionAddress": "Univeristy Ave. 197,Newark,North East,US,07102-1814",
  "InstitutionName": "RUBIC",
  "InstitutionalDepartmentName": "Department",
  "MRAcquisitionType": "2D",
  "MagneticFieldStrength": 3,
  "Manufacturer": "Siemens",
  "ManufacturersModelName": "TrioTim",
  "Modality": "MR",
  "MultibandAccelerationFactor": 8,
  "PartialFourier": 0.875,
  "PatientPosition": "HFS",
  "PercentPhaseFOV": 100,
  "PercentSampling": 100,
  "PhaseEncodingDirection": "j-",
  "PhaseEncodingSteps": 91,
  "PhaseResolution": 1,
  "PixelBandwidth": 1923,
  "ProcedureStepDescription": "Cole^Michael",
  "ProtocolName": "cmrr_mbep2d_bold_2mm_MB8_Task_8x",
  "PulseSequenceDetails": "%CustomerSeq%\\cmrr_mbep2d_bold",
  "ReceiveCoilName": "32Ch_Head",
  "ReconMatrixPE": 104,
  "RepetitionTime": 0.785,
  "SAR": 0.1303,
  "ScanOptions": "PFP\\FS",
  "ScanningSequence": "EP",
  "SequenceName": "epfid2d1_104",
  "SequenceVariant": "SK\\SS",
  "SeriesDescription": "cmrr_mbep2d_bold_2mm_MB8_Task_8x",
  "SeriesNumber": 24,
  "ShimSetting": [2153, -430, -7320, 664, 165, -322, 291, -77],
  "SliceThickness": 2,
  "SliceTiming": [0, 0.4375, 0.0875, 0.525, 0.175, 0.6125, 0.2625, 0.7, 0.35, 0, 0.4375, 0.0875, 0.525, 0.175, 0.6125, 0.2625, 0.7, 0.35, 0, 0.4375, 0.0875, 0.525, 0.175, 0.6125, 0.2625, 0.7, 0.35, 0, 0.4375, 0.0875, 0.525, 0.175, 0.6125, 0.2625, 0.7, 0.35, 0, 0.4375, 0.0875, 0.525, 0.175, 0.6125, 0.2625, 0.7, 0.35, 0, 0.4375, 0.0875, 0.525, 0.175, 0.6125, 0.2625, 0.7, 0.35, 0, 0.4375, 0.0875, 0.525, 0.175, 0.6125, 0.2625, 0.7, 0.35, 0, 0.4375, 0.0875, 0.525, 0.175, 0.6125, 0.2625, 0.7, 0.35],
  "SoftwareVersions": "syngo MR B19",
  "SpacingBetweenSlices": 2,
  "StationName": "MRC35450",
  "TaskName": "cpro",
  "TotalReadoutTime": 0.0710717,
  "TxRefAmp": 325.804,
  "dcmmeta_affine": [
    [-1.998108983039856, 7.719675920725422e-08, 0.08695053309202194, 101.9706039428711],
    [-0.005157719366252422, 1.9964781999588013, -0.11852531880140305, -78.15131378173828],
    [0.08679742366075516, 0.11863748729228973, 1.9945905208587646, -88.44955444335938],
    [0.0, 0.0, 0.0, 1.0]
],
  "dcmmeta_reorient_transform": [
    [0.0, -1.0, 0.0, 103.0],
    [1.0, 0.0, 0.0, 0.0],
    [0.0, 0.0, 1.0, 0.0],
    [0.0, 0.0, 0.0, 1.0]
],
  "dcmmeta_shape": [104, 104, 72, 581],
  "dcmmeta_slice_dim": 2,
  "dcmmeta_version": 0.6,
  "global": {
    "const": {
      "AcquisitionMatrix": [104, 0, 0, 104],
      "AngioFlag": "N",
      "BitsAllocated": 16,
      "BitsStored": 12,
      "Columns": 936,
      "EchoNumbers": 1,
      "EchoTime": 34.8,
      "EchoTrainLength": 1,
      "FlipAngle": 55.0,
      "HighBit": 11,
      "ImageOrientationPatient": [0.99905450361009, 0.00257885971658, 0.04339871310253, 3.8598379e-08, 0.99823909291692, -0.0593187438539],
      "ImagePositionPatient": [-933.18398761667, -960.16647303446, -62.984425557516],
      "ImageType": [
        "ORIGINAL",
        "PRIMARY",
        "M",
        "MB",
        "ND",
        "MOSAIC"
],
      "ImagedNucleus": "1H",
      "ImagingFrequency": 123.234762,
      "InPlanePhaseEncodingDirection": "COL",
      "MRAcquisitionType": "2D",
      "MagneticFieldStrength": 3.0,
      "Manufacturer": "SIEMENS",
      "ManufacturerModelName": "TrioTim",
      "Modality": "MR",
      "NumberOfAverages": 1.0,
      "NumberOfPhaseEncodingSteps": 91,
      "PercentPhaseFieldOfView": 100.0,
      "PercentSampling": 100.0,
      "PerformedProcedureStepStartTime": "142449.140000",
      "PhotometricInterpretation": "MONOCHROME2",
      "PixelBandwidth": 1923.0,
      "PixelRepresentation": 0,
      "PixelSpacing": [2.0, 2.0],
      "ProtocolName": "cmrr_mbep2d_bold_2mm_MB8_Task_8x",
      "RepetitionTime": 785.0,
      "Rows": 936,
      "SAR": 0.13029956258107,
      "SamplesPerPixel": 1,
      "ScanOptions": [
        "PFP",
        "FS"
],
      "ScanningSequence": "EP",
      "SequenceName": "epfid2d1_104",
      "SequenceVariant": [
        "SK",
        "SS"
],
      "SeriesDescription": "cmrr_mbep2d_bold_2mm_MB8_Task_8x",
      "SeriesNumber": 24,
      "SeriesTime": "175654.562000",
      "SliceLocation": -79.145665498125,
      "SliceThickness": 2.0,
      "SmallestImagePixelValue": 0,
      "SoftwareVersions": "syngo MR B19",
      "SpacingBetweenSlices": 1.9999999678613,
      "SpecificCharacterSet": "ISO_IR 100",
      "StudyID": "1",
      "StudyTime": "142449.125000",
      "TransmitCoilName": "Body",
      "VariableFlipAngleFlag": "N",
      "WindowCenterWidthExplanation": "Algo1",
      "dBdt": 0.0},
    "slices": {}
  },
  "time": {
    "samples": {
      "AcquisitionNumber": [1, 2, 3, 4, 5, 6, 7, 8, 9, 10, 11, 12, 13, 14, 15, 16, 17, 18, 19, 20, 21, 22, 23, 24, 25, 26, 27, 28, 29, 30, 31, 32, 33, 34, 35, 36, 37, 38, 39, 40, 41, 42, 43, 44, 45, 46, 47, 48, 49, 50, 51, 52, 53, 54, 55, 56, 57, 58, 59, 60, 61, 62, 63, 64, 65, 66, 67, 68, 69, 70, 71, 72, 73, 74, 75, 76, 77, 78, 79, 80, 81, 82, 83, 84, 85, 86, 87, 88, 89, 90, 91, 92, 93, 94, 95, 96, 97, 98, 99, 100, 101, 102, 103, 104, 105, 106, 107, 108, 109, 110, 111, 112, 113, 114, 115, 116, 117, 118, 119, 120, 121, 122, 123, 124, 125, 126, 127, 128, 129, 130, 131, 132, 133, 134, 135, 136, 137, 138, 139, 140, 141, 142, 143, 144, 145, 146, 147, 148, 149, 150, 151, 152, 153, 154, 155, 156, 157, 158, 159, 160, 161, 162, 163, 164, 165, 166, 167, 168, 169, 170, 171, 172, 173, 174, 175, 176, 177, 178, 179, 180, 181, 182, 183, 184, 185, 186, 187, 188, 189, 190, 191, 192, 193, 194, 195, 196, 197, 198, 199, 200, 201, 202, 203, 204, 205, 206, 207, 208, 209, 210, 211, 212, 213, 214, 215, 216, 217, 218, 219, 220, 221, 222, 223, 224, 225, 226, 227, 228, 229, 230, 231, 232, 233, 234, 235, 236, 237, 238, 239, 240, 241, 242, 243, 244, 245, 246, 247, 248, 249, 250, 251, 252, 253, 254, 255, 256, 257, 258, 259, 260, 261, 262, 263, 264, 265, 266, 267, 268, 269, 270, 271, 272, 273, 274, 275, 276, 277, 278, 279, 280, 281, 282, 283, 284, 285, 286, 287, 288, 289, 290, 291, 292, 293, 294, 295, 296, 297, 298, 299, 300, 301, 302, 303, 304, 305, 306, 307, 308, 309, 310, 311, 312, 313, 314, 315, 316, 317, 318, 319, 320, 321, 322, 323, 324, 325, 326, 327, 328, 329, 330, 331, 332, 333, 334, 335, 336, 337, 338, 339, 340, 341, 342, 343, 344, 345, 346, 347, 348, 349, 350, 351, 352, 353, 354, 355, 356, 357, 358, 359, 360, 361, 362, 363, 364, 365, 366, 367, 368, 369, 370, 371, 372, 373, 374, 375, 376, 377, 378, 379, 380, 381, 382, 383, 384, 385, 386, 387, 388, 389, 390, 391, 392, 393, 394, 395, 396, 397, 398, 399, 400, 401, 402, 403, 404, 405, 406, 407, 408, 409, 410, 411, 412, 413, 414, 415, 416, 417, 418, 419, 420, 421, 422, 423, 424, 425, 426, 427, 428, 429, 430, 431, 432, 433, 434, 435, 436, 437, 438, 439, 440, 441, 442, 443, 444, 445, 446, 447, 448, 449, 450, 451, 452, 453, 454, 455, 456, 457, 458, 459, 460, 461, 462, 463, 464, 465, 466, 467, 468, 469, 470, 471, 472, 473, 474, 475, 476, 477, 478, 479, 480, 481, 482, 483, 484, 485, 486, 487, 488, 489, 490, 491, 492, 493, 494, 495, 496, 497, 498, 499, 500, 501, 502, 503, 504, 505, 506, 507, 508, 509, 510, 511, 512, 513, 514, 515, 516, 517, 518, 519, 520, 521, 522, 523, 524, 525, 526, 527, 528, 529, 530, 531, 532, 533, 534, 535, 536, 537, 538, 539, 540, 541, 542, 543, 544, 545, 546, 547, 548, 549, 550, 551, 552, 553, 554, 555, 556, 557, 558, 559, 560, 561, 562, 563, 564, 565, 566, 567, 568, 569, 570, 571, 572, 573, 574, 575, 576, 577, 578, 579, 580, 581],
      "AcquisitionTime": ["162023.725000", "162024.512500", "162025.300000", "162026.090000", "162026.877500", "162027.665000", "162028.455000", "162029.242500", "162030.030000", "162030.817500", "162031.607500", "162032.395000", "162033.182500", "162033.970000", "162034.760000", "162035.547500", "162036.335000", "162037.122500", "162037.912500", "162038.700000", "162039.487500", "162040.275000", "162041.065000", "162041.852500", "162042.640000", "162043.427500", "162044.217500", "162045.005000", "162045.792500", "162046.582500", "162047.370000", "162048.157500", "162048.945000", "162049.735000", "162050.522500", "162051.310000", "162052.097500", "162052.887500", "162053.675000", "162054.462500", "162055.250000", "162056.040000", "162056.827500", "162057.615000", "162058.402500", "162059.192500", "162059.980000", "162100.767500", "162101.555000", "162102.345000", "162103.132500", "162103.920000", "162104.710000", "162105.497500", "162106.285000", "162107.072500", "162107.862500", "162108.650000", "162109.437500", "162110.225000", "162111.015000", "162111.802500", "162112.590000", "162113.377500", "162114.167500", "162114.955000", "162115.742500", "162116.530000", "162117.320000", "162118.107500", "162118.895000", "162119.682500", "162120.472500", "162121.260000", "162122.047500", "162122.837500", "162123.625000", "162124.412500", "162125.200000", "162125.990000", "162126.777500", "162127.565000", "162128.352500", "162129.142500", "162129.930000", "162130.717500", "162131.505000", "162132.295000", "162133.082500", "162133.870000", "162134.657500", "162135.447500", "162136.235000", "162137.022500", "162137.810000", "162138.600000", "162139.387500", "162140.175000", "162140.965000", "162141.752500", "162142.540000", "162143.327500", "162144.117500", "162144.905000", "162145.692500", "162146.480000", "162147.270000", "162148.057500", "162148.845000", "162149.632500", "162150.422500", "162151.210000", "162151.997500", "162152.785000", "162153.575000", "162154.362500", "162155.150000", "162155.937500", "162156.727500", "162157.515000", "162158.302500", "162159.092500", "162159.880000", "162200.667500", "162201.455000", "162202.245000", "162203.032500", "162203.820000", "162204.607500", "162205.397500", "162206.185000", "162206.972500", "162207.760000", "162208.550000", "162209.337500", "162210.125000", "162210.912500", "162211.702500", "162212.490000", "162213.277500", "162214.065000", "162214.855000", "162215.642500", "162216.430000", "162217.220000", "162218.007500", "162218.795000", "162219.582500", "162220.372500", "162221.160000", "162221.947500", "162222.735000", "162223.525000", "162224.312500", "162225.100000", "162225.887500", "162226.677500", "162227.465000", "162228.252500", "162229.040000", "162229.830000", "162230.617500", "162231.405000", "162232.195000", "162232.982500", "162233.770000", "162234.557500", "162235.347500", "162236.135000", "162236.922500", "162237.710000", "162238.500000", "162239.287500", "162240.075000", "162240.862500", "162241.652500", "162242.440000", "162243.227500", "162244.015000", "162244.805000", "162245.592500", "162246.380000", "162247.167500", "162247.957500", "162248.745000", "162249.532500", "162250.322500", "162251.110000", "162251.897500", "162252.685000", "162253.475000", "162254.262500", "162255.050000", "162255.837500", "162256.627500", "162257.415000", "162258.202500", "162258.990000", "162259.780000", "162300.567500", "162301.355000", "162302.142500", "162302.932500", "162303.720000", "162304.507500", "162305.295000", "162306.085000", "162306.872500", "162307.660000", "162308.450000", "162309.237500", "162310.025000", "162310.812500", "162311.602500", "162312.390000", "162313.177500", "162313.965000", "162314.755000", "162315.542500", "162316.330000", "162317.117500", "162317.907500", "162318.695000", "162319.482500", "162320.270000", "162321.060000", "162321.847500", "162322.635000", "162323.422500", "162324.212500", "162325.000000", "162325.787500", "162326.577500", "162327.365000", "162328.152500", "162328.940000", "162329.730000", "162330.517500", "162331.305000", "162332.092500", "162332.882500", "162333.670000", "162334.457500", "162335.245000", "162336.035000", "162336.822500", "162337.610000", "162338.397500", "162339.187500", "162339.975000", "162340.762500", "162341.550000", "162342.340000", "162343.127500", "162343.915000", "162344.705000", "162345.492500", "162346.280000", "162347.067500", "162347.857500", "162348.645000", "162349.432500", "162350.220000", "162351.010000", "162351.797500", "162352.585000", "162353.372500", "162354.162500", "162354.950000", "162355.737500", "162356.525000", "162357.315000", "162358.102500", "162358.890000", "162359.677500", "162400.467500", "162401.255000", "162402.042500", "162402.832500", "162403.620000", "162404.407500", "162405.195000", "162405.985000", "162406.772500", "162407.560000", "162408.347500", "162409.137500", "162409.925000", "162410.712500", "162411.500000", "162412.290000", "162413.077500", "162413.865000", "162414.652500", "162415.442500", "162416.230000", "162417.017500", "162417.805000", "162418.595000", "162419.382500", "162420.170000", "162420.960000", "162421.747500", "162422.535000", "162423.322500", "162424.112500", "162424.900000", "162425.687500", "162426.475000", "162427.265000", "162428.052500", "162428.840000", "162429.627500", "162430.417500", "162431.205000", "162431.992500", "162432.780000", "162433.570000", "162434.357500", "162435.145000", "162435.932500", "162436.722500", "162437.510000", "162438.297500", "162439.087500", "162439.875000", "162440.662500", "162441.450000", "162442.240000", "162443.027500", "162443.815000", "162444.602500", "162445.392500", "162446.180000", "162446.967500", "162447.755000", "162448.545000", "162449.332500", "162450.120000", "162450.907500", "162451.697500", "162452.485000", "162453.272500", "162454.060000", "162454.850000", "162455.637500", "162456.425000", "162457.215000", "162458.002500", "162458.790000", "162459.577500", "162500.367500", "162501.155000", "162501.942500", "162502.730000", "162503.520000", "162504.307500", "162505.095000", "162505.882500", "162506.672500", "162507.460000", "162508.247500", "162509.035000", "162509.825000", "162510.612500", "162511.400000", "162512.187500", "162512.977500", "162513.765000", "162514.552500", "162515.342500", "162516.130000", "162516.917500", "162517.705000", "162518.495000", "162519.282500", "162520.070000", "162520.857500", "162521.647500", "162522.435000", "162523.222500", "162524.010000", "162524.800000", "162525.587500", "162526.375000", "162527.162500", "162527.952500", "162528.740000", "162529.527500", "162530.315000", "162531.105000", "162531.892500", "162532.680000", "162533.470000", "162534.257500", "162535.045000", "162535.832500", "162536.622500", "162537.410000", "162538.197500", "162538.985000", "162539.775000", "162540.562500", "162541.350000", "162542.137500", "162542.927500", "162543.715000", "162544.502500", "162545.290000", "162546.080000", "162546.867500", "162547.655000", "162548.445000", "162549.232500", "162550.020000", "162550.807500", "162551.597500", "162552.385000", "162553.172500", "162553.960000", "162554.750000", "162555.537500", "162556.325000", "162557.112500", "162557.902500", "162558.690000", "162559.477500", "162600.265000", "162601.055000", "162601.842500", "162602.630000", "162603.417500", "162604.207500", "162604.995000", "162605.782500", "162606.572500", "162607.360000", "162608.147500", "162608.935000", "162609.725000", "162610.512500", "162611.300000", "162612.087500", "162612.877500", "162613.665000", "162614.452500", "162615.240000", "162616.030000", "162616.817500", "162617.605000", "162618.392500", "162619.182500", "162619.970000", "162620.757500", "162621.545000", "162622.335000", "162623.122500", "162623.910000", "162624.700000", "162625.487500", "162626.275000", "162627.062500", "162627.852500", "162628.640000", "162629.427500", "162630.215000", "162631.005000", "162631.792500", "162632.580000", "162633.367500", "162634.157500", "162634.945000", "162635.732500", "162636.520000", "162637.310000", "162638.097500", "162638.885000", "162639.672500", "162640.462500", "162641.250000", "162642.037500", "162642.827500", "162643.615000", "162644.402500", "162645.190000", "162645.980000", "162646.767500", "162647.555000", "162648.342500", "162649.132500", "162649.920000", "162650.707500", "162651.495000", "162652.285000", "162653.072500", "162653.860000", "162654.647500", "162655.437500", "162656.225000", "162657.012500", "162657.800000", "162658.590000", "162659.377500", "162700.165000", "162700.955000", "162701.742500", "162702.530000", "162703.317500", "162704.107500", "162704.895000", "162705.682500", "162706.470000", "162707.260000", "162708.047500", "162708.835000", "162709.622500", "162710.412500", "162711.200000", "162711.987500", "162712.775000", "162713.565000", "162714.352500", "162715.140000", "162715.927500", "162716.717500", "162717.505000", "162718.292500", "162719.082500", "162719.870000", "162720.657500", "162721.445000", "162722.235000", "162723.022500", "162723.810000", "162724.597500", "162725.387500", "162726.175000", "162726.962500", "162727.750000", "162728.540000", "162729.327500", "162730.115000", "162730.902500", "162731.692500", "162732.480000", "162733.267500", "162734.055000", "162734.845000", "162735.632500", "162736.420000", "162737.210000", "162737.997500", "162738.785000", "162739.572500", "162740.362500", "162741.150000", "162741.937500", "162742.725000", "162743.515000", "162744.302500", "162745.090000", "162745.877500", "162746.667500", "162747.455000", "162748.242500", "162749.030000", "162749.820000", "162750.607500", "162751.395000", "162752.182500", "162752.972500", "162753.760000", "162754.547500", "162755.337500", "162756.125000", "162756.912500", "162757.700000", "162758.490000", "162759.277500", "162800.065000", "162800.852500"],
      "ContentTime": ["175654.562000", "175654.562000", "175654.562000", "175654.562000", "175654.562000", "175654.562000", "175654.578000", "175654.578000", "175654.578000", "175754.531000", "175754.531000", "175754.531000", "175754.531000", "175754.546000", "175754.546000", "175754.546000", "175754.546000", "175754.546000", "175754.546000", "175754.546000", "175754.562000", "175754.562000", "175754.562000", "175754.562000", "175754.562000", "175754.562000", "175754.562000", "175754.578000", "175754.578000", "175754.578000", "175754.578000", "175754.578000", "175754.578000", "175754.578000", "175754.593000", "175754.593000", "175754.593000", "175754.593000", "175854.531000", "175854.531000", "175854.531000", "175854.531000", "175854.546000", "175854.546000", "175854.546000", "175854.546000", "175854.546000", "175854.546000", "175854.546000", "175854.562000", "175854.562000", "175854.562000", "175854.562000", "175854.562000", "175854.562000", "175854.562000", "175854.578000", "175854.578000", "175854.578000", "175854.578000", "175854.578000", "175854.578000", "175854.578000", "175854.593000", "175854.593000", "175854.593000", "175954.531000", "175954.531000", "175954.531000", "175954.531000", "175954.546000", "175954.546000", "175954.546000", "175954.546000", "175954.546000", "175954.546000", "175954.546000", "175954.562000", "175954.562000", "175954.562000", "175954.562000", "175954.562000", "175954.562000", "175954.578000", "175954.578000", "175954.578000", "175954.578000", "175954.578000", "175954.578000", "175954.578000", "175954.593000", "175954.593000", "175954.593000", "175954.593000", "180034.531000", "180034.531000", "180034.531000", "180034.531000", "180034.546000", "180034.546000", "180034.546000", "180034.546000", "180034.546000", "180034.546000", "180034.546000", "180034.562000", "180034.562000", "180034.562000", "180034.562000", "180034.562000", "180034.562000", "180034.562000", "180034.578000", "180134.531000", "180134.531000", "180134.546000", "180134.546000", "180134.546000", "180134.546000", "180134.546000", "180134.562000", "180134.562000", "180134.562000", "180134.562000", "180134.562000", "180134.562000", "180134.578000", "180134.578000", "180134.578000", "180134.578000", "180134.578000", "180134.578000", "180134.578000", "180134.593000", "180134.593000", "180134.593000", "180134.593000", "180134.593000", "180134.593000", "180134.593000", "180134.609000", "180234.531000", "180234.531000", "180234.531000", "180234.531000", "180234.546000", "180234.546000", "180234.546000", "180234.546000", "180234.546000", "180234.562000", "180234.562000", "180234.562000", "180234.562000", "180234.562000", "180234.578000", "180234.578000", "180234.578000", "180234.578000", "180234.578000", "180234.578000", "180234.578000", "180234.593000", "180234.593000", "180234.593000", "180234.593000", "180234.593000", "180234.593000", "180234.593000", "180334.531000", "180334.531000", "180334.531000", "180334.531000", "180334.546000", "180334.546000", "180334.546000", "180334.546000", "180334.546000", "180334.546000", "180334.546000", "180334.562000", "180334.562000", "180334.562000", "180334.562000", "180334.562000", "180334.562000", "180334.578000", "180334.578000", "180334.578000", "180334.578000", "180334.578000", "180334.578000", "180334.578000", "180334.593000", "180334.593000", "180334.593000", "180334.593000", "180434.531000", "180434.531000", "180434.531000", "180434.546000", "180434.546000", "180434.546000", "180434.546000", "180434.546000", "180434.546000", "180434.562000", "180434.562000", "180434.562000", "180434.562000", "180434.562000", "180434.578000", "180434.578000", "180434.578000", "180434.578000", "180434.578000", "180434.578000", "180434.578000", "180434.593000", "180434.593000", "180434.593000", "180434.593000", "180434.593000", "180434.593000", "180434.609000", "180534.531000", "180534.531000", "180534.531000", "180534.531000", "180534.546000", "180534.546000", "180534.546000", "180534.546000", "180534.546000", "180534.546000", "180534.562000", "180534.562000", "180534.562000", "180534.562000", "180534.562000", "180534.562000", "180534.578000", "180534.578000", "180534.578000", "180534.578000", "180534.578000", "180534.578000", "180534.593000", "180534.593000", "180534.593000", "180534.593000", "180534.593000", "180534.593000", "180634.531000", "180634.531000", "180634.531000", "180634.531000", "180634.546000", "180634.546000", "180634.546000", "180634.546000", "180634.546000", "180634.546000", "180634.546000", "180634.562000", "180634.562000", "180634.562000", "180634.562000", "180634.562000", "180634.578000", "180634.578000", "180634.578000", "180634.578000", "180634.578000", "180634.578000", "180634.578000", "180634.593000", "180634.593000", "180634.593000", "180634.593000", "180634.593000", "180734.531000", "180734.531000", "180734.531000", "180734.531000", "180734.546000", "180734.546000", "180734.546000", "180734.546000", "180734.546000", "180734.546000", "180734.546000", "180734.562000", "180734.562000", "180734.562000", "180734.562000", "180734.562000", "180734.562000", "180734.562000", "180734.578000", "180734.578000", "180734.578000", "180734.578000", "180734.593000", "180734.593000", "180734.593000", "180734.593000", "180734.593000", "180734.593000", "180834.531000", "180834.531000", "180834.531000", "180834.531000", "180834.546000", "180834.546000", "180834.546000", "180834.546000", "180834.546000", "180834.546000", "180834.546000", "180834.562000", "180834.562000", "180834.562000", "180834.562000", "180834.562000", "180834.578000", "180834.578000", "180834.578000", "180834.578000", "180834.578000", "180834.578000", "180834.578000", "180834.593000", "180834.593000", "180834.593000", "180834.593000", "180834.593000", "180834.593000", "180934.531000", "180934.531000", "180934.531000", "180934.531000", "180934.546000", "180934.546000", "180934.546000", "180934.546000", "180934.546000", "180934.546000", "180934.546000", "180934.562000", "180934.562000", "180934.562000", "180934.562000", "180934.562000", "180934.562000", "180934.562000", "180934.578000", "180934.578000", "180934.578000", "180934.578000", "180934.578000", "180934.578000", "180934.578000", "180934.593000", "180934.593000", "180934.593000", "181014.531000", "181014.531000", "181014.531000", "181014.531000", "181014.546000", "181014.546000", "181014.546000", "181014.546000", "181014.546000", "181014.546000", "181014.546000", "181014.562000", "181014.562000", "181014.562000", "181014.562000", "181014.562000", "181014.562000", "181014.578000", "181114.531000", "181114.531000", "181114.531000", "181114.531000", "181114.546000", "181114.546000", "181114.546000", "181114.546000", "181114.546000", "181114.546000", "181114.546000", "181114.562000", "181114.562000", "181114.562000", "181114.562000", "181114.562000", "181114.562000", "181114.562000", "181114.578000", "181114.578000", "181114.578000", "181114.578000", "181114.578000", "181114.578000", "181114.578000", "181114.593000", "181114.593000", "181114.593000", "181114.593000", "181214.531000", "181214.531000", "181214.531000", "181214.531000", "181214.546000", "181214.546000", "181214.546000", "181214.546000", "181214.546000", "181214.562000", "181214.562000", "181214.562000", "181214.562000", "181214.562000", "181214.562000", "181214.562000", "181214.578000", "181214.578000", "181214.578000", "181214.578000", "181214.578000", "181214.578000", "181214.578000", "181214.593000", "181214.593000", "181214.593000", "181214.593000", "181214.593000", "181314.531000", "181314.531000", "181314.531000", "181314.531000", "181314.546000", "181314.546000", "181314.546000", "181314.546000", "181314.546000", "181314.546000", "181314.546000", "181314.562000", "181314.562000", "181314.562000", "181314.562000", "181314.562000", "181314.562000", "181314.562000", "181314.578000", "181314.578000", "181314.578000", "181314.578000", "181314.593000", "181314.593000", "181314.593000", "181314.593000", "181314.593000", "181314.593000", "181414.531000", "181414.531000", "181414.531000", "181414.531000", "181414.546000", "181414.546000", "181414.546000", "181414.546000", "181414.546000", "181414.546000", "181414.546000", "181414.562000", "181414.562000", "181414.562000", "181414.562000", "181414.562000", "181414.562000", "181414.562000", "181414.578000", "181414.578000", "181414.578000", "181414.578000", "181414.578000", "181414.578000", "181414.578000", "181414.593000", "181414.593000", "181414.593000", "181514.531000", "181514.531000", "181514.531000", "181514.531000", "181514.546000", "181514.546000", "181514.546000", "181514.546000", "181514.546000", "181514.546000", "181514.546000", "181514.562000", "181514.562000", "181514.562000", "181514.562000", "181514.562000", "181514.562000", "181514.578000", "181514.578000", "181514.578000", "181514.578000", "181514.578000", "181514.578000", "181514.578000", "181514.593000", "181514.593000", "181514.593000", "181514.593000", "181614.531000", "181614.531000", "181614.531000", "181614.531000", "181614.546000", "181614.546000", "181614.546000", "181614.546000", "181614.546000", "181614.546000", "181614.546000", "181614.562000", "181614.562000", "181614.562000", "181614.562000", "181614.562000", "181614.562000", "181614.562000", "181614.578000", "181614.578000", "181614.578000", "181614.578000", "181614.578000", "181614.593000", "181614.593000", "181614.593000", "181614.593000", "181614.593000", "181614.593000", "181711.750000", "181711.750000", "181711.750000", "181711.750000", "181711.750000", "181711.765000", "181711.765000", "181711.765000", "181711.765000", "181711.765000", "181711.765000", "181711.765000", "181711.781000", "181711.781000", "181711.781000", "181711.781000", "181711.781000", "181711.781000", "181711.781000", "181711.796000", "181711.796000", "181711.796000", "181711.796000", "181711.796000", "181711.796000", "181711.796000", "181711.812000"],
      "DataSetTrailingPadding": [
        "\u0000\u0000\u0000\u0000\u0000\u0000\u0000\u0000\u0000\u0000\u0000\u0000\u0000\u0000\u0000\u0000",
        "\u0000\u0000\u0000\u0000\u0000\u0000\u0000\u0000\u0000\u0000\u0000\u0000\u0000\u0000\u0000\u0000",
        "\u0000\u0000\u0000\u0000\u0000\u0000\u0000\u0000\u0000\u0000\u0000\u0000\u0000\u0000",
        "\u0000\u0000\u0000\u0000\u0000\u0000\u0000\u0000\u0000\u0000\u0000\u0000\u0000\u0000",
        "\u0000\u0000\u0000\u0000\u0000\u0000\u0000\u0000\u0000\u0000\u0000\u0000\u0000\u0000\u0000\u0000",
        "\u0000\u0000\u0000\u0000\u0000\u0000\u0000\u0000\u0000\u0000\u0000\u0000\u0000\u0000",
        "\u0000\u0000\u0000\u0000\u0000\u0000\u0000\u0000\u0000\u0000\u0000\u0000\u0000\u0000\u0000\u0000\u0000\u0000",
        "\u0000\u0000\u0000\u0000\u0000\u0000\u0000\u0000\u0000\u0000\u0000\u0000\u0000\u0000\u0000\u0000",
        "\u0000\u0000\u0000\u0000\u0000\u0000\u0000\u0000\u0000\u0000\u0000\u0000\u0000\u0000",
        "\u0000\u0000\u0000\u0000\u0000\u0000\u0000\u0000\u0000\u0000\u0000\u0000",
        "\u0000\u0000\u0000\u0000\u0000\u0000\u0000\u0000\u0000\u0000",
        "\u0000\u0000\u0000\u0000\u0000\u0000\u0000\u0000\u0000\u0000",
        "\u0000\u0000\u0000\u0000\u0000\u0000\u0000\u0000\u0000\u0000\u0000\u0000",
        "\u0000\u0000\u0000\u0000\u0000\u0000\u0000\u0000\u0000\u0000",
        "\u0000\u0000\u0000\u0000\u0000\u0000\u0000\u0000\u0000\u0000",
        "\u0000\u0000\u0000\u0000\u0000\u0000\u0000\u0000\u0000\u0000\u0000\u0000",
        "\u0000\u0000\u0000\u0000\u0000\u0000\u0000\u0000\u0000\u0000",
        "\u0000\u0000\u0000\u0000\u0000\u0000\u0000\u0000\u0000\u0000\u0000\u0000",
        "\u0000\u0000\u0000\u0000\u0000\u0000\u0000\u0000\u0000\u0000\u0000\u0000",
        "\u0000\u0000\u0000\u0000\u0000\u0000\u0000\u0000\u0000\u0000",
        "\u0000\u0000\u0000\u0000\u0000\u0000\u0000\u0000\u0000\u0000\u0000\u0000",
        "\u0000\u0000\u0000\u0000\u0000\u0000\u0000\u0000\u0000\u0000",
