{
  "AcquisitionMatrixPE": 104,
  "AcquisitionNumber": 1,
  "AcquisitionTime": "11:22:30.725000",
  "BandwidthPerPixelPhaseEncode": 13.935,
  "BaseResolution": 104,
  "CoilString": "C:HEA;HEP",
  "ConversionSoftware": "dcm2niix",
  "ConversionSoftwareVersion": "v1.0.20210317",
  "DerivedVendorReportedEchoSpacing": 0.000690017,
  "DeviceSerialNumber": "35450",
  "DwellTime": 2.5e-06,
  "EchoTime": 0.0348,
  "EffectiveEchoSpacing": 0.000690017,
  "FlipAngle": 55,
  "ImageComments": "Unaliased MB8/PE3 (remote)",
  "ImageOrientationPatientDICOM": [0.999938, -0.00123514, -0.0110232, 1.12873e-08, 0.993781, -0.111351],
  "ImageType": [
    "ORIGINAL",
    "PRIMARY",
    "M",
    "MB",
    "ND",
    "MOSAIC"
],
  "ImagingFrequency": 123.235,
  "InPlanePhaseEncodingDirectionDICOM": "COL",
  "InstitutionAddress": "Univeristy Ave. 197,Newark,North East,US,07102-1814",
  "InstitutionName": "RUBIC",
  "InstitutionalDepartmentName": "Department",
  "MRAcquisitionType": "2D",
  "MagneticFieldStrength": 3,
  "Manufacturer": "Siemens",
  "ManufacturersModelName": "TrioTim",
  "Modality": "MR",
  "MultibandAccelerationFactor": 8,
  "PartialFourier": 0.875,
  "PatientPosition": "HFS",
  "PercentPhaseFOV": 100,
  "PercentSampling": 100,
  "PhaseEncodingDirection": "j-",
  "PhaseEncodingSteps": 91,
  "PhaseResolution": 1,
  "PixelBandwidth": 1923,
  "ProcedureStepDescription": "Cole^Michael",
  "ProtocolName": "cmrr_mbep2d_bold_2mm_MB8_Task_8x",
  "PulseSequenceDetails": "%CustomerSeq%\\cmrr_mbep2d_bold",
  "ReceiveCoilName": "32Ch_Head",
  "ReconMatrixPE": 104,
  "RepetitionTime": 0.785,
  "SAR": 0.132854,
  "ScanOptions": "PFP\\FS",
  "ScanningSequence": "EP",
  "SequenceName": "epfid2d1_104",
  "SequenceVariant": "SK\\SS",
  "SeriesDescription": "cmrr_mbep2d_bold_2mm_MB8_Task_8x",
  "SeriesNumber": 15,
  "ShimSetting": [2125, -431, -7418, 548, 136, -669, 238, -49],
  "SliceThickness": 2,
  "SliceTiming": [0, 0.4375, 0.0875, 0.525, 0.175, 0.6125, 0.2625, 0.7, 0.35, 0, 0.4375, 0.0875, 0.525, 0.175, 0.6125, 0.2625, 0.7, 0.35, 0, 0.4375, 0.0875, 0.525, 0.175, 0.6125, 0.2625, 0.7, 0.35, 0, 0.4375, 0.0875, 0.525, 0.175, 0.6125, 0.2625, 0.7, 0.35, 0, 0.4375, 0.0875, 0.525, 0.175, 0.6125, 0.2625, 0.7, 0.35, 0, 0.4375, 0.0875, 0.525, 0.175, 0.6125, 0.2625, 0.7, 0.35, 0, 0.4375, 0.0875, 0.525, 0.175, 0.6125, 0.2625, 0.7, 0.35, 0, 0.4375, 0.0875, 0.525, 0.175, 0.6125, 0.2625, 0.7, 0.35],
  "SoftwareVersions": "syngo MR B19",
  "SpacingBetweenSlices": 2,
  "StationName": "MRC35450",
  "TaskName": "cpro",
  "TotalReadoutTime": 0.0710717,
  "TxRefAmp": 323.504,
  "dcmmeta_affine": [
    [-1.9998769760131836, 2.257453957099642e-08, -0.022184379398822784, 103.84369659423828],
    [0.0024702781811356544, 1.9875622987747192, -0.22268857061862946, -87.72187805175781],
    [-0.022046415135264397, 0.2227022647857666, 1.9874399900436401, -101.19713592529297],
    [0.0, 0.0, 0.0, 1.0]
],
  "dcmmeta_reorient_transform": [
    [0.0, -1.0, 0.0, 103.0],
    [1.0, 0.0, 0.0, 0.0],
    [0.0, 0.0, 1.0, 0.0],
    [0.0, 0.0, 0.0, 1.0]
],
  "dcmmeta_shape": [104, 104, 72, 581],
  "dcmmeta_slice_dim": 2,
  "dcmmeta_version": 0.6,
  "global": {
    "const": {
      "AcquisitionMatrix": [104, 0, 0, 104],
      "AngioFlag": "N",
      "BitsAllocated": 16,
      "BitsStored": 12,
      "Columns": 936,
      "EchoNumbers": 1,
      "EchoTime": 34.8,
      "EchoTrainLength": 1,
      "FlipAngle": 55.0,
      "HighBit": 11,
      "ImageOrientationPatient": [0.99993847977015, -0.0012351391402, -0.0110232076216, 1.128727e-08, 0.99378112518585, -0.1113511348139],
      "ImagePositionPatient": [-935.79252707413, -942.79529788256, 23.556651487433],
      "ImageType": [
        "ORIGINAL",
        "PRIMARY",
        "M",
        "MB",
        "ND",
        "MOSAIC"
],
      "ImagedNucleus": "1H",
      "ImagingFrequency": 123.234521,
      "InPlanePhaseEncodingDirection": "COL",
      "MRAcquisitionType": "2D",
      "MagneticFieldStrength": 3.0,
      "Manufacturer": "SIEMENS",
      "ManufacturerModelName": "TrioTim",
      "Modality": "MR",
      "NumberOfAverages": 1.0,
      "NumberOfPhaseEncodingSteps": 91,
      "PercentPhaseFieldOfView": 100.0,
      "PercentSampling": 100.0,
      "PerformedProcedureStepStartTime": "101628.609000",
      "PhotometricInterpretation": "MONOCHROME2",
      "PixelBandwidth": 1923.0,
      "PixelRepresentation": 0,
      "PixelSpacing": [2.0, 2.0],
      "ProtocolName": "cmrr_mbep2d_bold_2mm_MB8_Task_8x",
      "RepetitionTime": 785.0,
      "Rows": 936,
      "SAR": 0.13285432915732,
      "SamplesPerPixel": 1,
      "ScanOptions": [
        "PFP",
        "FS"
],
      "ScanningSequence": "EP",
      "SequenceName": "epfid2d1_104",
      "SequenceVariant": [
        "SK",
        "SS"
],
      "SeriesDescription": "cmrr_mbep2d_bold_2mm_MB8_Task_8x",
      "SeriesNumber": 15,
      "SeriesTime": "112303.078000",
      "SliceLocation": -91.94614064169,
      "SliceThickness": 2.0,
      "SmallestImagePixelValue": 0,
      "SoftwareVersions": "syngo MR B19",
      "SpacingBetweenSlices": 2.0000000537201,
      "SpecificCharacterSet": "ISO_IR 100",
      "StudyID": "1",
      "StudyTime": "101628.468000",
      "TransmitCoilName": "Body",
      "VariableFlipAngleFlag": "N",
      "WindowCenterWidthExplanation": "Algo1",
      "dBdt": 0.0},
    "slices": {}
  },
  "time": {
    "samples": {
      "AcquisitionNumber": [1, 2, 3, 4, 5, 6, 7, 8, 9, 10, 11, 12, 13, 14, 15, 16, 17, 18, 19, 20, 21, 22, 23, 24, 25, 26, 27, 28, 29, 30, 31, 32, 33, 34, 35, 36, 37, 38, 39, 40, 41, 42, 43, 44, 45, 46, 47, 48, 49, 50, 51, 52, 53, 54, 55, 56, 57, 58, 59, 60, 61, 62, 63, 64, 65, 66, 67, 68, 69, 70, 71, 72, 73, 74, 75, 76, 77, 78, 79, 80, 81, 82, 83, 84, 85, 86, 87, 88, 89, 90, 91, 92, 93, 94, 95, 96, 97, 98, 99, 100, 101, 102, 103, 104, 105, 106, 107, 108, 109, 110, 111, 112, 113, 114, 115, 116, 117, 118, 119, 120, 121, 122, 123, 124, 125, 126, 127, 128, 129, 130, 131, 132, 133, 134, 135, 136, 137, 138, 139, 140, 141, 142, 143, 144, 145, 146, 147, 148, 149, 150, 151, 152, 153, 154, 155, 156, 157, 158, 159, 160, 161, 162, 163, 164, 165, 166, 167, 168, 169, 170, 171, 172, 173, 174, 175, 176, 177, 178, 179, 180, 181, 182, 183, 184, 185, 186, 187, 188, 189, 190, 191, 192, 193, 194, 195, 196, 197, 198, 199, 200, 201, 202, 203, 204, 205, 206, 207, 208, 209, 210, 211, 212, 213, 214, 215, 216, 217, 218, 219, 220, 221, 222, 223, 224, 225, 226, 227, 228, 229, 230, 231, 232, 233, 234, 235, 236, 237, 238, 239, 240, 241, 242, 243, 244, 245, 246, 247, 248, 249, 250, 251, 252, 253, 254, 255, 256, 257, 258, 259, 260, 261, 262, 263, 264, 265, 266, 267, 268, 269, 270, 271, 272, 273, 274, 275, 276, 277, 278, 279, 280, 281, 282, 283, 284, 285, 286, 287, 288, 289, 290, 291, 292, 293, 294, 295, 296, 297, 298, 299, 300, 301, 302, 303, 304, 305, 306, 307, 308, 309, 310, 311, 312, 313, 314, 315, 316, 317, 318, 319, 320, 321, 322, 323, 324, 325, 326, 327, 328, 329, 330, 331, 332, 333, 334, 335, 336, 337, 338, 339, 340, 341, 342, 343, 344, 345, 346, 347, 348, 349, 350, 351, 352, 353, 354, 355, 356, 357, 358, 359, 360, 361, 362, 363, 364, 365, 366, 367, 368, 369, 370, 371, 372, 373, 374, 375, 376, 377, 378, 379, 380, 381, 382, 383, 384, 385, 386, 387, 388, 389, 390, 391, 392, 393, 394, 395, 396, 397, 398, 399, 400, 401, 402, 403, 404, 405, 406, 407, 408, 409, 410, 411, 412, 413, 414, 415, 416, 417, 418, 419, 420, 421, 422, 423, 424, 425, 426, 427, 428, 429, 430, 431, 432, 433, 434, 435, 436, 437, 438, 439, 440, 441, 442, 443, 444, 445, 446, 447, 448, 449, 450, 451, 452, 453, 454, 455, 456, 457, 458, 459, 460, 461, 462, 463, 464, 465, 466, 467, 468, 469, 470, 471, 472, 473, 474, 475, 476, 477, 478, 479, 480, 481, 482, 483, 484, 485, 486, 487, 488, 489, 490, 491, 492, 493, 494, 495, 496, 497, 498, 499, 500, 501, 502, 503, 504, 505, 506, 507, 508, 509, 510, 511, 512, 513, 514, 515, 516, 517, 518, 519, 520, 521, 522, 523, 524, 525, 526, 527, 528, 529, 530, 531, 532, 533, 534, 535, 536, 537, 538, 539, 540, 541, 542, 543, 544, 545, 546, 547, 548, 549, 550, 551, 552, 553, 554, 555, 556, 557, 558, 559, 560, 561, 562, 563, 564, 565, 566, 567, 568, 569, 570, 571, 572, 573, 574, 575, 576, 577, 578, 579, 580, 581],
      "AcquisitionTime": ["112230.725000", "112231.512500", "112232.300000", "112233.087500", "112233.877500", "112234.665000", "112235.452500", "112236.240000", "112237.030000", "112237.817500", "112238.605000", "112239.392500", "112240.182500", "112240.970000", "112241.757500", "112242.545000", "112243.335000", "112244.122500", "112244.910000", "112245.700000", "112246.487500", "112247.275000", "112248.062500", "112248.852500", "112249.640000", "112250.427500", "112251.215000", "112252.005000", "112252.792500", "112253.580000", "112254.367500", "112255.157500", "112255.945000", "112256.732500", "112257.520000", "112258.310000", "112259.097500", "112259.885000", "112300.672500", "112301.462500", "112302.250000", "112303.037500", "112303.827500", "112304.615000", "112305.402500", "112306.190000", "112306.980000", "112307.767500", "112308.555000", "112309.342500", "112310.132500", "112310.920000", "112311.707500", "112312.495000", "112313.285000", "112314.072500", "112314.860000", "112315.647500", "112316.437500", "112317.225000", "112318.012500", "112318.800000", "112319.590000", "112320.377500", "112321.165000", "112321.955000", "112322.742500", "112323.530000", "112324.317500", "112325.107500", "112325.895000", "112326.682500", "112327.470000", "112328.260000", "112329.047500", "112329.835000", "112330.622500", "112331.412500", "112332.200000", "112332.987500", "112333.775000", "112334.565000", "112335.352500", "112336.140000", "112336.927500", "112337.717500", "112338.505000", "112339.292500", "112340.082500", "112340.870000", "112341.657500", "112342.445000", "112343.235000", "112344.022500", "112344.810000", "112345.597500", "112346.387500", "112347.175000", "112347.962500", "112348.750000", "112349.540000", "112350.327500", "112351.115000", "112351.902500", "112352.692500", "112353.480000", "112354.267500", "112355.055000", "112355.845000", "112356.632500", "112357.420000", "112358.210000", "112358.997500", "112359.785000", "112400.572500", "112401.362500", "112402.150000", "112402.937500", "112403.725000", "112404.515000", "112405.302500", "112406.090000", "112406.877500", "112407.667500", "112408.455000", "112409.242500", "112410.030000", "112410.820000", "112411.607500", "112412.395000", "112413.182500", "112413.972500", "112414.760000", "112415.547500", "112416.337500", "112417.125000", "112417.912500", "112418.700000", "112419.490000", "112420.277500", "112421.065000", "112421.852500", "112422.642500", "112423.430000", "112424.217500", "112425.005000", "112425.795000", "112426.582500", "112427.370000", "112428.157500", "112428.947500", "112429.735000", "112430.522500", "112431.310000", "112432.100000", "112432.887500", "112433.675000", "112434.465000", "112435.252500", "112436.040000", "112436.827500", "112437.617500", "112438.405000", "112439.192500", "112439.980000", "112440.770000", "112441.557500", "112442.345000", "112443.132500", "112443.922500", "112444.710000", "112445.497500", "112446.285000", "112447.075000", "112447.862500", "112448.650000", "112449.437500", "112450.227500", "112451.015000", "112451.802500", "112452.592500", "112453.380000", "112454.167500", "112454.955000", "112455.745000", "112456.532500", "112457.320000", "112458.107500", "112458.897500", "112459.685000", "112500.472500", "112501.260000", "112502.050000", "112502.837500", "112503.625000", "112504.412500", "112505.202500", "112505.990000", "112506.777500", "112507.565000", "112508.355000", "112509.142500", "112509.930000", "112510.720000", "112511.507500", "112512.295000", "112513.082500", "112513.872500", "112514.660000", "112515.447500", "112516.235000", "112517.025000", "112517.812500", "112518.600000", "112519.387500", "112520.177500", "112520.965000", "112521.752500", "112522.540000", "112523.330000", "112524.117500", "112524.905000", "112525.692500", "112526.482500", "112527.270000", "112528.057500", "112528.847500", "112529.635000", "112530.422500", "112531.210000", "112532.000000", "112532.787500", "112533.575000", "112534.362500", "112535.152500", "112535.940000", "112536.727500", "112537.515000", "112538.305000", "112539.092500", "112539.880000", "112540.667500", "112541.457500", "112542.245000", "112543.032500", "112543.822500", "112544.610000", "112545.397500", "112546.185000", "112546.975000", "112547.762500", "112548.550000", "112549.337500", "112550.127500", "112550.915000", "112551.702500", "112552.490000", "112553.280000", "112554.067500", "112554.855000", "112555.642500", "112556.432500", "112557.220000", "112558.007500", "112558.795000", "112559.585000", "112600.372500", "112601.160000", "112601.950000", "112602.737500", "112603.525000", "112604.312500", "112605.102500", "112605.890000", "112606.677500", "112607.465000", "112608.255000", "112609.042500", "112609.830000", "112610.617500", "112611.407500", "112612.195000", "112612.982500", "112613.770000", "112614.560000", "112615.347500", "112616.135000", "112616.922500", "112617.712500", "112618.500000", "112619.287500", "112620.077500", "112620.865000", "112621.652500", "112622.440000", "112623.230000", "112624.017500", "112624.805000", "112625.592500", "112626.382500", "112627.170000", "112627.957500", "112628.745000", "112629.535000", "112630.322500", "112631.110000", "112631.897500", "112632.687500", "112633.475000", "112634.262500", "112635.050000", "112635.840000", "112636.627500", "112637.415000", "112638.205000", "112638.992500", "112639.780000", "112640.567500", "112641.357500", "112642.145000", "112642.932500", "112643.720000", "112644.510000", "112645.297500", "112646.085000", "112646.872500", "112647.662500", "112648.450000", "112649.237500", "112650.025000", "112650.815000", "112651.602500", "112652.390000", "112653.177500", "112653.967500", "112654.755000", "112655.542500", "112656.332500", "112657.120000", "112657.907500", "112658.695000", "112659.485000", "112700.272500", "112701.060000", "112701.847500", "112702.637500", "112703.425000", "112704.212500", "112705.000000", "112705.790000", "112706.577500", "112707.365000", "112708.152500", "112708.942500", "112709.730000", "112710.517500", "112711.305000", "112712.095000", "112712.882500", "112713.670000", "112714.460000", "112715.247500", "112716.035000", "112716.822500", "112717.612500", "112718.400000", "112719.187500", "112719.975000", "112720.765000", "112721.552500", "112722.340000", "112723.127500", "112723.917500", "112724.705000", "112725.492500", "112726.280000", "112727.070000", "112727.857500", "112728.645000", "112729.432500", "112730.222500", "112731.010000", "112731.797500", "112732.587500", "112733.375000", "112734.162500", "112734.950000", "112735.740000", "112736.527500", "112737.315000", "112738.102500", "112738.892500", "112739.680000", "112740.467500", "112741.255000", "112742.045000", "112742.832500", "112743.620000", "112744.407500", "112745.197500", "112745.985000", "112746.772500", "112747.560000", "112748.350000", "112749.137500", "112749.925000", "112750.715000", "112751.502500", "112752.290000", "112753.077500", "112753.867500", "112754.655000", "112755.442500", "112756.230000", "112757.020000", "112757.807500", "112758.595000", "112759.382500", "112800.172500", "112800.960000", "112801.747500", "112802.535000", "112803.325000", "112804.112500", "112804.900000", "112805.687500", "112806.477500", "112807.265000", "112808.052500", "112808.842500", "112809.630000", "112810.417500", "112811.205000", "112811.995000", "112812.782500", "112813.570000", "112814.357500", "112815.147500", "112815.935000", "112816.722500", "112817.510000", "112818.300000", "112819.087500", "112819.875000", "112820.662500", "112821.452500", "112822.240000", "112823.027500", "112823.815000", "112824.605000", "112825.392500", "112826.180000", "112826.970000", "112827.757500", "112828.545000", "112829.332500", "112830.122500", "112830.910000", "112831.697500", "112832.485000", "112833.275000", "112834.062500", "112834.850000", "112835.637500", "112836.427500", "112837.215000", "112838.002500", "112838.790000", "112839.580000", "112840.367500", "112841.155000", "112841.942500", "112842.732500", "112843.520000", "112844.307500", "112845.097500", "112845.885000", "112846.672500", "112847.460000", "112848.250000", "112849.037500", "112849.825000", "112850.612500", "112851.402500", "112852.190000", "112852.977500", "112853.765000", "112854.555000", "112855.342500", "112856.130000", "112856.917500", "112857.707500", "112858.495000", "112859.282500", "112900.072500", "112900.860000", "112901.647500", "112902.435000", "112903.225000", "112904.012500", "112904.800000", "112905.587500", "112906.377500", "112907.165000", "112907.952500", "112908.740000", "112909.530000", "112910.317500", "112911.105000", "112911.892500", "112912.682500", "112913.470000", "112914.257500", "112915.045000", "112915.835000", "112916.622500", "112917.410000", "112918.200000", "112918.987500", "112919.775000", "112920.562500", "112921.352500", "112922.140000", "112922.927500", "112923.715000", "112924.505000", "112925.292500", "112926.080000", "112926.867500", "112927.657500", "112928.445000", "112929.232500", "112930.020000", "112930.810000", "112931.597500", "112932.385000", "112933.172500", "112933.962500", "112934.750000", "112935.537500", "112936.327500", "112937.115000", "112937.902500", "112938.690000", "112939.480000", "112940.267500", "112941.055000", "112941.842500", "112942.632500", "112943.420000", "112944.207500", "112944.995000", "112945.785000", "112946.572500", "112947.360000", "112948.147500", "112948.937500", "112949.725000", "112950.512500", "112951.300000", "112952.090000", "112952.877500", "112953.665000", "112954.455000", "112955.242500", "112956.030000", "112956.817500", "112957.607500", "112958.395000", "112959.182500", "112959.970000", "113000.760000", "113001.547500", "113002.335000", "113003.122500", "113003.912500", "113004.700000", "113005.487500", "113006.275000", "113007.065000", "113007.852500"],
      "ContentTime": ["112303.078000", "112303.093000", "112303.093000", "112303.093000", "112303.093000", "112303.093000", "112303.093000", "112303.093000", "112303.109000", "112303.109000", "112303.109000", "112303.109000", "112303.109000", "112303.125000", "112303.125000", "112303.125000", "112303.125000", "112303.125000", "112303.125000", "112303.125000", "112303.140000", "112303.140000", "112303.140000", "112303.140000", "112303.140000", "112303.156000", "112303.156000", "112303.156000", "112303.156000", "112303.156000", "112303.156000", "112303.171000", "112303.171000", "112303.171000", "112303.171000", "112303.171000", "112303.171000", "112303.171000", "112323.062000", "112323.062000", "112323.062000", "112323.062000", "112323.062000", "112323.078000", "112323.078000", "112323.078000", "112323.078000", "112323.078000", "112323.078000", "112323.078000", "112323.093000", "112323.093000", "112323.093000", "112323.093000", "112323.093000", "112323.093000", "112323.093000", "112323.093000", "112323.109000", "112323.109000", "112323.109000", "112323.109000", "112323.109000", "112343.062000", "112343.062000", "112343.062000", "112343.062000", "112343.062000", "112343.078000", "112343.078000", "112343.078000", "112343.078000", "112343.078000", "112343.078000", "112343.078000", "112343.078000", "112343.093000", "112343.093000", "112343.093000", "112343.093000", "112343.093000", "112343.093000", "112343.093000", "112343.109000", "112343.109000", "112343.109000", "112343.109000", "112343.109000", "112343.109000", "112403.062000", "112403.062000", "112403.062000", "112403.062000", "112403.062000", "112403.078000", "112403.078000", "112403.078000", "112403.078000", "112403.078000", "112403.078000", "112403.093000", "112403.093000", "112403.093000", "112403.093000", "112403.093000", "112403.109000", "112403.109000", "112403.109000", "112403.109000", "112403.109000", "112403.109000", "112403.109000", "112403.109000", "112403.125000", "112423.062000", "112423.062000", "112423.062000", "112423.062000", "112423.062000", "112423.078000", "112423.078000", "112423.078000", "112423.078000", "112423.078000", "112423.078000", "112423.078000", "112423.078000", "112423.093000", "112423.093000", "112423.093000", "112423.093000", "112423.093000", "112423.093000", "112423.093000", "112423.109000", "112423.109000", "112423.109000", "112423.109000", "112423.109000", "112423.109000", "112443.062000", "112443.062000", "112443.062000", "112443.062000", "112443.062000", "112443.078000", "112443.078000", "112443.078000", "112443.078000", "112443.078000", "112443.078000", "112443.078000", "112443.078000", "112443.093000", "112443.093000", "112443.093000", "112443.093000", "112443.093000", "112443.093000", "112443.093000", "112443.109000", "112443.109000", "112443.109000", "112443.109000", "112443.109000", "112503.062000", "112503.062000", "112503.062000", "112503.062000", "112503.062000", "112503.078000", "112503.078000", "112503.078000", "112503.078000", "112503.078000", "112503.078000", "112503.078000", "112503.093000", "112503.093000", "112503.093000", "112503.093000", "112503.093000", "112503.093000", "112503.109000", "112503.109000", "112503.109000", "112503.109000", "112503.109000", "112503.109000", "112503.125000", "112523.062000", "112523.062000", "112523.062000", "112523.062000", "112523.062000", "112523.078000", "112523.078000", "112523.078000", "112523.078000", "112523.078000", "112523.078000", "112523.078000", "112523.093000", "112523.093000", "112523.093000", "112523.093000", "112523.093000", "112523.093000", "112523.093000", "112523.093000", "112523.109000", "112523.109000", "112523.109000", "112523.109000", "112523.109000", "112523.109000", "112543.062000", "112543.062000", "112543.062000", "112543.062000", "112543.078000", "112543.078000", "112543.078000", "112543.078000", "112543.078000", "112543.078000", "112543.093000", "112543.093000", "112543.093000", "112543.093000", "112543.093000", "112543.093000", "112543.093000", "112543.093000", "112543.109000", "112543.109000", "112543.109000", "112543.109000", "112543.109000", "112543.109000", "112543.109000", "112603.062000", "112603.062000", "112603.062000", "112603.062000", "112603.062000", "112603.078000", "112603.078000", "112603.078000", "112603.078000", "112603.078000", "112603.078000", "112603.078000", "112603.078000", "112603.093000", "112603.093000", "112603.093000", "112603.093000", "112603.093000", "112603.109000", "112603.109000", "112603.109000", "112603.109000", "112603.109000", "112603.109000", "112603.109000", "112603.125000", "112623.062000", "112623.062000", "112623.062000", "112623.062000", "112623.078000", "112623.078000", "112623.078000", "112623.078000", "112623.078000", "112623.078000", "112623.078000", "112623.078000", "112623.093000", "112623.093000", "112623.093000", "112623.093000", "112623.109000", "112623.109000", "112623.109000", "112623.109000", "112623.109000", "112623.125000", "112623.125000", "112623.125000", "112623.125000", "112643.062000", "112643.062000", "112643.062000", "112643.062000", "112643.062000", "112643.078000", "112643.078000", "112643.078000", "112643.078000", "112643.078000", "112643.078000", "112643.078000", "112643.093000", "112643.093000", "112643.093000", "112643.093000", "112643.093000", "112643.093000", "112643.093000", "112643.109000", "112643.109000", "112643.109000", "112643.109000", "112643.109000", "112643.109000", "112643.109000", "112703.062000", "112703.062000", "112703.062000", "112703.062000", "112703.062000", "112703.078000", "112703.078000", "112703.078000", "112703.078000", "112703.078000", "112703.078000", "112703.078000", "112703.093000", "112703.093000", "112703.093000", "112703.093000", "112703.093000", "112703.093000", "112703.093000", "112703.093000", "112703.109000", "112703.109000", "112703.109000", "112703.109000", "112703.109000", "112723.062000", "112723.062000", "112723.062000", "112723.062000", "112723.062000", "112723.078000", "112723.078000", "112723.078000", "112723.078000", "112723.078000", "112723.078000", "112723.078000", "112723.093000", "112723.093000", "112723.093000", "112723.093000", "112723.093000", "112723.093000", "112723.093000", "112723.093000", "112723.109000", "112723.109000", "112723.109000", "112723.109000", "112723.109000", "112723.109000", "112743.062000", "112743.062000", "112743.062000", "112743.062000", "112743.062000", "112743.078000", "112743.078000", "112743.078000", "112743.078000", "112743.078000", "112743.078000", "112743.078000", "112743.093000", "112743.093000", "112743.093000", "112743.093000", "112743.093000", "112743.093000", "112743.093000", "112743.093000", "112743.109000", "112743.109000", "112743.109000", "112743.109000", "112743.109000", "112803.062000", "112803.062000", "112803.062000", "112803.062000", "112803.062000", "112803.078000", "112803.078000", "112803.078000", "112803.078000", "112803.078000", "112803.078000", "112803.078000", "112803.093000", "112803.093000", "112803.093000", "112803.093000", "112803.093000", "112803.093000", "112803.093000", "112803.093000", "112803.109000", "112803.109000", "112803.109000", "112803.109000", "112803.109000", "112803.109000", "112823.062000", "112823.062000", "112823.062000", "112823.062000", "112823.062000", "112823.078000", "112823.078000", "112823.078000", "112823.078000", "112823.078000", "112823.078000", "112823.078000", "112823.093000", "112823.093000", "112823.093000", "112823.093000", "112823.093000", "112823.093000", "112823.093000", "112823.093000", "112823.109000", "112823.109000", "112823.109000", "112823.109000", "112823.109000", "112843.062000", "112843.062000", "112843.062000", "112843.062000", "112843.062000", "112843.078000", "112843.078000", "112843.078000", "112843.078000", "112843.078000", "112843.078000", "112843.078000", "112843.078000", "112843.093000", "112843.093000", "112843.093000", "112843.093000", "112843.093000", "112843.093000", "112843.093000", "112843.109000", "112843.109000", "112843.109000", "112843.109000", "112843.109000", "112843.109000", "112903.062000", "112903.062000", "112903.062000", "112903.062000", "112903.062000", "112903.078000", "112903.078000", "112903.078000", "112903.078000", "112903.078000", "112903.078000", "112903.078000", "112903.093000", "112903.093000", "112903.093000", "112903.093000", "112903.093000", "112903.093000", "112903.093000", "112903.093000", "112903.109000", "112903.109000", "112903.109000", "112903.109000", "112903.109000", "112923.062000", "112923.062000", "112923.062000", "112923.062000", "112923.062000", "112923.078000", "112923.078000", "112923.078000", "112923.078000", "112923.078000", "112923.078000", "112923.078000", "112923.093000", "112923.093000", "112923.093000", "112923.093000", "112923.093000", "112923.093000", "112923.093000", "112923.093000", "112923.109000", "112923.109000", "112923.109000", "112923.109000", "112923.109000", "112923.109000", "112943.062000", "112943.062000", "112943.062000", "112943.062000", "112943.062000", "112943.078000", "112943.078000", "112943.078000", "112943.078000", "112943.078000", "112943.078000", "112943.093000", "112943.093000", "112943.093000", "112943.093000", "112943.093000", "112943.093000", "112943.093000", "112943.109000", "112943.109000", "112943.109000", "112943.109000", "112943.109000", "112943.109000", "112943.109000", "113003.062000", "113003.062000", "113003.062000", "113003.062000", "113003.062000", "113003.078000", "113003.078000", "113003.078000", "113003.078000", "113003.078000", "113003.078000", "113003.078000", "113003.093000", "113003.093000", "113003.093000", "113003.093000", "113003.093000", "113003.093000", "113003.093000", "113003.093000", "113003.109000", "113003.109000", "113003.109000", "113003.109000", "113003.109000", "113003.125000", "113009.265000", "113009.281000", "113009.281000", "113009.281000", "113009.281000", "113009.281000", "113009.281000", "113009.281000"],
