{
  "AcquisitionMatrixPE": 104,
  "AcquisitionNumber": 1,
  "AcquisitionTime": "11:14:32.077500",
  "BandwidthPerPixelPhaseEncode": 13.935,
  "BaseResolution": 104,
  "CoilString": "C:HEA;HEP",
  "ConversionSoftware": "dcm2niix",
  "ConversionSoftwareVersion": "v1.0.20210317",
  "DerivedVendorReportedEchoSpacing": 0.000690017,
  "DeviceSerialNumber": "35450",
  "DwellTime": 2.5e-06,
  "EchoTime": 0.0348,
  "EffectiveEchoSpacing": 0.000690017,
  "FlipAngle": 55,
  "ImageComments": "Unaliased MB8/PE3 (remote)",
  "ImageOrientationPatientDICOM": [0.999938, -0.00123514, -0.0110232, 1.12873e-08, 0.993781, -0.111351],
  "ImageType": [
    "ORIGINAL",
    "PRIMARY",
    "M",
    "MB",
    "ND",
    "MOSAIC"
],
  "ImagingFrequency": 123.235,
  "InPlanePhaseEncodingDirectionDICOM": "COL",
  "InstitutionAddress": "Univeristy Ave. 197,Newark,North East,US,07102-1814",
  "InstitutionName": "RUBIC",
  "InstitutionalDepartmentName": "Department",
  "MRAcquisitionType": "2D",
  "MagneticFieldStrength": 3,
  "Manufacturer": "Siemens",
  "ManufacturersModelName": "TrioTim",
  "Modality": "MR",
  "MultibandAccelerationFactor": 8,
  "PartialFourier": 0.875,
  "PatientPosition": "HFS",
  "PercentPhaseFOV": 100,
  "PercentSampling": 100,
  "PhaseEncodingDirection": "j-",
  "PhaseEncodingSteps": 91,
  "PhaseResolution": 1,
  "PixelBandwidth": 1923,
  "ProcedureStepDescription": "Cole^Michael",
  "ProtocolName": "cmrr_mbep2d_bold_2mm_MB8_Task_8x",
  "PulseSequenceDetails": "%CustomerSeq%\\cmrr_mbep2d_bold",
  "ReceiveCoilName": "32Ch_Head",
  "ReconMatrixPE": 104,
  "RepetitionTime": 0.785,
  "SAR": 0.136644,
  "ScanOptions": "PFP\\FS",
  "ScanningSequence": "EP",
  "SequenceName": "epfid2d1_104",
  "SequenceVariant": "SK\\SS",
  "SeriesDescription": "cmrr_mbep2d_bold_2mm_MB8_Task_8x",
  "SeriesNumber": 13,
  "ShimSetting": [2125, -431, -7418, 548, 136, -669, 238, -49],
  "SliceThickness": 2,
  "SliceTiming": [0, 0.4375, 0.0875, 0.525, 0.175, 0.6125, 0.2625, 0.7, 0.35, 0, 0.4375, 0.0875, 0.525, 0.175, 0.6125, 0.2625, 0.7, 0.35, 0, 0.4375, 0.0875, 0.525, 0.175, 0.6125, 0.2625, 0.7, 0.35, 0, 0.4375, 0.0875, 0.525, 0.175, 0.6125, 0.2625, 0.7, 0.35, 0, 0.4375, 0.0875, 0.525, 0.175, 0.6125, 0.2625, 0.7, 0.35, 0, 0.4375, 0.0875, 0.525, 0.175, 0.6125, 0.2625, 0.7, 0.35, 0, 0.4375, 0.0875, 0.525, 0.175, 0.6125, 0.2625, 0.7, 0.35, 0, 0.4375, 0.0875, 0.525, 0.175, 0.6125, 0.2625, 0.7, 0.35],
  "SoftwareVersions": "syngo MR B19",
  "SpacingBetweenSlices": 2,
  "StationName": "MRC35450",
  "TaskName": "cpro",
  "TotalReadoutTime": 0.0710717,
  "TxRefAmp": 323.504,
  "dcmmeta_affine": [
    [-1.9998769760131836, 2.257453957099642e-08, -0.022184379398822784, 103.84369659423828],
    [0.0024702781811356544, 1.9875622987747192, -0.22268857061862946, -87.72187805175781],
    [-0.022046415135264397, 0.2227022647857666, 1.9874399900436401, -101.19713592529297],
    [0.0, 0.0, 0.0, 1.0]
],
  "dcmmeta_reorient_transform": [
    [0.0, -1.0, 0.0, 103.0],
    [1.0, 0.0, 0.0, 0.0],
    [0.0, 0.0, 1.0, 0.0],
    [0.0, 0.0, 0.0, 1.0]
],
  "dcmmeta_shape": [104, 104, 72, 581],
  "dcmmeta_slice_dim": 2,
  "dcmmeta_version": 0.6,
  "global": {
    "const": {
      "AcquisitionMatrix": [104, 0, 0, 104],
      "AngioFlag": "N",
      "BitsAllocated": 16,
      "BitsStored": 12,
      "Columns": 936,
      "EchoNumbers": 1,
      "EchoTime": 34.8,
      "EchoTrainLength": 1,
      "FlipAngle": 55.0,
      "HighBit": 11,
      "ImageOrientationPatient": [0.99993847977015, -0.0012351391402, -0.0110232076216, 1.128727e-08, 0.99378112518585, -0.1113511348139],
      "ImagePositionPatient": [-935.79252707413, -942.79529788256, 23.556651487433],
      "ImageType": [
        "ORIGINAL",
        "PRIMARY",
        "M",
        "MB",
        "ND",
        "MOSAIC"
],
      "ImagedNucleus": "1H",
      "ImagingFrequency": 123.234521,
      "InPlanePhaseEncodingDirection": "COL",
      "MRAcquisitionType": "2D",
      "MagneticFieldStrength": 3.0,
      "Manufacturer": "SIEMENS",
      "ManufacturerModelName": "TrioTim",
      "Modality": "MR",
      "NumberOfAverages": 1.0,
      "NumberOfPhaseEncodingSteps": 91,
      "PercentPhaseFieldOfView": 100.0,
      "PercentSampling": 100.0,
      "PerformedProcedureStepStartTime": "101628.609000",
      "PhotometricInterpretation": "MONOCHROME2",
      "PixelBandwidth": 1923.0,
      "PixelRepresentation": 0,
      "PixelSpacing": [2.0, 2.0],
      "ProtocolName": "cmrr_mbep2d_bold_2mm_MB8_Task_8x",
      "RepetitionTime": 785.0,
      "Rows": 936,
      "SAR": 0.13664432522485,
      "SamplesPerPixel": 1,
      "ScanOptions": [
        "PFP",
        "FS"
],
      "ScanningSequence": "EP",
      "SequenceName": "epfid2d1_104",
      "SequenceVariant": [
        "SK",
        "SS"
],
      "SeriesDescription": "cmrr_mbep2d_bold_2mm_MB8_Task_8x",
      "SeriesNumber": 13,
      "SeriesTime": "111453.593000",
      "SliceLocation": -91.94614064169,
      "SliceThickness": 2.0,
      "SmallestImagePixelValue": 0,
      "SoftwareVersions": "syngo MR B19",
      "SpacingBetweenSlices": 2.0000000537201,
      "SpecificCharacterSet": "ISO_IR 100",
      "StudyID": "1",
      "StudyTime": "101628.468000",
      "TransmitCoilName": "Body",
      "VariableFlipAngleFlag": "N",
      "WindowCenterWidthExplanation": "Algo1",
      "dBdt": 0.0},
    "slices": {}
  },
  "time": {
    "samples": {
      "AcquisitionNumber": [1, 2, 3, 4, 5, 6, 7, 8, 9, 10, 11, 12, 13, 14, 15, 16, 17, 18, 19, 20, 21, 22, 23, 24, 25, 26, 27, 28, 29, 30, 31, 32, 33, 34, 35, 36, 37, 38, 39, 40, 41, 42, 43, 44, 45, 46, 47, 48, 49, 50, 51, 52, 53, 54, 55, 56, 57, 58, 59, 60, 61, 62, 63, 64, 65, 66, 67, 68, 69, 70, 71, 72, 73, 74, 75, 76, 77, 78, 79, 80, 81, 82, 83, 84, 85, 86, 87, 88, 89, 90, 91, 92, 93, 94, 95, 96, 97, 98, 99, 100, 101, 102, 103, 104, 105, 106, 107, 108, 109, 110, 111, 112, 113, 114, 115, 116, 117, 118, 119, 120, 121, 122, 123, 124, 125, 126, 127, 128, 129, 130, 131, 132, 133, 134, 135, 136, 137, 138, 139, 140, 141, 142, 143, 144, 145, 146, 147, 148, 149, 150, 151, 152, 153, 154, 155, 156, 157, 158, 159, 160, 161, 162, 163, 164, 165, 166, 167, 168, 169, 170, 171, 172, 173, 174, 175, 176, 177, 178, 179, 180, 181, 182, 183, 184, 185, 186, 187, 188, 189, 190, 191, 192, 193, 194, 195, 196, 197, 198, 199, 200, 201, 202, 203, 204, 205, 206, 207, 208, 209, 210, 211, 212, 213, 214, 215, 216, 217, 218, 219, 220, 221, 222, 223, 224, 225, 226, 227, 228, 229, 230, 231, 232, 233, 234, 235, 236, 237, 238, 239, 240, 241, 242, 243, 244, 245, 246, 247, 248, 249, 250, 251, 252, 253, 254, 255, 256, 257, 258, 259, 260, 261, 262, 263, 264, 265, 266, 267, 268, 269, 270, 271, 272, 273, 274, 275, 276, 277, 278, 279, 280, 281, 282, 283, 284, 285, 286, 287, 288, 289, 290, 291, 292, 293, 294, 295, 296, 297, 298, 299, 300, 301, 302, 303, 304, 305, 306, 307, 308, 309, 310, 311, 312, 313, 314, 315, 316, 317, 318, 319, 320, 321, 322, 323, 324, 325, 326, 327, 328, 329, 330, 331, 332, 333, 334, 335, 336, 337, 338, 339, 340, 341, 342, 343, 344, 345, 346, 347, 348, 349, 350, 351, 352, 353, 354, 355, 356, 357, 358, 359, 360, 361, 362, 363, 364, 365, 366, 367, 368, 369, 370, 371, 372, 373, 374, 375, 376, 377, 378, 379, 380, 381, 382, 383, 384, 385, 386, 387, 388, 389, 390, 391, 392, 393, 394, 395, 396, 397, 398, 399, 400, 401, 402, 403, 404, 405, 406, 407, 408, 409, 410, 411, 412, 413, 414, 415, 416, 417, 418, 419, 420, 421, 422, 423, 424, 425, 426, 427, 428, 429, 430, 431, 432, 433, 434, 435, 436, 437, 438, 439, 440, 441, 442, 443, 444, 445, 446, 447, 448, 449, 450, 451, 452, 453, 454, 455, 456, 457, 458, 459, 460, 461, 462, 463, 464, 465, 466, 467, 468, 469, 470, 471, 472, 473, 474, 475, 476, 477, 478, 479, 480, 481, 482, 483, 484, 485, 486, 487, 488, 489, 490, 491, 492, 493, 494, 495, 496, 497, 498, 499, 500, 501, 502, 503, 504, 505, 506, 507, 508, 509, 510, 511, 512, 513, 514, 515, 516, 517, 518, 519, 520, 521, 522, 523, 524, 525, 526, 527, 528, 529, 530, 531, 532, 533, 534, 535, 536, 537, 538, 539, 540, 541, 542, 543, 544, 545, 546, 547, 548, 549, 550, 551, 552, 553, 554, 555, 556, 557, 558, 559, 560, 561, 562, 563, 564, 565, 566, 567, 568, 569, 570, 571, 572, 573, 574, 575, 576, 577, 578, 579, 580, 581],
      "AcquisitionTime": ["111432.077500", "111432.865000", "111433.652500", "111434.442500", "111435.230000", "111436.017500", "111436.805000", "111437.595000", "111438.382500", "111439.170000", "111439.957500", "111440.747500", "111441.535000", "111442.322500", "111443.110000", "111443.900000", "111444.687500", "111445.475000", "111446.262500", "111447.052500", "111447.840000", "111448.627500", "111449.417500", "111450.205000", "111450.992500", "111451.780000", "111452.570000", "111453.357500", "111454.145000", "111454.932500", "111455.722500", "111456.510000", "111457.297500", "111458.085000", "111458.875000", "111459.662500", "111500.450000", "111501.237500", "111502.027500", "111502.815000", "111503.602500", "111504.390000", "111505.180000", "111505.967500", "111506.755000", "111507.545000", "111508.332500", "111509.120000", "111509.907500", "111510.697500", "111511.485000", "111512.272500", "111513.060000", "111513.850000", "111514.637500", "111515.425000", "111516.212500", "111517.002500", "111517.790000", "111518.577500", "111519.365000", "111520.155000", "111520.942500", "111521.730000", "111522.517500", "111523.307500", "111524.095000", "111524.882500", "111525.672500", "111526.460000", "111527.247500", "111528.035000", "111528.825000", "111529.612500", "111530.400000", "111531.187500", "111531.977500", "111532.765000", "111533.552500", "111534.340000", "111535.130000", "111535.917500", "111536.705000", "111537.492500", "111538.282500", "111539.070000", "111539.857500", "111540.645000", "111541.435000", "111542.222500", "111543.010000", "111543.800000", "111544.587500", "111545.375000", "111546.162500", "111546.952500", "111547.740000", "111548.527500", "111549.315000", "111550.105000", "111550.892500", "111551.680000", "111552.467500", "111553.257500", "111554.045000", "111554.832500", "111555.620000", "111556.410000", "111557.197500", "111557.985000", "111558.775000", "111559.562500", "111600.350000", "111601.137500", "111601.927500", "111602.715000", "111603.502500", "111604.290000", "111605.080000", "111605.867500", "111606.655000", "111607.442500", "111608.232500", "111609.020000", "111609.807500", "111610.595000", "111611.385000", "111612.172500", "111612.960000", "111613.747500", "111614.537500", "111615.325000", "111616.112500", "111616.902500", "111617.690000", "111618.477500", "111619.265000", "111620.055000", "111620.842500", "111621.630000", "111622.417500", "111623.207500", "111623.995000", "111624.782500", "111625.570000", "111626.360000", "111627.147500", "111627.935000", "111628.722500", "111629.512500", "111630.300000", "111631.087500", "111631.875000", "111632.665000", "111633.452500", "111634.240000", "111635.030000", "111635.817500", "111636.605000", "111637.392500", "111638.182500", "111638.970000", "111639.757500", "111640.545000", "111641.335000", "111642.122500", "111642.910000", "111643.697500", "111644.487500", "111645.275000", "111646.062500", "111646.850000", "111647.640000", "111648.427500", "111649.215000", "111650.002500", "111650.792500", "111651.580000", "111652.367500", "111653.157500", "111653.945000", "111654.732500", "111655.520000", "111656.310000", "111657.097500", "111657.885000", "111658.672500", "111659.462500", "111700.250000", "111701.037500", "111701.825000", "111702.615000", "111703.402500", "111704.190000", "111704.977500", "111705.767500", "111706.555000", "111707.342500", "111708.130000", "111708.920000", "111709.707500", "111710.495000", "111711.285000", "111712.072500", "111712.860000", "111713.647500", "111714.437500", "111715.225000", "111716.012500", "111716.800000", "111717.590000", "111718.377500", "111719.165000", "111719.952500", "111720.742500", "111721.530000", "111722.317500", "111723.105000", "111723.895000", "111724.682500", "111725.470000", "111726.257500", "111727.047500", "111727.835000", "111728.622500", "111729.412500", "111730.200000", "111730.987500", "111731.775000", "111732.565000", "111733.352500", "111734.140000", "111734.927500", "111735.717500", "111736.505000", "111737.292500", "111738.080000", "111738.870000", "111739.657500", "111740.445000", "111741.232500", "111742.022500", "111742.810000", "111743.597500", "111744.385000", "111745.175000", "111745.962500", "111746.750000", "111747.540000", "111748.327500", "111749.115000", "111749.902500", "111750.692500", "111751.480000", "111752.267500", "111753.055000", "111753.845000", "111754.632500", "111755.420000", "111756.207500", "111756.997500", "111757.785000", "111758.572500", "111759.360000", "111800.150000", "111800.937500", "111801.725000", "111802.512500", "111803.302500", "111804.090000", "111804.877500", "111805.667500", "111806.455000", "111807.242500", "111808.030000", "111808.820000", "111809.607500", "111810.395000", "111811.182500", "111811.972500", "111812.760000", "111813.547500", "111814.335000", "111815.125000", "111815.912500", "111816.700000", "111817.487500", "111818.277500", "111819.065000", "111819.852500", "111820.640000", "111821.430000", "111822.217500", "111823.005000", "111823.795000", "111824.582500", "111825.370000", "111826.157500", "111826.947500", "111827.735000", "111828.522500", "111829.310000", "111830.100000", "111830.887500", "111831.675000", "111832.462500", "111833.252500", "111834.040000", "111834.827500", "111835.615000", "111836.405000", "111837.192500", "111837.980000", "111838.767500", "111839.557500", "111840.345000", "111841.132500", "111841.922500", "111842.710000", "111843.497500", "111844.285000", "111845.075000", "111845.862500", "111846.650000", "111847.437500", "111848.227500", "111849.015000", "111849.802500", "111850.590000", "111851.380000", "111852.167500", "111852.955000", "111853.742500", "111854.532500", "111855.320000", "111856.107500", "111856.895000", "111857.685000", "111858.472500", "111859.260000", "111900.050000", "111900.837500", "111901.625000", "111902.412500", "111903.202500", "111903.990000", "111904.777500", "111905.565000", "111906.355000", "111907.142500", "111907.930000", "111908.717500", "111909.507500", "111910.295000", "111911.082500", "111911.870000", "111912.660000", "111913.447500", "111914.235000", "111915.025000", "111915.812500", "111916.600000", "111917.387500", "111918.177500", "111918.965000", "111919.752500", "111920.540000", "111921.330000", "111922.117500", "111922.905000", "111923.692500", "111924.482500", "111925.270000", "111926.057500", "111926.845000", "111927.635000", "111928.422500", "111929.210000", "111929.997500", "111930.787500", "111931.575000", "111932.362500", "111933.152500", "111933.940000", "111934.727500", "111935.515000", "111936.305000", "111937.092500", "111937.880000", "111938.667500", "111939.457500", "111940.245000", "111941.032500", "111941.820000", "111942.610000", "111943.397500", "111944.185000", "111944.972500", "111945.762500", "111946.550000", "111947.337500", "111948.125000", "111948.915000", "111949.702500", "111950.490000", "111951.280000", "111952.067500", "111952.855000", "111953.642500", "111954.432500", "111955.220000", "111956.007500", "111956.795000", "111957.585000", "111958.372500", "111959.160000", "111959.947500", "112000.737500", "112001.525000", "112002.312500", "112003.100000", "112003.890000", "112004.677500", "112005.465000", "112006.252500", "112007.042500", "112007.830000", "112008.617500", "112009.407500", "112010.195000", "112010.982500", "112011.770000", "112012.560000", "112013.347500", "112014.135000", "112014.922500", "112015.712500", "112016.500000", "112017.287500", "112018.075000", "112018.865000", "112019.652500", "112020.440000", "112021.227500", "112022.017500", "112022.805000", "112023.592500", "112024.380000", "112025.170000", "112025.957500", "112026.745000", "112027.535000", "112028.322500", "112029.110000", "112029.897500", "112030.687500", "112031.475000", "112032.262500", "112033.050000", "112033.840000", "112034.627500", "112035.415000", "112036.202500", "112036.992500", "112037.780000", "112038.567500", "112039.355000", "112040.145000", "112040.932500", "112041.720000", "112042.507500", "112043.297500", "112044.085000", "112044.872500", "112045.662500", "112046.450000", "112047.237500", "112048.025000", "112048.815000", "112049.602500", "112050.390000", "112051.177500", "112051.967500", "112052.755000", "112053.542500", "112054.330000", "112055.120000", "112055.907500", "112056.695000", "112057.482500", "112058.272500", "112059.060000", "112059.847500", "112100.635000", "112101.425000", "112102.212500", "112103.000000", "112103.790000", "112104.577500", "112105.365000", "112106.152500", "112106.942500", "112107.730000", "112108.517500", "112109.305000", "112110.095000", "112110.882500", "112111.670000", "112112.457500", "112113.247500", "112114.035000", "112114.822500", "112115.610000", "112116.400000", "112117.187500", "112117.975000", "112118.762500", "112119.552500", "112120.340000", "112121.127500", "112121.917500", "112122.705000", "112123.492500", "112124.280000", "112125.070000", "112125.857500", "112126.645000", "112127.432500", "112128.222500", "112129.010000", "112129.797500", "112130.585000", "112131.375000", "112132.162500", "112132.950000", "112133.737500", "112134.527500", "112135.315000", "112136.102500", "112136.890000", "112137.680000", "112138.467500", "112139.255000", "112140.045000", "112140.832500", "112141.620000", "112142.407500", "112143.197500", "112143.985000", "112144.772500", "112145.560000", "112146.350000", "112147.137500", "112147.925000", "112148.712500", "112149.502500", "112150.290000", "112151.077500", "112151.865000", "112152.655000", "112153.442500", "112154.230000", "112155.017500", "112155.807500", "112156.595000", "112157.382500", "112158.172500", "112158.960000", "112159.747500", "112200.535000", "112201.325000", "112202.112500", "112202.900000", "112203.687500", "112204.477500", "112205.265000", "112206.052500", "112206.840000", "112207.630000", "112208.417500", "112209.205000"],
      "ContentTime": ["111453.593000", "111453.593000", "111453.593000", "111453.593000", "111453.609000", "111453.609000", "111453.609000", "111453.609000", "111453.609000", "111453.609000", "111453.609000", "111453.625000", "111453.625000", "111453.625000", "111453.625000", "111453.625000", "111453.625000", "111453.625000", "111453.625000", "111453.640000", "111453.640000", "111453.640000", "111453.640000", "111453.640000", "111453.640000", "111513.578000", "111513.578000", "111513.578000", "111513.578000", "111513.578000", "111513.593000", "111513.593000", "111513.593000", "111513.593000", "111513.593000", "111513.593000", "111513.593000", "111513.593000", "111513.609000", "111513.609000", "111513.609000", "111513.609000", "111513.609000", "111513.609000", "111513.625000", "111513.625000", "111513.625000", "111513.625000", "111513.625000", "111513.625000", "111533.578000", "111533.578000", "111533.578000", "111533.578000", "111533.578000", "111533.593000", "111533.593000", "111533.593000", "111533.593000", "111533.593000", "111533.593000", "111533.593000", "111533.609000", "111533.609000", "111533.609000", "111533.609000", "111533.609000", "111533.609000", "111533.609000", "111533.625000", "111533.625000", "111533.625000", "111533.625000", "111533.625000", "111533.625000", "111533.625000", "111553.578000", "111553.578000", "111553.578000", "111553.578000", "111553.578000", "111553.593000", "111553.593000", "111553.593000", "111553.593000", "111553.593000", "111553.593000", "111553.593000", "111553.609000", "111553.609000", "111553.609000", "111553.609000", "111553.609000", "111553.609000", "111553.609000", "111553.609000", "111553.625000", "111553.625000", "111553.625000", "111553.625000", "111553.625000", "111613.578000", "111613.578000", "111613.578000", "111613.578000", "111613.578000", "111613.593000", "111613.593000", "111613.593000", "111613.593000", "111613.593000", "111613.593000", "111613.593000", "111613.593000", "111613.609000", "111613.609000", "111613.609000", "111613.609000", "111613.609000", "111613.625000", "111613.625000", "111613.625000", "111613.625000", "111613.625000", "111613.625000", "111613.625000", "111613.625000", "111633.578000", "111633.578000", "111633.578000", "111633.578000", "111633.578000", "111633.593000", "111633.593000", "111633.593000", "111633.593000", "111633.593000", "111633.609000", "111633.609000", "111633.609000", "111633.609000", "111633.609000", "111633.609000", "111633.609000", "111633.609000", "111633.625000", "111633.625000", "111633.625000", "111633.625000", "111633.625000", "111633.625000", "111633.640000", "111653.578000", "111653.578000", "111653.578000", "111653.578000", "111653.578000", "111653.593000", "111653.593000", "111653.593000", "111653.593000", "111653.593000", "111653.593000", "111653.593000", "111653.593000", "111653.609000", "111653.609000", "111653.609000", "111653.609000", "111653.609000", "111653.609000", "111653.609000", "111653.625000", "111653.625000", "111653.625000", "111653.625000", "111653.625000", "111653.625000", "111713.578000", "111713.578000", "111713.578000", "111713.578000", "111713.578000", "111713.593000", "111713.593000", "111713.593000", "111713.593000", "111713.593000", "111713.593000", "111713.593000", "111713.593000", "111713.609000", "111713.609000", "111713.609000", "111713.609000", "111713.609000", "111713.609000", "111713.609000", "111713.625000", "111713.625000", "111713.625000", "111713.625000", "111713.625000", "111733.578000", "111733.578000", "111733.578000", "111733.578000", "111733.578000", "111733.593000", "111733.593000", "111733.593000", "111733.593000", "111733.593000", "111733.593000", "111733.593000", "111733.609000", "111733.609000", "111733.609000", "111733.609000", "111733.609000", "111733.609000", "111733.625000", "111733.625000", "111733.625000", "111733.625000", "111733.625000", "111733.625000", "111733.625000", "111753.578000", "111753.578000", "111753.578000", "111753.578000", "111753.578000", "111753.593000", "111753.593000", "111753.593000", "111753.593000", "111753.593000", "111753.593000", "111753.593000", "111753.609000", "111753.609000", "111753.609000", "111753.609000", "111753.609000", "111753.609000", "111753.609000", "111753.609000", "111753.625000", "111753.625000", "111753.625000", "111753.625000", "111753.625000", "111753.625000", "111813.578000", "111813.578000", "111813.578000", "111813.578000", "111813.593000", "111813.593000", "111813.593000", "111813.593000", "111813.593000", "111813.593000", "111813.609000", "111813.609000", "111813.609000", "111813.609000", "111813.625000", "111813.625000", "111813.640000", "111813.640000", "111813.640000", "111813.640000", "111813.640000", "111813.640000", "111813.640000", "111813.656000", "111813.656000", "111833.578000", "111833.578000", "111833.578000", "111833.578000", "111833.578000", "111833.593000", "111833.593000", "111833.593000", "111833.593000", "111833.593000", "111833.593000", "111833.593000", "111833.609000", "111833.609000", "111833.609000", "111833.609000", "111833.609000", "111833.609000", "111833.609000", "111833.625000", "111833.625000", "111833.625000", "111833.625000", "111833.625000", "111833.625000", "111833.625000", "111853.578000", "111853.578000", "111853.578000", "111853.578000", "111853.578000", "111853.593000", "111853.593000", "111853.593000", "111853.593000", "111853.593000", "111853.593000", "111853.593000", "111853.609000", "111853.609000", "111853.609000", "111853.609000", "111853.609000", "111853.609000", "111853.625000", "111853.625000", "111853.625000", "111853.625000", "111853.640000", "111853.640000", "111853.640000", "111913.578000", "111913.578000", "111913.578000", "111913.578000", "111913.578000", "111913.593000", "111913.593000", "111913.593000", "111913.593000", "111913.593000", "111913.593000", "111913.593000", "111913.593000", "111913.609000", "111913.609000", "111913.609000", "111913.609000", "111913.609000", "111913.609000", "111913.609000", "111913.625000", "111913.625000", "111913.625000", "111913.625000", "111913.625000", "111913.625000", "111933.578000", "111933.578000", "111933.578000", "111933.578000", "111933.578000", "111933.593000", "111933.593000", "111933.593000", "111933.593000", "111933.593000", "111933.593000", "111933.593000", "111933.593000", "111933.609000", "111933.609000", "111933.609000", "111933.609000", "111933.609000", "111933.609000", "111933.625000", "111933.625000", "111933.625000", "111933.625000", "111933.625000", "111933.625000", "111953.578000", "111953.578000", "111953.578000", "111953.578000", "111953.578000", "111953.593000", "111953.593000", "111953.593000", "111953.593000", "111953.593000", "111953.593000", "111953.593000", "111953.609000", "111953.609000", "111953.609000", "111953.609000", "111953.609000", "111953.609000", "111953.609000", "111953.609000", "111953.625000", "111953.625000", "111953.625000", "111953.625000", "111953.625000", "111953.625000", "112013.578000", "112013.578000", "112013.578000", "112013.578000", "112013.578000", "112013.593000", "112013.593000", "112013.593000", "112013.593000", "112013.593000", "112013.593000", "112013.593000", "112013.609000", "112013.609000", "112013.609000", "112013.609000", "112013.609000", "112013.609000", "112013.609000", "112013.609000", "112013.625000", "112013.625000", "112013.625000", "112013.625000", "112013.625000", "112033.578000", "112033.578000", "112033.578000", "112033.578000", "112033.578000", "112033.593000", "112033.593000", "112033.593000", "112033.593000", "112033.593000", "112033.593000", "112033.593000", "112033.593000", "112033.609000", "112033.609000", "112033.609000", "112033.609000", "112033.609000", "112033.609000", "112033.609000", "112033.625000", "112033.625000", "112033.625000", "112033.625000", "112033.625000", "112033.640000", "112053.578000", "112053.578000", "112053.578000", "112053.578000", "112053.578000", "112053.593000", "112053.593000", "112053.593000", "112053.593000", "112053.593000", "112053.593000", "112053.593000", "112053.609000", "112053.609000", "112053.609000", "112053.609000", "112053.609000", "112053.609000", "112053.609000", "112053.609000", "112053.625000", "112053.625000", "112053.625000", "112053.625000", "112053.625000", "112113.578000", "112113.578000", "112113.578000", "112113.578000", "112113.578000", "112113.593000", "112113.593000", "112113.593000", "112113.593000", "112113.593000", "112113.593000", "112113.593000", "112113.609000", "112113.609000", "112113.609000", "112113.609000", "112113.609000", "112113.609000", "112113.609000", "112113.625000", "112113.625000", "112113.625000", "112113.625000", "112113.625000", "112113.625000", "112113.625000", "112133.578000", "112133.578000", "112133.578000", "112133.578000", "112133.578000", "112133.593000", "112133.593000", "112133.593000", "112133.593000", "112133.593000", "112133.593000", "112133.593000", "112133.609000", "112133.609000", "112133.609000", "112133.609000", "112133.609000", "112133.609000", "112133.609000", "112133.625000", "112133.625000", "112133.625000", "112133.625000", "112133.625000", "112133.640000", "112153.578000", "112153.578000", "112153.578000", "112153.578000", "112153.578000", "112153.593000", "112153.593000", "112153.593000", "112153.593000", "112153.593000", "112153.609000", "112153.609000", "112153.609000", "112153.609000", "112153.609000", "112153.609000", "112153.609000", "112153.609000", "112153.625000", "112153.625000", "112153.625000", "112153.625000", "112153.625000", "112153.625000", "112153.625000", "112153.640000", "112209.937000", "112209.937000", "112209.953000", "112209.953000", "112209.953000", "112209.953000", "112209.953000", "112209.953000", "112209.968000", "112209.968000", "112209.968000", "112209.968000", "112209.968000", "112209.968000", "112209.968000", "112209.984000", "112209.984000", "112209.984000", "112209.984000", "112209.984000", "112209.984000"],
