{
  "AcquisitionMatrixPE": 104,
  "AcquisitionNumber": 1,
  "AcquisitionTime": "11:30:29.722500",
  "BandwidthPerPixelPhaseEncode": 13.935,
  "BaseResolution": 104,
  "CoilString": "C:HEA;HEP",
  "ConversionSoftware": "dcm2niix",
  "ConversionSoftwareVersion": "v1.0.20210317",
  "DerivedVendorReportedEchoSpacing": 0.000690017,
  "DeviceSerialNumber": "35450",
  "DwellTime": 2.5e-06,
  "EchoTime": 0.0348,
  "EffectiveEchoSpacing": 0.000690017,
  "FlipAngle": 55,
  "ImageComments": "Unaliased MB8/PE3 (remote)",
  "ImageOrientationPatientDICOM": [0.999938, -0.00123514, -0.0110232, 1.12873e-08, 0.993781, -0.111351],
  "ImageType": [
    "ORIGINAL",
    "PRIMARY",
    "M",
    "MB",
    "ND",
    "MOSAIC"
],
  "ImagingFrequency": 123.235,
  "InPlanePhaseEncodingDirectionDICOM": "COL",
  "InstitutionAddress": "Univeristy Ave. 197,Newark,North East,US,07102-1814",
  "InstitutionName": "RUBIC",
  "InstitutionalDepartmentName": "Department",
  "MRAcquisitionType": "2D",
  "MagneticFieldStrength": 3,
  "Manufacturer": "Siemens",
  "ManufacturersModelName": "TrioTim",
  "Modality": "MR",
  "MultibandAccelerationFactor": 8,
  "PartialFourier": 0.875,
  "PatientPosition": "HFS",
  "PercentPhaseFOV": 100,
  "PercentSampling": 100,
  "PhaseEncodingDirection": "j-",
  "PhaseEncodingSteps": 91,
  "PhaseResolution": 1,
  "PixelBandwidth": 1923,
  "ProcedureStepDescription": "Cole^Michael",
  "ProtocolName": "cmrr_mbep2d_bold_2mm_MB8_Task_8x",
  "PulseSequenceDetails": "%CustomerSeq%\\cmrr_mbep2d_bold",
  "ReceiveCoilName": "32Ch_Head",
  "ReconMatrixPE": 104,
  "RepetitionTime": 0.785,
  "SAR": 0.132854,
  "ScanOptions": "PFP\\FS",
  "ScanningSequence": "EP",
  "SequenceName": "epfid2d1_104",
  "SequenceVariant": "SK\\SS",
  "SeriesDescription": "cmrr_mbep2d_bold_2mm_MB8_Task_8x",
  "SeriesNumber": 17,
  "ShimSetting": [2125, -431, -7418, 548, 136, -669, 238, -49],
  "SliceThickness": 2,
  "SliceTiming": [0, 0.44, 0.09, 0.5275, 0.1775, 0.615, 0.265, 0.7025, 0.3525, 0, 0.44, 0.09, 0.5275, 0.1775, 0.615, 0.265, 0.7025, 0.3525, 0, 0.44, 0.09, 0.5275, 0.1775, 0.615, 0.265, 0.7025, 0.3525, 0, 0.44, 0.09, 0.5275, 0.1775, 0.615, 0.265, 0.7025, 0.3525, 0, 0.44, 0.09, 0.5275, 0.1775, 0.615, 0.265, 0.7025, 0.3525, 0, 0.44, 0.09, 0.5275, 0.1775, 0.615, 0.265, 0.7025, 0.3525, 0, 0.44, 0.09, 0.5275, 0.1775, 0.615, 0.265, 0.7025, 0.3525, 0, 0.44, 0.09, 0.5275, 0.1775, 0.615, 0.265, 0.7025, 0.3525],
  "SoftwareVersions": "syngo MR B19",
  "SpacingBetweenSlices": 2,
  "StationName": "MRC35450",
  "TaskName": "cpro",
  "TotalReadoutTime": 0.0710717,
  "TxRefAmp": 323.504,
  "dcmmeta_affine": [
    [-1.9998769760131836, 2.257453957099642e-08, -0.022184379398822784, 103.84369659423828],
    [0.0024702781811356544, 1.9875622987747192, -0.22268857061862946, -87.72187805175781],
    [-0.022046415135264397, 0.2227022647857666, 1.9874399900436401, -101.19713592529297],
    [0.0, 0.0, 0.0, 1.0]
],
  "dcmmeta_reorient_transform": [
    [0.0, -1.0, 0.0, 103.0],
    [1.0, 0.0, 0.0, 0.0],
    [0.0, 0.0, 1.0, 0.0],
    [0.0, 0.0, 0.0, 1.0]
],
  "dcmmeta_shape": [104, 104, 72, 581],
  "dcmmeta_slice_dim": 2,
  "dcmmeta_version": 0.6,
  "global": {
    "const": {
      "AcquisitionMatrix": [104, 0, 0, 104],
      "AngioFlag": "N",
      "BitsAllocated": 16,
      "BitsStored": 12,
      "Columns": 936,
      "EchoNumbers": 1,
      "EchoTime": 34.8,
      "EchoTrainLength": 1,
      "FlipAngle": 55.0,
      "HighBit": 11,
      "ImageOrientationPatient": [0.99993847977015, -0.0012351391402, -0.0110232076216, 1.128727e-08, 0.99378112518585, -0.1113511348139],
      "ImagePositionPatient": [-935.79252707413, -942.79529788256, 23.556651487433],
      "ImageType": [
        "ORIGINAL",
        "PRIMARY",
        "M",
        "MB",
        "ND",
        "MOSAIC"
],
      "ImagedNucleus": "1H",
      "ImagingFrequency": 123.234521,
      "InPlanePhaseEncodingDirection": "COL",
      "MRAcquisitionType": "2D",
      "MagneticFieldStrength": 3.0,
      "Manufacturer": "SIEMENS",
      "ManufacturerModelName": "TrioTim",
      "Modality": "MR",
      "NumberOfAverages": 1.0,
      "NumberOfPhaseEncodingSteps": 91,
      "PercentPhaseFieldOfView": 100.0,
      "PercentSampling": 100.0,
      "PerformedProcedureStepStartTime": "101628.609000",
      "PhotometricInterpretation": "MONOCHROME2",
      "PixelBandwidth": 1923.0,
      "PixelRepresentation": 0,
      "PixelSpacing": [2.0, 2.0],
      "ProtocolName": "cmrr_mbep2d_bold_2mm_MB8_Task_8x",
      "RepetitionTime": 785.0,
      "Rows": 936,
      "SAR": 0.13285432915732,
      "SamplesPerPixel": 1,
      "ScanOptions": [
        "PFP",
        "FS"
],
      "ScanningSequence": "EP",
      "SequenceName": "epfid2d1_104",
      "SequenceVariant": [
        "SK",
        "SS"
],
      "SeriesDescription": "cmrr_mbep2d_bold_2mm_MB8_Task_8x",
      "SeriesNumber": 17,
      "SeriesTime": "113053.609000",
      "SliceLocation": -91.94614064169,
      "SliceThickness": 2.0,
      "SmallestImagePixelValue": 0,
      "SoftwareVersions": "syngo MR B19",
      "SpacingBetweenSlices": 2.0000000537201,
      "SpecificCharacterSet": "ISO_IR 100",
      "StudyID": "1",
      "StudyTime": "101628.468000",
      "TransmitCoilName": "Body",
      "VariableFlipAngleFlag": "N",
      "WindowCenterWidthExplanation": "Algo1",
      "dBdt": 0.0},
    "slices": {}
  },
  "time": {
    "samples": {
      "AcquisitionNumber": [1, 2, 3, 4, 5, 6, 7, 8, 9, 10, 11, 12, 13, 14, 15, 16, 17, 18, 19, 20, 21, 22, 23, 24, 25, 26, 27, 28, 29, 30, 31, 32, 33, 34, 35, 36, 37, 38, 39, 40, 41, 42, 43, 44, 45, 46, 47, 48, 49, 50, 51, 52, 53, 54, 55, 56, 57, 58, 59, 60, 61, 62, 63, 64, 65, 66, 67, 68, 69, 70, 71, 72, 73, 74, 75, 76, 77, 78, 79, 80, 81, 82, 83, 84, 85, 86, 87, 88, 89, 90, 91, 92, 93, 94, 95, 96, 97, 98, 99, 100, 101, 102, 103, 104, 105, 106, 107, 108, 109, 110, 111, 112, 113, 114, 115, 116, 117, 118, 119, 120, 121, 122, 123, 124, 125, 126, 127, 128, 129, 130, 131, 132, 133, 134, 135, 136, 137, 138, 139, 140, 141, 142, 143, 144, 145, 146, 147, 148, 149, 150, 151, 152, 153, 154, 155, 156, 157, 158, 159, 160, 161, 162, 163, 164, 165, 166, 167, 168, 169, 170, 171, 172, 173, 174, 175, 176, 177, 178, 179, 180, 181, 182, 183, 184, 185, 186, 187, 188, 189, 190, 191, 192, 193, 194, 195, 196, 197, 198, 199, 200, 201, 202, 203, 204, 205, 206, 207, 208, 209, 210, 211, 212, 213, 214, 215, 216, 217, 218, 219, 220, 221, 222, 223, 224, 225, 226, 227, 228, 229, 230, 231, 232, 233, 234, 235, 236, 237, 238, 239, 240, 241, 242, 243, 244, 245, 246, 247, 248, 249, 250, 251, 252, 253, 254, 255, 256, 257, 258, 259, 260, 261, 262, 263, 264, 265, 266, 267, 268, 269, 270, 271, 272, 273, 274, 275, 276, 277, 278, 279, 280, 281, 282, 283, 284, 285, 286, 287, 288, 289, 290, 291, 292, 293, 294, 295, 296, 297, 298, 299, 300, 301, 302, 303, 304, 305, 306, 307, 308, 309, 310, 311, 312, 313, 314, 315, 316, 317, 318, 319, 320, 321, 322, 323, 324, 325, 326, 327, 328, 329, 330, 331, 332, 333, 334, 335, 336, 337, 338, 339, 340, 341, 342, 343, 344, 345, 346, 347, 348, 349, 350, 351, 352, 353, 354, 355, 356, 357, 358, 359, 360, 361, 362, 363, 364, 365, 366, 367, 368, 369, 370, 371, 372, 373, 374, 375, 376, 377, 378, 379, 380, 381, 382, 383, 384, 385, 386, 387, 388, 389, 390, 391, 392, 393, 394, 395, 396, 397, 398, 399, 400, 401, 402, 403, 404, 405, 406, 407, 408, 409, 410, 411, 412, 413, 414, 415, 416, 417, 418, 419, 420, 421, 422, 423, 424, 425, 426, 427, 428, 429, 430, 431, 432, 433, 434, 435, 436, 437, 438, 439, 440, 441, 442, 443, 444, 445, 446, 447, 448, 449, 450, 451, 452, 453, 454, 455, 456, 457, 458, 459, 460, 461, 462, 463, 464, 465, 466, 467, 468, 469, 470, 471, 472, 473, 474, 475, 476, 477, 478, 479, 480, 481, 482, 483, 484, 485, 486, 487, 488, 489, 490, 491, 492, 493, 494, 495, 496, 497, 498, 499, 500, 501, 502, 503, 504, 505, 506, 507, 508, 509, 510, 511, 512, 513, 514, 515, 516, 517, 518, 519, 520, 521, 522, 523, 524, 525, 526, 527, 528, 529, 530, 531, 532, 533, 534, 535, 536, 537, 538, 539, 540, 541, 542, 543, 544, 545, 546, 547, 548, 549, 550, 551, 552, 553, 554, 555, 556, 557, 558, 559, 560, 561, 562, 563, 564, 565, 566, 567, 568, 569, 570, 571, 572, 573, 574, 575, 576, 577, 578, 579, 580, 581],
      "AcquisitionTime": ["113029.722500", "113030.512500", "113031.300000", "113032.087500", "113032.877500", "113033.665000", "113034.452500", "113035.240000", "113036.030000", "113036.817500", "113037.605000", "113038.392500", "113039.182500", "113039.970000", "113040.757500", "113041.545000", "113042.335000", "113043.122500", "113043.910000", "113044.697500", "113045.487500", "113046.275000", "113047.062500", "113047.852500", "113048.640000", "113049.427500", "113050.215000", "113051.005000", "113051.792500", "113052.580000", "113053.367500", "113054.157500", "113054.945000", "113055.732500", "113056.520000", "113057.310000", "113058.097500", "113058.885000", "113059.672500", "113100.462500", "113101.250000", "113102.037500", "113102.825000", "113103.615000", "113104.402500", "113105.190000", "113105.980000", "113106.767500", "113107.555000", "113108.342500", "113109.132500", "113109.920000", "113110.707500", "113111.495000", "113112.285000", "113113.072500", "113113.860000", "113114.647500", "113115.437500", "113116.225000", "113117.012500", "113117.800000", "113118.590000", "113119.377500", "113120.165000", "113120.952500", "113121.742500", "113122.530000", "113123.317500", "113124.107500", "113124.895000", "113125.682500", "113126.470000", "113127.260000", "113128.047500", "113128.835000", "113129.622500", "113130.412500", "113131.200000", "113131.987500", "113132.775000", "113133.565000", "113134.352500", "113135.140000", "113135.927500", "113136.717500", "113137.505000", "113138.292500", "113139.080000", "113139.870000", "113140.657500", "113141.445000", "113142.235000", "113143.022500", "113143.810000", "113144.597500", "113145.387500", "113146.175000", "113146.962500", "113147.750000", "113148.540000", "113149.327500", "113150.115000", "113150.902500", "113151.692500", "113152.480000", "113153.267500", "113154.055000", "113154.845000", "113155.632500", "113156.420000", "113157.207500", "113157.997500", "113158.785000", "113159.572500", "113200.362500", "113201.150000", "113201.937500", "113202.725000", "113203.515000", "113204.302500", "113205.090000", "113205.877500", "113206.667500", "113207.455000", "113208.242500", "113209.030000", "113209.820000", "113210.607500", "113211.395000", "113212.182500", "113212.972500", "113213.760000", "113214.547500", "113215.335000", "113216.125000", "113216.912500", "113217.700000", "113218.490000", "113219.277500", "113220.065000", "113220.852500", "113221.642500", "113222.430000", "113223.217500", "113224.005000", "113224.795000", "113225.582500", "113226.370000", "113227.157500", "113227.947500", "113228.735000", "113229.522500", "113230.310000", "113231.100000", "113231.887500", "113232.675000", "113233.462500", "113234.252500", "113235.040000", "113235.827500", "113236.617500", "113237.405000", "113238.192500", "113238.980000", "113239.770000", "113240.557500", "113241.345000", "113242.132500", "113242.922500", "113243.710000", "113244.497500", "113245.285000", "113246.075000", "113246.862500", "113247.650000", "113248.437500", "113249.227500", "113250.015000", "113250.802500", "113251.590000", "113252.380000", "113253.167500", "113253.955000", "113254.745000", "113255.532500", "113256.320000", "113257.107500", "113257.897500", "113258.685000", "113259.472500", "113300.260000", "113301.050000", "113301.837500", "113302.625000", "113303.412500", "113304.202500", "113304.990000", "113305.777500", "113306.565000", "113307.355000", "113308.142500", "113308.930000", "113309.717500", "113310.507500", "113311.295000", "113312.082500", "113312.872500", "113313.660000", "113314.447500", "113315.235000", "113316.025000", "113316.812500", "113317.600000", "113318.387500", "113319.177500", "113319.965000", "113320.752500", "113321.540000", "113322.330000", "113323.117500", "113323.905000", "113324.692500", "113325.482500", "113326.270000", "113327.057500", "113327.845000", "113328.635000", "113329.422500", "113330.210000", "113331.000000", "113331.787500", "113332.575000", "113333.362500", "113334.152500", "113334.940000", "113335.727500", "113336.515000", "113337.305000", "113338.092500", "113338.880000", "113339.667500", "113340.457500", "113341.245000", "113342.032500", "113342.820000", "113343.610000", "113344.397500", "113345.185000", "113345.972500", "113346.762500", "113347.550000", "113348.337500", "113349.127500", "113349.915000", "113350.702500", "113351.490000", "113352.280000", "113353.067500", "113353.855000", "113354.642500", "113355.432500", "113356.220000", "113357.007500", "113357.795000", "113358.585000", "113359.372500", "113400.160000", "113400.947500", "113401.737500", "113402.525000", "113403.312500", "113404.102500", "113404.890000", "113405.677500", "113406.465000", "113407.255000", "113408.042500", "113408.830000", "113409.617500", "113410.407500", "113411.195000", "113411.982500", "113412.770000", "113413.560000", "113414.347500", "113415.135000", "113415.922500", "113416.712500", "113417.500000", "113418.287500", "113419.075000", "113419.865000", "113420.652500", "113421.440000", "113422.230000", "113423.017500", "113423.805000", "113424.592500", "113425.382500", "113426.170000", "113426.957500", "113427.745000", "113428.535000", "113429.322500", "113430.110000", "113430.897500", "113431.687500", "113432.475000", "113433.262500", "113434.050000", "113434.840000", "113435.627500", "113436.415000", "113437.202500", "113437.992500", "113438.780000", "113439.567500", "113440.357500", "113441.145000", "113441.932500", "113442.720000", "113443.510000", "113444.297500", "113445.085000", "113445.872500", "113446.662500", "113447.450000", "113448.237500", "113449.025000", "113449.815000", "113450.602500", "113451.390000", "113452.177500", "113452.967500", "113453.755000", "113454.542500", "113455.330000", "113456.120000", "113456.907500", "113457.695000", "113458.485000", "113459.272500", "113500.060000", "113500.847500", "113501.637500", "113502.425000", "113503.212500", "113504.000000", "113504.790000", "113505.577500", "113506.365000", "113507.152500", "113507.942500", "113508.730000", "113509.517500", "113510.305000", "113511.095000", "113511.882500", "113512.670000", "113513.457500", "113514.247500", "113515.035000", "113515.822500", "113516.612500", "113517.400000", "113518.187500", "113518.975000", "113519.765000", "113520.552500", "113521.340000", "113522.127500", "113522.917500", "113523.705000", "113524.492500", "113525.280000", "113526.070000", "113526.857500", "113527.645000", "113528.432500", "113529.222500", "113530.010000", "113530.797500", "113531.585000", "113532.375000", "113533.162500", "113533.950000", "113534.740000", "113535.527500", "113536.315000", "113537.102500", "113537.892500", "113538.680000", "113539.467500", "113540.255000", "113541.045000", "113541.832500", "113542.620000", "113543.407500", "113544.197500", "113544.985000", "113545.772500", "113546.560000", "113547.350000", "113548.137500", "113548.925000", "113549.712500", "113550.502500", "113551.290000", "113552.077500", "113552.867500", "113553.655000", "113554.442500", "113555.230000", "113556.020000", "113556.807500", "113557.595000", "113558.382500", "113559.172500", "113559.960000", "113600.747500", "113601.535000", "113602.325000", "113603.112500", "113603.900000", "113604.687500", "113605.477500", "113606.265000", "113607.052500", "113607.840000", "113608.630000", "113609.417500", "113610.205000", "113610.995000", "113611.782500", "113612.570000", "113613.357500", "113614.147500", "113614.935000", "113615.722500", "113616.510000", "113617.300000", "113618.087500", "113618.875000", "113619.662500", "113620.452500", "113621.240000", "113622.027500", "113622.815000", "113623.605000", "113624.392500", "113625.180000", "113625.967500", "113626.757500", "113627.545000", "113628.332500", "113629.122500", "113629.910000", "113630.697500", "113631.485000", "113632.275000", "113633.062500", "113633.850000", "113634.637500", "113635.427500", "113636.215000", "113637.002500", "113637.790000", "113638.580000", "113639.367500", "113640.155000", "113640.942500", "113641.732500", "113642.520000", "113643.307500", "113644.095000", "113644.885000", "113645.672500", "113646.460000", "113647.250000", "113648.037500", "113648.825000", "113649.612500", "113650.402500", "113651.190000", "113651.977500", "113652.765000", "113653.555000", "113654.342500", "113655.130000", "113655.917500", "113656.707500", "113657.495000", "113658.282500", "113659.070000", "113659.860000", "113700.647500", "113701.435000", "113702.222500", "113703.012500", "113703.800000", "113704.587500", "113705.377500", "113706.165000", "113706.952500", "113707.740000", "113708.530000", "113709.317500", "113710.105000", "113710.892500", "113711.682500", "113712.470000", "113713.257500", "113714.045000", "113714.835000", "113715.622500", "113716.410000", "113717.197500", "113717.987500", "113718.775000", "113719.562500", "113720.352500", "113721.140000", "113721.927500", "113722.715000", "113723.505000", "113724.292500", "113725.080000", "113725.867500", "113726.657500", "113727.445000", "113728.232500", "113729.020000", "113729.810000", "113730.597500", "113731.385000", "113732.172500", "113732.962500", "113733.750000", "113734.537500", "113735.325000", "113736.115000", "113736.902500", "113737.690000", "113738.480000", "113739.267500", "113740.055000", "113740.842500", "113741.632500", "113742.420000", "113743.207500", "113743.995000", "113744.785000", "113745.572500", "113746.360000", "113747.147500", "113747.937500", "113748.725000", "113749.512500", "113750.300000", "113751.090000", "113751.877500", "113752.665000", "113753.452500", "113754.242500", "113755.030000", "113755.817500", "113756.607500", "113757.395000", "113758.182500", "113758.970000", "113759.760000", "113800.547500", "113801.335000", "113802.122500", "113802.912500", "113803.700000", "113804.487500", "113805.275000", "113806.065000", "113806.852500"],
      "ContentTime": ["113053.609000", "113053.625000", "113053.625000", "113053.625000", "113053.625000", "113053.625000", "113053.640000", "113053.640000", "113053.640000", "113053.640000", "113053.640000", "113053.640000", "113053.640000", "113053.656000", "113053.656000", "113053.656000", "113053.656000", "113053.656000", "113053.656000", "113053.656000", "113053.671000", "113053.671000", "113053.671000", "113053.671000", "113053.671000", "113053.671000", "113053.671000", "113113.593000", "113113.593000", "113113.593000", "113113.593000", "113113.593000", "113113.609000", "113113.609000", "113113.609000", "113113.609000", "113113.609000", "113113.609000", "113113.609000", "113113.625000", "113113.625000", "113113.625000", "113113.625000", "113113.625000", "113113.625000", "113113.625000", "113113.640000", "113113.640000", "113113.640000", "113113.640000", "113113.640000", "113113.640000", "113113.640000", "113133.593000", "113133.593000", "113133.593000", "113133.593000", "113133.609000", "113133.609000", "113133.609000", "113133.609000", "113133.609000", "113133.625000", "113133.625000", "113133.625000", "113133.625000", "113133.625000", "113133.625000", "113133.625000", "113133.640000", "113133.640000", "113133.640000", "113133.640000", "113133.640000", "113133.640000", "113133.640000", "113133.640000", "113133.656000", "113153.593000", "113153.593000", "113153.593000", "113153.593000", "113153.593000", "113153.609000", "113153.609000", "113153.609000", "113153.609000", "113153.609000", "113153.609000", "113153.609000", "113153.625000", "113153.625000", "113153.625000", "113153.625000", "113153.625000", "113153.625000", "113153.625000", "113153.640000", "113153.640000", "113153.640000", "113153.640000", "113153.640000", "113153.640000", "113153.640000", "113213.593000", "113213.593000", "113213.593000", "113213.593000", "113213.593000", "113213.609000", "113213.609000", "113213.609000", "113213.609000", "113213.609000", "113213.609000", "113213.609000", "113213.625000", "113213.625000", "113213.625000", "113213.625000", "113213.625000", "113213.625000", "113213.625000", "113213.625000", "113213.640000", "113213.640000", "113213.640000", "113213.640000", "113213.640000", "113233.593000", "113233.593000", "113233.593000", "113233.593000", "113233.609000", "113233.609000", "113233.609000", "113233.609000", "113233.609000", "113233.625000", "113233.625000", "113233.625000", "113233.625000", "113233.625000", "113233.625000", "113233.625000", "113233.625000", "113233.640000", "113233.640000", "113233.640000", "113233.640000", "113233.640000", "113233.640000", "113233.640000", "113233.656000", "113233.656000", "113253.593000", "113253.593000", "113253.593000", "113253.593000", "113253.593000", "113253.609000", "113253.609000", "113253.609000", "113253.609000", "113253.609000", "113253.609000", "113253.609000", "113253.625000", "113253.625000", "113253.625000", "113253.625000", "113253.625000", "113253.625000", "113253.625000", "113253.640000", "113253.640000", "113253.640000", "113253.640000", "113253.640000", "113253.640000", "113313.593000", "113313.593000", "113313.593000", "113313.593000", "113313.593000", "113313.609000", "113313.609000", "113313.609000", "113313.609000", "113313.609000", "113313.609000", "113313.609000", "113313.625000", "113313.625000", "113313.625000", "113313.625000", "113313.625000", "113313.625000", "113313.640000", "113313.640000", "113313.640000", "113313.640000", "113313.640000", "113313.640000", "113313.640000", "113313.640000", "113333.593000", "113333.593000", "113333.593000", "113333.593000", "113333.593000", "113333.609000", "113333.609000", "113333.609000", "113333.609000", "113333.609000", "113333.609000", "113333.609000", "113333.625000", "113333.625000", "113333.625000", "113333.625000", "113333.625000", "113333.625000", "113333.640000", "113333.640000", "113333.640000", "113333.656000", "113333.656000", "113333.656000", "113333.656000", "113353.593000", "113353.593000", "113353.593000", "113353.609000", "113353.609000", "113353.609000", "113353.609000", "113353.609000", "113353.625000", "113353.625000", "113353.625000", "113353.625000", "113353.625000", "113353.625000", "113353.625000", "113353.625000", "113353.640000", "113353.640000", "113353.640000", "113353.640000", "113353.640000", "113353.640000", "113353.640000", "113353.656000", "113353.656000", "113413.593000", "113413.593000", "113413.593000", "113413.593000", "113413.593000", "113413.609000", "113413.609000", "113413.609000", "113413.609000", "113413.609000", "113413.609000", "113413.609000", "113413.625000", "113413.625000", "113413.625000", "113413.625000", "113413.625000", "113413.625000", "113413.625000", "113413.625000", "113413.640000", "113413.640000", "113413.640000", "113413.640000", "113413.640000", "113413.640000", "113433.593000", "113433.593000", "113433.593000", "113433.593000", "113433.593000", "113433.609000", "113433.609000", "113433.609000", "113433.609000", "113433.609000", "113433.609000", "113433.609000", "113433.625000", "113433.625000", "113433.625000", "113433.625000", "113433.625000", "113433.640000", "113433.640000", "113433.640000", "113433.640000", "113433.640000", "113433.640000", "113433.640000", "113433.640000", "113453.593000", "113453.593000", "113453.593000", "113453.593000", "113453.593000", "113453.609000", "113453.609000", "113453.609000", "113453.609000", "113453.609000", "113453.625000", "113453.625000", "113453.625000", "113453.625000", "113453.625000", "113453.640000", "113453.640000", "113453.640000", "113453.640000", "113453.640000", "113453.640000", "113453.640000", "113453.640000", "113453.656000", "113453.656000", "113453.656000", "113513.593000", "113513.593000", "113513.593000", "113513.609000", "113513.609000", "113513.609000", "113513.609000", "113513.609000", "113513.609000", "113513.609000", "113513.625000", "113513.625000", "113513.625000", "113513.625000", "113513.625000", "113513.625000", "113513.625000", "113513.640000", "113513.640000", "113513.640000", "113513.640000", "113513.640000", "113513.640000", "113513.640000", "113513.656000", "113533.593000", "113533.593000", "113533.593000", "113533.593000", "113533.609000", "113533.609000", "113533.609000", "113533.609000", "113533.609000", "113533.609000", "113533.609000", "113533.625000", "113533.625000", "113533.625000", "113533.625000", "113533.625000", "113533.625000", "113533.640000", "113533.640000", "113533.640000", "113533.640000", "113533.640000", "113533.656000", "113533.656000", "113533.656000", "113533.656000", "113553.593000", "113553.593000", "113553.593000", "113553.593000", "113553.609000", "113553.609000", "113553.609000", "113553.609000", "113553.609000", "113553.609000", "113553.609000", "113553.625000", "113553.625000", "113553.625000", "113553.625000", "113553.625000", "113553.625000", "113553.640000", "113553.640000", "113553.640000", "113553.640000", "113553.640000", "113553.640000", "113553.656000", "113553.656000", "113613.593000", "113613.593000", "113613.593000", "113613.593000", "113613.593000", "113613.609000", "113613.609000", "113613.609000", "113613.609000", "113613.609000", "113613.609000", "113613.625000", "113613.625000", "113613.625000", "113613.625000", "113613.625000", "113613.625000", "113613.625000", "113613.625000", "113613.640000", "113613.640000", "113613.640000", "113613.640000", "113613.640000", "113613.640000", "113613.640000", "113633.593000", "113633.593000", "113633.593000", "113633.593000", "113633.593000", "113633.609000", "113633.609000", "113633.609000", "113633.609000", "113633.625000", "113633.625000", "113633.625000", "113633.625000", "113633.625000", "113633.625000", "113633.625000", "113633.625000", "113633.640000", "113633.640000", "113633.640000", "113633.640000", "113633.640000", "113633.640000", "113633.640000", "113633.656000", "113653.593000", "113653.593000", "113653.593000", "113653.593000", "113653.593000", "113653.609000", "113653.609000", "113653.609000", "113653.609000", "113653.609000", "113653.609000", "113653.609000", "113653.625000", "113653.625000", "113653.625000", "113653.625000", "113653.625000", "113653.625000", "113653.625000", "113653.625000", "113653.640000", "113653.640000", "113653.640000", "113653.640000", "113653.640000", "113653.640000", "113713.593000", "113713.593000", "113713.593000", "113713.593000", "113713.593000", "113713.609000", "113713.609000", "113713.609000", "113713.609000", "113713.609000", "113713.609000", "113713.609000", "113713.625000", "113713.625000", "113713.625000", "113713.625000", "113713.625000", "113713.625000", "113713.625000", "113713.625000", "113713.640000", "113713.640000", "113713.640000", "113713.640000", "113713.640000", "113733.593000", "113733.593000", "113733.593000", "113733.593000", "113733.593000", "113733.609000", "113733.609000", "113733.609000", "113733.609000", "113733.609000", "113733.609000", "113733.609000", "113733.625000", "113733.625000", "113733.625000", "113733.625000", "113733.625000", "113733.625000", "113733.625000", "113733.640000", "113733.640000", "113733.640000", "113733.640000", "113733.640000", "113733.656000", "113733.656000", "113753.593000", "113753.593000", "113753.593000", "113753.593000", "113753.593000", "113753.609000", "113753.609000", "113753.609000", "113753.609000", "113753.609000", "113753.609000", "113753.609000", "113753.625000", "113753.625000", "113753.625000", "113753.625000", "113753.625000", "113753.625000", "113753.625000", "113753.625000", "113753.640000", "113753.640000", "113753.640000", "113753.640000", "113753.640000", "113808.031000", "113808.031000", "113808.031000", "113808.031000", "113808.046000", "113808.046000", "113808.046000", "113808.046000", "113808.046000", "113808.046000", "113808.046000", "113808.062000", "113808.062000", "113808.062000", "113808.062000", "113808.062000", "113808.062000", "113808.062000", "113808.078000"],
