{
  "AcquisitionMatrixPE": 104,
  "AcquisitionNumber": 1,
  "AcquisitionTime": "10:51:45.432500",
  "BandwidthPerPixelPhaseEncode": 13.935,
  "BaseResolution": 104,
  "CoilString": "C:HEA;HEP",
  "ConversionSoftware": "dcm2niix",
  "ConversionSoftwareVersion": "v1.0.20210317",
  "DerivedVendorReportedEchoSpacing": 0.000690017,
  "DeviceSerialNumber": "35450",
  "DwellTime": 2.5e-06,
  "EchoTime": 0.0348,
  "EffectiveEchoSpacing": 0.000690017,
  "FlipAngle": 55,
  "ImageComments": "Unaliased MB8/PE3 (remote)",
  "ImageOrientationPatientDICOM": [0.999938, -0.00123514, -0.0110232, 1.12873e-08, 0.993781, -0.111351],
  "ImageType": [
    "ORIGINAL",
    "PRIMARY",
    "M",
    "MB",
    "ND",
    "MOSAIC"
],
  "ImagingFrequency": 123.234,
  "InPlanePhaseEncodingDirectionDICOM": "COL",
  "InstitutionAddress": "Univeristy Ave. 197,Newark,North East,US,07102-1814",
  "InstitutionName": "RUBIC",
  "InstitutionalDepartmentName": "Department",
  "MRAcquisitionType": "2D",
  "MagneticFieldStrength": 3,
  "Manufacturer": "Siemens",
  "ManufacturersModelName": "TrioTim",
  "Modality": "MR",
  "MultibandAccelerationFactor": 8,
  "PartialFourier": 0.875,
  "PatientPosition": "HFS",
  "PercentPhaseFOV": 100,
  "PercentSampling": 100,
  "PhaseEncodingDirection": "j-",
  "PhaseEncodingSteps": 91,
  "PhaseResolution": 1,
  "PixelBandwidth": 1923,
  "ProcedureStepDescription": "Cole^Michael",
  "ProtocolName": "cmrr_mbep2d_bold_2mm_MB8_Rest",
  "PulseSequenceDetails": "%CustomerSeq%\\cmrr_mbep2d_bold",
  "ReceiveCoilName": "32Ch_Head",
  "ReconMatrixPE": 104,
  "RepetitionTime": 0.785,
  "SAR": 0.129263,
  "ScanOptions": "PFP\\FS",
  "ScanningSequence": "EP",
  "SequenceName": "epfid2d1_104",
  "SequenceVariant": "SK\\SS",
  "SeriesDescription": "cmrr_mbep2d_bold_2mm_MB8_Rest",
  "SeriesNumber": 9,
  "ShimSetting": [2125, -431, -7418, 548, 136, -669, 238, -49],
  "SliceThickness": 2,
  "SliceTiming": [0, 0.4375, 0.0875, 0.525, 0.175, 0.6125, 0.2625, 0.7, 0.35, 0, 0.4375, 0.0875, 0.525, 0.175, 0.6125, 0.2625, 0.7, 0.35, 0, 0.4375, 0.0875, 0.525, 0.175, 0.6125, 0.2625, 0.7, 0.35, 0, 0.4375, 0.0875, 0.525, 0.175, 0.6125, 0.2625, 0.7, 0.35, 0, 0.4375, 0.0875, 0.525, 0.175, 0.6125, 0.2625, 0.7, 0.35, 0, 0.4375, 0.0875, 0.525, 0.175, 0.6125, 0.2625, 0.7, 0.35, 0, 0.4375, 0.0875, 0.525, 0.175, 0.6125, 0.2625, 0.7, 0.35, 0, 0.4375, 0.0875, 0.525, 0.175, 0.6125, 0.2625, 0.7, 0.35],
  "SoftwareVersions": "syngo MR B19",
  "SpacingBetweenSlices": 2,
  "StationName": "MRC35450",
  "TaskName": "rest",
  "TotalReadoutTime": 0.0710717,
  "TxRefAmp": 323.504,
  "dcmmeta_affine": [
    [-1.9998769760131836, 2.257453957099642e-08, -0.022184379398822784, 103.84369659423828],
    [0.0024702781811356544, 1.9875622987747192, -0.22268857061862946, -87.72187805175781],
    [-0.022046415135264397, 0.2227022647857666, 1.9874399900436401, -101.19713592529297],
    [0.0, 0.0, 0.0, 1.0]
],
  "dcmmeta_reorient_transform": [
    [0.0, -1.0, 0.0, 103.0],
    [1.0, 0.0, 0.0, 0.0],
    [0.0, 0.0, 1.0, 0.0],
    [0.0, 0.0, 0.0, 1.0]
],
  "dcmmeta_shape": [104, 104, 72, 1070],
  "dcmmeta_slice_dim": 2,
  "dcmmeta_version": 0.6,
  "global": {
    "const": {
      "AcquisitionMatrix": [104, 0, 0, 104],
      "AngioFlag": "N",
      "BitsAllocated": 16,
      "BitsStored": 12,
      "Columns": 936,
      "EchoNumbers": 1,
      "EchoTime": 34.8,
      "EchoTrainLength": 1,
      "FlipAngle": 55.0,
      "HighBit": 11,
      "ImageOrientationPatient": [0.99993847977015, -0.0012351391402, -0.0110232076216, 1.128727e-08, 0.99378112518585, -0.1113511348139],
      "ImagePositionPatient": [-935.79252707413, -942.79529788256, 23.556651487433],
      "ImageType": [
        "ORIGINAL",
        "PRIMARY",
        "M",
        "MB",
        "ND",
        "MOSAIC"
],
      "ImagedNucleus": "1H",
      "ImagingFrequency": 123.234461,
      "InPlanePhaseEncodingDirection": "COL",
      "MRAcquisitionType": "2D",
      "MagneticFieldStrength": 3.0,
      "Manufacturer": "SIEMENS",
      "ManufacturerModelName": "TrioTim",
      "Modality": "MR",
      "NumberOfAverages": 1.0,
      "NumberOfPhaseEncodingSteps": 91,
      "PercentPhaseFieldOfView": 100.0,
      "PercentSampling": 100.0,
      "PerformedProcedureStepStartTime": "101628.609000",
      "PhotometricInterpretation": "MONOCHROME2",
      "PixelBandwidth": 1923.0,
      "PixelRepresentation": 0,
      "PixelSpacing": [2.0, 2.0],
      "ProtocolName": "cmrr_mbep2d_bold_2mm_MB8_Rest",
      "RepetitionTime": 785.0,
      "Rows": 936,
      "SAR": 0.12926318955934,
      "SamplesPerPixel": 1,
      "ScanOptions": [
        "PFP",
        "FS"
],
      "ScanningSequence": "EP",
      "SequenceName": "epfid2d1_104",
      "SequenceVariant": [
        "SK",
        "SS"
],
      "SeriesDescription": "cmrr_mbep2d_bold_2mm_MB8_Rest",
      "SeriesNumber": 9,
      "SeriesTime": "105203.093000",
      "SliceLocation": -91.94614064169,
      "SliceThickness": 2.0,
      "SmallestImagePixelValue": 0,
      "SoftwareVersions": "syngo MR B19",
      "SpacingBetweenSlices": 2.0000000537201,
      "SpecificCharacterSet": "ISO_IR 100",
      "StudyID": "1",
      "StudyTime": "101628.468000",
      "TransmitCoilName": "Body",
      "VariableFlipAngleFlag": "N",
      "WindowCenterWidthExplanation": "Algo1",
      "dBdt": 0.0},
    "slices": {}
  },
  "time": {
    "samples": {
      "AcquisitionNumber": [1, 2, 3, 4, 5, 6, 7, 8, 9, 10, 11, 12, 13, 14, 15, 16, 17, 18, 19, 20, 21, 22, 23, 24, 25, 26, 27, 28, 29, 30, 31, 32, 33, 34, 35, 36, 37, 38, 39, 40, 41, 42, 43, 44, 45, 46, 47, 48, 49, 50, 51, 52, 53, 54, 55, 56, 57, 58, 59, 60, 61, 62, 63, 64, 65, 66, 67, 68, 69, 70, 71, 72, 73, 74, 75, 76, 77, 78, 79, 80, 81, 82, 83, 84, 85, 86, 87, 88, 89, 90, 91, 92, 93, 94, 95, 96, 97, 98, 99, 100, 101, 102, 103, 104, 105, 106, 107, 108, 109, 110, 111, 112, 113, 114, 115, 116, 117, 118, 119, 120, 121, 122, 123, 124, 125, 126, 127, 128, 129, 130, 131, 132, 133, 134, 135, 136, 137, 138, 139, 140, 141, 142, 143, 144, 145, 146, 147, 148, 149, 150, 151, 152, 153, 154, 155, 156, 157, 158, 159, 160, 161, 162, 163, 164, 165, 166, 167, 168, 169, 170, 171, 172, 173, 174, 175, 176, 177, 178, 179, 180, 181, 182, 183, 184, 185, 186, 187, 188, 189, 190, 191, 192, 193, 194, 195, 196, 197, 198, 199, 200, 201, 202, 203, 204, 205, 206, 207, 208, 209, 210, 211, 212, 213, 214, 215, 216, 217, 218, 219, 220, 221, 222, 223, 224, 225, 226, 227, 228, 229, 230, 231, 232, 233, 234, 235, 236, 237, 238, 239, 240, 241, 242, 243, 244, 245, 246, 247, 248, 249, 250, 251, 252, 253, 254, 255, 256, 257, 258, 259, 260, 261, 262, 263, 264, 265, 266, 267, 268, 269, 270, 271, 272, 273, 274, 275, 276, 277, 278, 279, 280, 281, 282, 283, 284, 285, 286, 287, 288, 289, 290, 291, 292, 293, 294, 295, 296, 297, 298, 299, 300, 301, 302, 303, 304, 305, 306, 307, 308, 309, 310, 311, 312, 313, 314, 315, 316, 317, 318, 319, 320, 321, 322, 323, 324, 325, 326, 327, 328, 329, 330, 331, 332, 333, 334, 335, 336, 337, 338, 339, 340, 341, 342, 343, 344, 345, 346, 347, 348, 349, 350, 351, 352, 353, 354, 355, 356, 357, 358, 359, 360, 361, 362, 363, 364, 365, 366, 367, 368, 369, 370, 371, 372, 373, 374, 375, 376, 377, 378, 379, 380, 381, 382, 383, 384, 385, 386, 387, 388, 389, 390, 391, 392, 393, 394, 395, 396, 397, 398, 399, 400, 401, 402, 403, 404, 405, 406, 407, 408, 409, 410, 411, 412, 413, 414, 415, 416, 417, 418, 419, 420, 421, 422, 423, 424, 425, 426, 427, 428, 429, 430, 431, 432, 433, 434, 435, 436, 437, 438, 439, 440, 441, 442, 443, 444, 445, 446, 447, 448, 449, 450, 451, 452, 453, 454, 455, 456, 457, 458, 459, 460, 461, 462, 463, 464, 465, 466, 467, 468, 469, 470, 471, 472, 473, 474, 475, 476, 477, 478, 479, 480, 481, 482, 483, 484, 485, 486, 487, 488, 489, 490, 491, 492, 493, 494, 495, 496, 497, 498, 499, 500, 501, 502, 503, 504, 505, 506, 507, 508, 509, 510, 511, 512, 513, 514, 515, 516, 517, 518, 519, 520, 521, 522, 523, 524, 525, 526, 527, 528, 529, 530, 531, 532, 533, 534, 535, 536, 537, 538, 539, 540, 541, 542, 543, 544, 545, 546, 547, 548, 549, 550, 551, 552, 553, 554, 555, 556, 557, 558, 559, 560, 561, 562, 563, 564, 565, 566, 567, 568, 569, 570, 571, 572, 573, 574, 575, 576, 577, 578, 579, 580, 581, 582, 583, 584, 585, 586, 587, 588, 589, 590, 591, 592, 593, 594, 595, 596, 597, 598, 599, 600, 601, 602, 603, 604, 605, 606, 607, 608, 609, 610, 611, 612, 613, 614, 615, 616, 617, 618, 619, 620, 621, 622, 623, 624, 625, 626, 627, 628, 629, 630, 631, 632, 633, 634, 635, 636, 637, 638, 639, 640, 641, 642, 643, 644, 645, 646, 647, 648, 649, 650, 651, 652, 653, 654, 655, 656, 657, 658, 659, 660, 661, 662, 663, 664, 665, 666, 667, 668, 669, 670, 671, 672, 673, 674, 675, 676, 677, 678, 679, 680, 681, 682, 683, 684, 685, 686, 687, 688, 689, 690, 691, 692, 693, 694, 695, 696, 697, 698, 699, 700, 701, 702, 703, 704, 705, 706, 707, 708, 709, 710, 711, 712, 713, 714, 715, 716, 717, 718, 719, 720, 721, 722, 723, 724, 725, 726, 727, 728, 729, 730, 731, 732, 733, 734, 735, 736, 737, 738, 739, 740, 741, 742, 743, 744, 745, 746, 747, 748, 749, 750, 751, 752, 753, 754, 755, 756, 757, 758, 759, 760, 761, 762, 763, 764, 765, 766, 767, 768, 769, 770, 771, 772, 773, 774, 775, 776, 777, 778, 779, 780, 781, 782, 783, 784, 785, 786, 787, 788, 789, 790, 791, 792, 793, 794, 795, 796, 797, 798, 799, 800, 801, 802, 803, 804, 805, 806, 807, 808, 809, 810, 811, 812, 813, 814, 815, 816, 817, 818, 819, 820, 821, 822, 823, 824, 825, 826, 827, 828, 829, 830, 831, 832, 833, 834, 835, 836, 837, 838, 839, 840, 841, 842, 843, 844, 845, 846, 847, 848, 849, 850, 851, 852, 853, 854, 855, 856, 857, 858, 859, 860, 861, 862, 863, 864, 865, 866, 867, 868, 869, 870, 871, 872, 873, 874, 875, 876, 877, 878, 879, 880, 881, 882, 883, 884, 885, 886, 887, 888, 889, 890, 891, 892, 893, 894, 895, 896, 897, 898, 899, 900, 901, 902, 903, 904, 905, 906, 907, 908, 909, 910, 911, 912, 913, 914, 915, 916, 917, 918, 919, 920, 921, 922, 923, 924, 925, 926, 927, 928, 929, 930, 931, 932, 933, 934, 935, 936, 937, 938, 939, 940, 941, 942, 943, 944, 945, 946, 947, 948, 949, 950, 951, 952, 953, 954, 955, 956, 957, 958, 959, 960, 961, 962, 963, 964, 965, 966, 967, 968, 969, 970, 971, 972, 973, 974, 975, 976, 977, 978, 979, 980, 981, 982, 983, 984, 985, 986, 987, 988, 989, 990, 991, 992, 993, 994, 995, 996, 997, 998, 999, 1000, 1001, 1002, 1003, 1004, 1005, 1006, 1007, 1008, 1009, 1010, 1011, 1012, 1013, 1014, 1015, 1016, 1017, 1018, 1019, 1020, 1021, 1022, 1023, 1024, 1025, 1026, 1027, 1028, 1029, 1030, 1031, 1032, 1033, 1034, 1035, 1036, 1037, 1038, 1039, 1040, 1041, 1042, 1043, 1044, 1045, 1046, 1047, 1048, 1049, 1050, 1051, 1052, 1053, 1054, 1055, 1056, 1057, 1058, 1059, 1060, 1061, 1062, 1063, 1064, 1065, 1066, 1067, 1068, 1069, 1070],
      "AcquisitionTime": ["105145.432500", "105146.220000", "105147.007500", "105147.795000", "105148.585000", "105149.372500", "105150.160000", "105150.947500", "105151.737500", "105152.525000", "105153.312500", "105154.100000", "105154.890000", "105155.677500", "105156.465000", "105157.252500", "105158.042500", "105158.830000", "105159.617500", "105200.407500", "105201.195000", "105201.982500", "105202.770000", "105203.560000", "105204.347500", "105205.135000", "105205.922500", "105206.712500", "105207.500000", "105208.287500", "105209.075000", "105209.865000", "105210.652500", "105211.440000", "105212.227500", "105213.017500", "105213.805000", "105214.592500", "105215.380000", "105216.170000", "105216.957500", "105217.745000", "105218.535000", "105219.322500", "105220.110000", "105220.897500", "105221.687500", "105222.475000", "105223.262500", "105224.050000", "105224.840000", "105225.627500", "105226.415000", "105227.202500", "105227.992500", "105228.780000", "105229.567500", "105230.355000", "105231.145000", "105231.932500", "105232.720000", "105233.507500", "105234.297500", "105235.085000", "105235.872500", "105236.662500", "105237.450000", "105238.237500", "105239.025000", "105239.815000", "105240.602500", "105241.390000", "105242.177500", "105242.967500", "105243.755000", "105244.542500", "105245.330000", "105246.120000", "105246.907500", "105247.695000", "105248.482500", "105249.272500", "105250.060000", "105250.847500", "105251.635000", "105252.425000", "105253.212500", "105254.000000", "105254.790000", "105255.577500", "105256.365000", "105257.152500", "105257.942500", "105258.730000", "105259.517500", "105300.305000", "105301.095000", "105301.882500", "105302.670000", "105303.457500", "105304.247500", "105305.035000", "105305.822500", "105306.610000", "105307.400000", "105308.187500", "105308.975000", "105309.762500", "105310.552500", "105311.340000", "105312.127500", "105312.917500", "105313.705000", "105314.492500", "105315.280000", "105316.070000", "105316.857500", "105317.645000", "105318.432500", "105319.222500", "105320.010000", "105320.797500", "105321.585000", "105322.375000", "105323.162500", "105323.950000", "105324.737500", "105325.527500", "105326.315000", "105327.102500", "105327.890000", "105328.680000", "105329.467500", "105330.255000", "105331.045000", "105331.832500", "105332.620000", "105333.407500", "105334.197500", "105334.985000", "105335.772500", "105336.560000", "105337.350000", "105338.137500", "105338.925000", "105339.712500", "105340.502500", "105341.290000", "105342.077500", "105342.865000", "105343.655000", "105344.442500", "105345.230000", "105346.017500", "105346.807500", "105347.595000", "105348.382500", "105349.172500", "105349.960000", "105350.747500", "105351.535000", "105352.325000", "105353.112500", "105353.900000", "105354.687500", "105355.477500", "105356.265000", "105357.052500", "105357.840000", "105358.630000", "105359.417500", "105400.205000", "105400.992500", "105401.782500", "105402.570000", "105403.357500", "105404.147500", "105404.935000", "105405.722500", "105406.510000", "105407.300000", "105408.087500", "105408.875000", "105409.662500", "105410.452500", "105411.240000", "105412.027500", "105412.815000", "105413.605000", "105414.392500", "105415.180000", "105415.967500", "105416.757500", "105417.545000", "105418.332500", "105419.120000", "105419.910000", "105420.697500", "105421.485000", "105422.275000", "105423.062500", "105423.850000", "105424.637500", "105425.427500", "105426.215000", "105427.002500", "105427.790000", "105428.580000", "105429.367500", "105430.155000", "105430.942500", "105431.732500", "105432.520000", "105433.307500", "105434.095000", "105434.885000", "105435.672500", "105436.460000", "105437.247500", "105438.037500", "105438.825000", "105439.612500", "105440.402500", "105441.190000", "105441.977500", "105442.765000", "105443.555000", "105444.342500", "105445.130000", "105445.917500", "105446.707500", "105447.495000", "105448.282500", "105449.070000", "105449.860000", "105450.647500", "105451.435000", "105452.222500", "105453.012500", "105453.800000", "105454.587500", "105455.375000", "105456.165000", "105456.952500", "105457.740000", "105458.530000", "105459.317500", "105500.105000", "105500.892500", "105501.682500", "105502.470000", "105503.257500", "105504.045000", "105504.835000", "105505.622500", "105506.410000", "105507.197500", "105507.987500", "105508.775000", "105509.562500", "105510.350000", "105511.140000", "105511.927500", "105512.715000", "105513.502500", "105514.292500", "105515.080000", "105515.867500", "105516.657500", "105517.445000", "105518.232500", "105519.020000", "105519.810000", "105520.597500", "105521.385000", "105522.172500", "105522.962500", "105523.750000", "105524.537500", "105525.325000", "105526.115000", "105526.902500", "105527.690000", "105528.477500", "105529.267500", "105530.055000", "105530.842500", "105531.630000", "105532.420000", "105533.207500", "105533.995000", "105534.785000", "105535.572500", "105536.360000", "105537.147500", "105537.937500", "105538.725000", "105539.512500", "105540.300000", "105541.090000", "105541.877500", "105542.665000", "105543.452500", "105544.242500", "105545.030000", "105545.817500", "105546.605000", "105547.395000", "105548.182500", "105548.970000", "105549.757500", "105550.547500", "105551.335000", "105552.122500", "105552.912500", "105553.700000", "105554.487500", "105555.275000", "105556.065000", "105556.852500", "105557.640000", "105558.427500", "105559.217500", "105600.005000", "105600.792500", "105601.580000", "105602.370000", "105603.157500", "105603.945000", "105604.732500", "105605.522500", "105606.310000", "105607.097500", "105607.885000", "105608.675000", "105609.462500", "105610.250000", "105611.040000", "105611.827500", "105612.615000", "105613.402500", "105614.192500", "105614.980000", "105615.767500", "105616.555000", "105617.345000", "105618.132500", "105618.920000", "105619.707500", "105620.497500", "105621.285000", "105622.072500", "105622.860000", "105623.650000", "105624.437500", "105625.225000", "105626.012500", "105626.802500", "105627.590000", "105628.377500", "105629.167500", "105629.955000", "105630.742500", "105631.530000", "105632.320000", "105633.107500", "105633.895000", "105634.682500", "105635.472500", "105636.260000", "105637.047500", "105637.835000", "105638.625000", "105639.412500", "105640.200000", "105640.987500", "105641.777500", "105642.565000", "105643.352500", "105644.140000", "105644.930000", "105645.717500", "105646.505000", "105647.295000", "105648.082500", "105648.870000", "105649.657500", "105650.447500", "105651.235000", "105652.022500", "105652.810000", "105653.600000", "105654.387500", "105655.175000", "105655.962500", "105656.752500", "105657.540000", "105658.327500", "105659.115000", "105659.905000", "105700.692500", "105701.480000", "105702.267500", "105703.057500", "105703.845000", "105704.632500", "105705.422500", "105706.210000", "105706.997500", "105707.785000", "105708.575000", "105709.362500", "105710.150000", "105710.937500", "105711.727500", "105712.515000", "105713.302500", "105714.090000", "105714.880000", "105715.667500", "105716.455000", "105717.242500", "105718.032500", "105718.820000", "105719.607500", "105720.397500", "105721.185000", "105721.972500", "105722.760000", "105723.550000", "105724.337500", "105725.125000", "105725.912500", "105726.702500", "105727.490000", "105728.277500", "105729.065000", "105729.855000", "105730.642500", "105731.430000", "105732.217500", "105733.007500", "105733.795000", "105734.582500", "105735.370000", "105736.160000", "105736.947500", "105737.735000", "105738.525000", "105739.312500", "105740.100000", "105740.887500", "105741.677500", "105742.465000", "105743.252500", "105744.040000", "105744.830000", "105745.617500", "105746.405000", "105747.192500", "105747.982500", "105748.770000", "105749.557500", "105750.345000", "105751.135000", "105751.922500", "105752.710000", "105753.497500", "105754.287500", "105755.075000", "105755.862500", "105756.652500", "105757.440000", "105758.227500", "105759.015000", "105759.805000", "105800.592500", "105801.380000", "105802.167500", "105802.957500", "105803.745000", "105804.532500", "105805.320000", "105806.110000", "105806.897500", "105807.685000", "105808.472500", "105809.262500", "105810.050000", "105810.837500", "105811.625000", "105812.415000", "105813.202500", "105813.990000", "105814.780000", "105815.567500", "105816.355000", "105817.142500", "105817.932500", "105818.720000", "105819.507500", "105820.295000", "105821.085000", "105821.872500", "105822.660000", "105823.447500", "105824.237500", "105825.025000", "105825.812500", "105826.600000", "105827.390000", "105828.177500", "105828.965000", "105829.752500", "105830.542500", "105831.330000", "105832.117500", "105832.907500", "105833.695000", "105834.482500", "105835.270000", "105836.060000", "105836.847500", "105837.635000", "105838.422500", "105839.212500", "105840.000000", "105840.787500", "105841.575000", "105842.365000", "105843.152500", "105843.940000", "105844.727500", "105845.517500", "105846.305000", "105847.092500", "105847.880000", "105848.670000", "105849.457500", "105850.245000", "105851.035000", "105851.822500", "105852.610000", "105853.397500", "105854.187500", "105854.975000", "105855.762500", "105856.550000", "105857.340000", "105858.127500", "105858.915000", "105859.702500", "105900.492500", "105901.280000", "105902.067500", "105902.855000", "105903.645000", "105904.432500", "105905.220000", "105906.007500", "105906.797500", "105907.585000", "105908.372500", "105909.162500", "105909.950000", "105910.737500", "105911.525000", "105912.315000", "105913.102500", "105913.890000", "105914.677500", "105915.467500", "105916.255000", "105917.042500", "105917.830000", "105918.620000", "105919.407500", "105920.195000", "105920.982500", "105921.772500", "105922.560000", "105923.347500", "105924.135000", "105924.925000", "105925.712500", "105926.500000", "105927.290000", "105928.077500", "105928.865000", "105929.652500", "105930.442500", "105931.230000", "105932.017500", "105932.805000", "105933.595000", "105934.382500", "105935.170000", "105935.957500", "105936.747500", "105937.535000", "105938.322500", "105939.110000", "105939.900000", "105940.687500", "105941.475000", "105942.262500", "105943.052500", "105943.840000", "105944.627500", "105945.417500", "105946.205000", "105946.992500", "105947.780000", "105948.570000", "105949.357500", "105950.145000", "105950.932500", "105951.722500", "105952.510000", "105953.297500", "105954.085000", "105954.875000", "105955.662500", "105956.450000", "105957.237500", "105958.027500", "105958.815000", "105959.602500", "110000.390000", "110001.180000", "110001.967500", "110002.755000", "110003.545000", "110004.332500", "110005.120000", "110005.907500", "110006.697500", "110007.485000", "110008.272500", "110009.060000", "110009.850000", "110010.637500", "110011.425000", "110012.212500", "110013.002500", "110013.790000", "110014.577500", "110015.365000", "110016.155000", "110016.942500", "110017.730000", "110018.517500", "110019.307500", "110020.095000", "110020.882500", "110021.672500", "110022.460000", "110023.247500", "110024.035000", "110024.825000", "110025.612500", "110026.400000", "110027.187500", "110027.977500", "110028.765000", "110029.552500", "110030.340000", "110031.130000", "110031.917500", "110032.705000", "110033.492500", "110034.282500", "110035.070000", "110035.857500", "110036.647500", "110037.435000", "110038.222500", "110039.010000", "110039.800000", "110040.587500", "110041.375000", "110042.162500", "110042.952500", "110043.740000", "110044.527500", "110045.315000", "110046.105000", "110046.892500", "110047.680000", "110048.467500", "110049.257500", "110050.045000", "110050.832500", "110051.620000", "110052.410000", "110053.197500", "110053.985000", "110054.775000", "110055.562500", "110056.350000", "110057.137500", "110057.927500", "110058.715000", "110059.502500", "110100.290000", "110101.080000", "110101.867500", "110102.655000", "110103.442500", "110104.232500", "110105.020000", "110105.807500", "110106.595000", "110107.385000", "110108.172500", "110108.960000", "110109.747500", "110110.537500", "110111.325000", "110112.112500", "110112.902500", "110113.690000", "110114.477500", "110115.265000", "110116.055000", "110116.842500", "110117.630000", "110118.417500", "110119.207500", "110119.995000", "110120.782500", "110121.570000", "110122.360000", "110123.147500", "110123.935000", "110124.722500", "110125.512500", "110126.300000", "110127.087500", "110127.875000", "110128.665000", "110129.452500", "110130.240000", "110131.030000", "110131.817500", "110132.605000", "110133.392500", "110134.182500", "110134.970000", "110135.757500", "110136.545000", "110137.335000", "110138.122500", "110138.910000", "110139.697500", "110140.487500", "110141.275000", "110142.062500", "110142.850000", "110143.640000", "110144.427500", "110145.215000", "110146.002500", "110146.792500", "110147.580000", "110148.367500", "110149.157500", "110149.945000", "110150.732500", "110151.520000", "110152.310000", "110153.097500", "110153.885000", "110154.672500", "110155.462500", "110156.250000", "110157.037500", "110157.825000", "110158.615000", "110159.402500", "110200.190000", "110200.977500", "110201.767500", "110202.555000", "110203.342500", "110204.130000", "110204.920000", "110205.707500", "110206.495000", "110207.285000", "110208.072500", "110208.860000", "110209.647500", "110210.437500", "110211.225000", "110212.012500", "110212.800000", "110213.590000", "110214.377500", "110215.165000", "110215.952500", "110216.742500", "110217.530000", "110218.317500", "110219.105000", "110219.895000", "110220.682500", "110221.470000", "110222.257500", "110223.047500", "110223.835000", "110224.622500", "110225.412500", "110226.200000", "110226.987500", "110227.775000", "110228.565000", "110229.352500", "110230.140000", "110230.927500", "110231.717500", "110232.505000", "110233.292500", "110234.080000", "110234.870000", "110235.657500", "110236.445000", "110237.232500", "110238.022500", "110238.810000", "110239.597500", "110240.385000", "110241.175000", "110241.962500", "110242.750000", "110243.540000", "110244.327500", "110245.115000", "110245.902500", "110246.692500", "110247.480000", "110248.267500", "110249.055000", "110249.845000", "110250.632500", "110251.420000", "110252.207500", "110252.997500", "110253.785000", "110254.572500", "110255.360000", "110256.150000", "110256.937500", "110257.725000", "110258.512500", "110259.302500", "110300.090000", "110300.877500", "110301.667500", "110302.455000", "110303.242500", "110304.030000", "110304.820000", "110305.607500", "110306.395000", "110307.182500", "110307.972500", "110308.760000", "110309.547500", "110310.335000", "110311.125000", "110311.912500", "110312.700000", "110313.487500", "110314.277500", "110315.065000", "110315.852500", "110316.640000", "110317.430000", "110318.217500", "110319.005000", "110319.795000", "110320.582500", "110321.370000", "110322.157500", "110322.947500", "110323.735000", "110324.522500", "110325.310000", "110326.100000", "110326.887500", "110327.675000", "110328.462500", "110329.252500", "110330.040000", "110330.827500", "110331.615000", "110332.405000", "110333.192500", "110333.980000", "110334.767500", "110335.557500", "110336.345000", "110337.132500", "110337.922500", "110338.710000", "110339.497500", "110340.285000", "110341.075000", "110341.862500", "110342.650000", "110343.437500", "110344.227500", "110345.015000", "110345.802500", "110346.590000", "110347.380000", "110348.167500", "110348.955000", "110349.742500", "110350.532500", "110351.320000", "110352.107500", "110352.897500", "110353.685000", "110354.472500", "110355.260000", "110356.050000", "110356.837500", "110357.625000", "110358.412500", "110359.202500", "110359.990000", "110400.777500", "110401.565000", "110402.355000", "110403.142500", "110403.930000", "110404.717500", "110405.507500", "110406.295000", "110407.082500", "110407.870000", "110408.660000", "110409.447500", "110410.235000", "110411.025000", "110411.812500", "110412.600000", "110413.387500", "110414.177500", "110414.965000", "110415.752500", "110416.540000", "110417.330000", "110418.117500", "110418.905000", "110419.692500", "110420.482500", "110421.270000", "110422.057500", "110422.845000", "110423.635000", "110424.422500", "110425.210000", "110425.997500", "110426.787500", "110427.575000", "110428.362500", "110429.152500", "110429.940000", "110430.727500", "110431.515000", "110432.305000", "110433.092500", "110433.880000", "110434.667500", "110435.457500", "110436.245000", "110437.032500", "110437.820000", "110438.610000", "110439.397500", "110440.185000", "110440.972500", "110441.762500", "110442.550000", "110443.337500", "110444.125000", "110444.915000", "110445.702500", "110446.490000", "110447.280000", "110448.067500", "110448.855000", "110449.642500", "110450.432500", "110451.220000", "110452.007500", "110452.795000", "110453.585000", "110454.372500", "110455.160000", "110455.947500", "110456.737500", "110457.525000", "110458.312500", "110459.100000", "110459.890000", "110500.677500", "110501.465000", "110502.252500", "110503.042500", "110503.830000", "110504.617500", "110505.407500", "110506.195000", "110506.982500", "110507.770000", "110508.560000", "110509.347500", "110510.135000", "110510.922500", "110511.712500", "110512.500000", "110513.287500", "110514.075000", "110514.865000", "110515.652500", "110516.440000", "110517.227500", "110518.017500", "110518.805000", "110519.592500", "110520.380000", "110521.170000", "110521.957500", "110522.745000", "110523.535000", "110524.322500", "110525.110000", "110525.897500", "110526.687500", "110527.475000", "110528.262500", "110529.050000", "110529.840000", "110530.627500", "110531.415000", "110532.202500", "110532.992500", "110533.780000", "110534.567500", "110535.355000", "110536.145000", "110536.932500", "110537.720000", "110538.507500", "110539.297500", "110540.085000", "110540.872500", "110541.662500", "110542.450000", "110543.237500", "110544.025000", "110544.815000", "110545.602500", "110546.390000", "110547.177500", "110547.967500"],
