{
  "AcquisitionMatrixPE": 104,
  "AcquisitionNumber": 1,
  "AcquisitionTime": "11:38:28.725000",
  "BandwidthPerPixelPhaseEncode": 13.935,
  "BaseResolution": 104,
  "CoilString": "C:HEA;HEP",
  "ConversionSoftware": "dcm2niix",
  "ConversionSoftwareVersion": "v1.0.20210317",
  "DerivedVendorReportedEchoSpacing": 0.000690017,
  "DeviceSerialNumber": "35450",
  "DwellTime": 2.5e-06,
  "EchoTime": 0.0348,
  "EffectiveEchoSpacing": 0.000690017,
  "FlipAngle": 55,
  "ImageComments": "Unaliased MB8/PE3 (remote)",
  "ImageOrientationPatientDICOM": [0.999938, -0.00123514, -0.0110232, 1.12873e-08, 0.993781, -0.111351],
  "ImageType": [
    "ORIGINAL",
    "PRIMARY",
    "M",
    "MB",
    "ND",
    "MOSAIC"
],
  "ImagingFrequency": 123.235,
  "InPlanePhaseEncodingDirectionDICOM": "COL",
  "InstitutionAddress": "Univeristy Ave. 197,Newark,North East,US,07102-1814",
  "InstitutionName": "RUBIC",
  "InstitutionalDepartmentName": "Department",
  "MRAcquisitionType": "2D",
  "MagneticFieldStrength": 3,
  "Manufacturer": "Siemens",
  "ManufacturersModelName": "TrioTim",
  "Modality": "MR",
  "MultibandAccelerationFactor": 8,
  "PartialFourier": 0.875,
  "PatientPosition": "HFS",
  "PercentPhaseFOV": 100,
  "PercentSampling": 100,
  "PhaseEncodingDirection": "j-",
  "PhaseEncodingSteps": 91,
  "PhaseResolution": 1,
  "PixelBandwidth": 1923,
  "ProcedureStepDescription": "Cole^Michael",
  "ProtocolName": "cmrr_mbep2d_bold_2mm_MB8_Task_8x",
  "PulseSequenceDetails": "%CustomerSeq%\\cmrr_mbep2d_bold",
  "ReceiveCoilName": "32Ch_Head",
  "ReconMatrixPE": 104,
  "RepetitionTime": 0.785,
  "SAR": 0.132854,
  "ScanOptions": "PFP\\FS",
  "ScanningSequence": "EP",
  "SequenceName": "epfid2d1_104",
  "SequenceVariant": "SK\\SS",
  "SeriesDescription": "cmrr_mbep2d_bold_2mm_MB8_Task_8x",
  "SeriesNumber": 19,
  "ShimSetting": [2125, -431, -7418, 548, 136, -669, 238, -49],
  "SliceThickness": 2,
  "SliceTiming": [0, 0.4375, 0.0875, 0.525, 0.175, 0.6125, 0.2625, 0.7, 0.35, 0, 0.4375, 0.0875, 0.525, 0.175, 0.6125, 0.2625, 0.7, 0.35, 0, 0.4375, 0.0875, 0.525, 0.175, 0.6125, 0.2625, 0.7, 0.35, 0, 0.4375, 0.0875, 0.525, 0.175, 0.6125, 0.2625, 0.7, 0.35, 0, 0.4375, 0.0875, 0.525, 0.175, 0.6125, 0.2625, 0.7, 0.35, 0, 0.4375, 0.0875, 0.525, 0.175, 0.6125, 0.2625, 0.7, 0.35, 0, 0.4375, 0.0875, 0.525, 0.175, 0.6125, 0.2625, 0.7, 0.35, 0, 0.4375, 0.0875, 0.525, 0.175, 0.6125, 0.2625, 0.7, 0.35],
  "SoftwareVersions": "syngo MR B19",
  "SpacingBetweenSlices": 2,
  "StationName": "MRC35450",
  "TaskName": "cpro",
  "TotalReadoutTime": 0.0710717,
  "TxRefAmp": 323.504,
  "dcmmeta_affine": [
    [-1.9998769760131836, 2.257453957099642e-08, -0.022184379398822784, 103.84369659423828],
    [0.0024702781811356544, 1.9875622987747192, -0.22268857061862946, -87.72187805175781],
    [-0.022046415135264397, 0.2227022647857666, 1.9874399900436401, -101.19713592529297],
    [0.0, 0.0, 0.0, 1.0]
],
  "dcmmeta_reorient_transform": [
    [0.0, -1.0, 0.0, 103.0],
    [1.0, 0.0, 0.0, 0.0],
    [0.0, 0.0, 1.0, 0.0],
    [0.0, 0.0, 0.0, 1.0]
],
  "dcmmeta_shape": [104, 104, 72, 581],
  "dcmmeta_slice_dim": 2,
  "dcmmeta_version": 0.6,
  "global": {
    "const": {
      "AcquisitionMatrix": [104, 0, 0, 104],
      "AngioFlag": "N",
      "BitsAllocated": 16,
      "BitsStored": 12,
      "Columns": 936,
      "EchoNumbers": 1,
      "EchoTime": 34.8,
      "EchoTrainLength": 1,
      "FlipAngle": 55.0,
      "HighBit": 11,
      "ImageOrientationPatient": [0.99993847977015, -0.0012351391402, -0.0110232076216, 1.128727e-08, 0.99378112518585, -0.1113511348139],
      "ImagePositionPatient": [-935.79252707413, -942.79529788256, 23.556651487433],
      "ImageType": [
        "ORIGINAL",
        "PRIMARY",
        "M",
        "MB",
        "ND",
        "MOSAIC"
],
      "ImagedNucleus": "1H",
      "ImagingFrequency": 123.234521,
      "InPlanePhaseEncodingDirection": "COL",
      "MRAcquisitionType": "2D",
      "MagneticFieldStrength": 3.0,
      "Manufacturer": "SIEMENS",
      "ManufacturerModelName": "TrioTim",
      "Modality": "MR",
      "NumberOfAverages": 1.0,
      "NumberOfPhaseEncodingSteps": 91,
      "PercentPhaseFieldOfView": 100.0,
      "PercentSampling": 100.0,
      "PerformedProcedureStepStartTime": "101628.609000",
      "PhotometricInterpretation": "MONOCHROME2",
      "PixelBandwidth": 1923.0,
      "PixelRepresentation": 0,
      "PixelSpacing": [2.0, 2.0],
      "ProtocolName": "cmrr_mbep2d_bold_2mm_MB8_Task_8x",
      "RepetitionTime": 785.0,
      "Rows": 936,
      "SAR": 0.13285432915732,
      "SamplesPerPixel": 1,
      "ScanOptions": [
        "PFP",
        "FS"
],
      "ScanningSequence": "EP",
      "SequenceName": "epfid2d1_104",
      "SequenceVariant": [
        "SK",
        "SS"
],
      "SeriesDescription": "cmrr_mbep2d_bold_2mm_MB8_Task_8x",
      "SeriesNumber": 19,
      "SeriesTime": "113853.593000",
      "SliceLocation": -91.94614064169,
      "SliceThickness": 2.0,
      "SmallestImagePixelValue": 0,
      "SoftwareVersions": "syngo MR B19",
      "SpacingBetweenSlices": 2.0000000537201,
      "SpecificCharacterSet": "ISO_IR 100",
      "StudyID": "1",
      "StudyTime": "101628.468000",
      "TransmitCoilName": "Body",
      "VariableFlipAngleFlag": "N",
      "WindowCenterWidthExplanation": "Algo1",
      "dBdt": 0.0},
    "slices": {}
  },
  "time": {
    "samples": {
      "AcquisitionNumber": [1, 2, 3, 4, 5, 6, 7, 8, 9, 10, 11, 12, 13, 14, 15, 16, 17, 18, 19, 20, 21, 22, 23, 24, 25, 26, 27, 28, 29, 30, 31, 32, 33, 34, 35, 36, 37, 38, 39, 40, 41, 42, 43, 44, 45, 46, 47, 48, 49, 50, 51, 52, 53, 54, 55, 56, 57, 58, 59, 60, 61, 62, 63, 64, 65, 66, 67, 68, 69, 70, 71, 72, 73, 74, 75, 76, 77, 78, 79, 80, 81, 82, 83, 84, 85, 86, 87, 88, 89, 90, 91, 92, 93, 94, 95, 96, 97, 98, 99, 100, 101, 102, 103, 104, 105, 106, 107, 108, 109, 110, 111, 112, 113, 114, 115, 116, 117, 118, 119, 120, 121, 122, 123, 124, 125, 126, 127, 128, 129, 130, 131, 132, 133, 134, 135, 136, 137, 138, 139, 140, 141, 142, 143, 144, 145, 146, 147, 148, 149, 150, 151, 152, 153, 154, 155, 156, 157, 158, 159, 160, 161, 162, 163, 164, 165, 166, 167, 168, 169, 170, 171, 172, 173, 174, 175, 176, 177, 178, 179, 180, 181, 182, 183, 184, 185, 186, 187, 188, 189, 190, 191, 192, 193, 194, 195, 196, 197, 198, 199, 200, 201, 202, 203, 204, 205, 206, 207, 208, 209, 210, 211, 212, 213, 214, 215, 216, 217, 218, 219, 220, 221, 222, 223, 224, 225, 226, 227, 228, 229, 230, 231, 232, 233, 234, 235, 236, 237, 238, 239, 240, 241, 242, 243, 244, 245, 246, 247, 248, 249, 250, 251, 252, 253, 254, 255, 256, 257, 258, 259, 260, 261, 262, 263, 264, 265, 266, 267, 268, 269, 270, 271, 272, 273, 274, 275, 276, 277, 278, 279, 280, 281, 282, 283, 284, 285, 286, 287, 288, 289, 290, 291, 292, 293, 294, 295, 296, 297, 298, 299, 300, 301, 302, 303, 304, 305, 306, 307, 308, 309, 310, 311, 312, 313, 314, 315, 316, 317, 318, 319, 320, 321, 322, 323, 324, 325, 326, 327, 328, 329, 330, 331, 332, 333, 334, 335, 336, 337, 338, 339, 340, 341, 342, 343, 344, 345, 346, 347, 348, 349, 350, 351, 352, 353, 354, 355, 356, 357, 358, 359, 360, 361, 362, 363, 364, 365, 366, 367, 368, 369, 370, 371, 372, 373, 374, 375, 376, 377, 378, 379, 380, 381, 382, 383, 384, 385, 386, 387, 388, 389, 390, 391, 392, 393, 394, 395, 396, 397, 398, 399, 400, 401, 402, 403, 404, 405, 406, 407, 408, 409, 410, 411, 412, 413, 414, 415, 416, 417, 418, 419, 420, 421, 422, 423, 424, 425, 426, 427, 428, 429, 430, 431, 432, 433, 434, 435, 436, 437, 438, 439, 440, 441, 442, 443, 444, 445, 446, 447, 448, 449, 450, 451, 452, 453, 454, 455, 456, 457, 458, 459, 460, 461, 462, 463, 464, 465, 466, 467, 468, 469, 470, 471, 472, 473, 474, 475, 476, 477, 478, 479, 480, 481, 482, 483, 484, 485, 486, 487, 488, 489, 490, 491, 492, 493, 494, 495, 496, 497, 498, 499, 500, 501, 502, 503, 504, 505, 506, 507, 508, 509, 510, 511, 512, 513, 514, 515, 516, 517, 518, 519, 520, 521, 522, 523, 524, 525, 526, 527, 528, 529, 530, 531, 532, 533, 534, 535, 536, 537, 538, 539, 540, 541, 542, 543, 544, 545, 546, 547, 548, 549, 550, 551, 552, 553, 554, 555, 556, 557, 558, 559, 560, 561, 562, 563, 564, 565, 566, 567, 568, 569, 570, 571, 572, 573, 574, 575, 576, 577, 578, 579, 580, 581],
      "AcquisitionTime": ["113828.725000", "113829.512500", "113830.300000", "113831.090000", "113831.877500", "113832.665000", "113833.455000", "113834.242500", "113835.030000", "113835.817500", "113836.607500", "113837.395000", "113838.182500", "113838.970000", "113839.760000", "113840.547500", "113841.335000", "113842.122500", "113842.912500", "113843.700000", "113844.487500", "113845.275000", "113846.065000", "113846.852500", "113847.640000", "113848.427500", "113849.217500", "113850.005000", "113850.792500", "113851.582500", "113852.370000", "113853.157500", "113853.945000", "113854.735000", "113855.522500", "113856.310000", "113857.097500", "113857.887500", "113858.675000", "113859.462500", "113900.250000", "113901.040000", "113901.827500", "113902.615000", "113903.402500", "113904.192500", "113904.980000", "113905.767500", "113906.555000", "113907.345000", "113908.132500", "113908.920000", "113909.710000", "113910.497500", "113911.285000", "113912.072500", "113912.862500", "113913.650000", "113914.437500", "113915.225000", "113916.015000", "113916.802500", "113917.590000", "113918.377500", "113919.167500", "113919.955000", "113920.742500", "113921.530000", "113922.320000", "113923.107500", "113923.895000", "113924.682500", "113925.472500", "113926.260000", "113927.047500", "113927.837500", "113928.625000", "113929.412500", "113930.200000", "113930.990000", "113931.777500", "113932.565000", "113933.352500", "113934.142500", "113934.930000", "113935.717500", "113936.505000", "113937.295000", "113938.082500", "113938.870000", "113939.657500", "113940.447500", "113941.235000", "113942.022500", "113942.810000", "113943.600000", "113944.387500", "113945.175000", "113945.965000", "113946.752500", "113947.540000", "113948.327500", "113949.117500", "113949.905000", "113950.692500", "113951.480000", "113952.270000", "113953.057500", "113953.845000", "113954.632500", "113955.422500", "113956.210000", "113956.997500", "113957.785000", "113958.575000", "113959.362500", "114000.150000", "114000.937500", "114001.727500", "114002.515000", "114003.302500", "114004.092500", "114004.880000", "114005.667500", "114006.455000", "114007.245000", "114008.032500", "114008.820000", "114009.607500", "114010.397500", "114011.185000", "114011.972500", "114012.760000", "114013.550000", "114014.337500", "114015.125000", "114015.912500", "114016.702500", "114017.490000", "114018.277500", "114019.065000", "114019.855000", "114020.642500", "114021.430000", "114022.220000", "114023.007500", "114023.795000", "114024.582500", "114025.372500", "114026.160000", "114026.947500", "114027.735000", "114028.525000", "114029.312500", "114030.100000", "114030.887500", "114031.677500", "114032.465000", "114033.252500", "114034.040000", "114034.830000", "114035.617500", "114036.405000", "114037.192500", "114037.982500", "114038.770000", "114039.557500", "114040.347500", "114041.135000", "114041.922500", "114042.710000", "114043.500000", "114044.287500", "114045.075000", "114045.862500", "114046.652500", "114047.440000", "114048.227500", "114049.015000", "114049.805000", "114050.592500", "114051.380000", "114052.167500", "114052.957500", "114053.745000", "114054.532500", "114055.322500", "114056.110000", "114056.897500", "114057.685000", "114058.475000", "114059.262500", "114100.050000", "114100.837500", "114101.627500", "114102.415000", "114103.202500", "114103.990000", "114104.780000", "114105.567500", "114106.355000", "114107.142500", "114107.932500", "114108.720000", "114109.507500", "114110.295000", "114111.085000", "114111.872500", "114112.660000", "114113.450000", "114114.237500", "114115.025000", "114115.812500", "114116.602500", "114117.390000", "114118.177500", "114118.965000", "114119.755000", "114120.542500", "114121.330000", "114122.117500", "114122.907500", "114123.695000", "114124.482500", "114125.270000", "114126.060000", "114126.847500", "114127.635000", "114128.422500", "114129.212500", "114130.000000", "114130.787500", "114131.577500", "114132.365000", "114133.152500", "114133.940000", "114134.730000", "114135.517500", "114136.305000", "114137.092500", "114137.882500", "114138.670000", "114139.457500", "114140.245000", "114141.035000", "114141.822500", "114142.610000", "114143.397500", "114144.187500", "114144.975000", "114145.762500", "114146.550000", "114147.340000", "114148.127500", "114148.915000", "114149.705000", "114150.492500", "114151.280000", "114152.067500", "114152.857500", "114153.645000", "114154.432500", "114155.220000", "114156.010000", "114156.797500", "114157.585000", "114158.372500", "114159.162500", "114159.950000", "114200.737500", "114201.525000", "114202.315000", "114203.102500", "114203.890000", "114204.677500", "114205.467500", "114206.255000", "114207.042500", "114207.832500", "114208.620000", "114209.407500", "114210.195000", "114210.985000", "114211.772500", "114212.560000", "114213.347500", "114214.137500", "114214.925000", "114215.712500", "114216.500000", "114217.290000", "114218.077500", "114218.865000", "114219.652500", "114220.442500", "114221.230000", "114222.017500", "114222.805000", "114223.595000", "114224.382500", "114225.170000", "114225.960000", "114226.747500", "114227.535000", "114228.322500", "114229.112500", "114229.900000", "114230.687500", "114231.475000", "114232.265000", "114233.052500", "114233.840000", "114234.627500", "114235.417500", "114236.205000", "114236.992500", "114237.780000", "114238.570000", "114239.357500", "114240.145000", "114240.932500", "114241.722500", "114242.510000", "114243.297500", "114244.087500", "114244.875000", "114245.662500", "114246.450000", "114247.240000", "114248.027500", "114248.815000", "114249.602500", "114250.392500", "114251.180000", "114251.967500", "114252.755000", "114253.545000", "114254.332500", "114255.120000", "114255.907500", "114256.697500", "114257.485000", "114258.272500", "114259.060000", "114259.850000", "114300.637500", "114301.425000", "114302.215000", "114303.002500", "114303.790000", "114304.577500", "114305.367500", "114306.155000", "114306.942500", "114307.730000", "114308.520000", "114309.307500", "114310.095000", "114310.882500", "114311.672500", "114312.460000", "114313.247500", "114314.035000", "114314.825000", "114315.612500", "114316.400000", "114317.187500", "114317.977500", "114318.765000", "114319.552500", "114320.342500", "114321.130000", "114321.917500", "114322.705000", "114323.495000", "114324.282500", "114325.070000", "114325.857500", "114326.647500", "114327.435000", "114328.222500", "114329.010000", "114329.800000", "114330.587500", "114331.375000", "114332.162500", "114332.952500", "114333.740000", "114334.527500", "114335.315000", "114336.105000", "114336.892500", "114337.680000", "114338.470000", "114339.257500", "114340.045000", "114340.832500", "114341.622500", "114342.410000", "114343.197500", "114343.985000", "114344.775000", "114345.562500", "114346.350000", "114347.137500", "114347.927500", "114348.715000", "114349.502500", "114350.290000", "114351.080000", "114351.867500", "114352.655000", "114353.442500", "114354.232500", "114355.020000", "114355.807500", "114356.597500", "114357.385000", "114358.172500", "114358.960000", "114359.750000", "114400.537500", "114401.325000", "114402.112500", "114402.902500", "114403.690000", "114404.477500", "114405.265000", "114406.055000", "114406.842500", "114407.630000", "114408.417500", "114409.207500", "114409.995000", "114410.782500", "114411.572500", "114412.360000", "114413.147500", "114413.935000", "114414.725000", "114415.512500", "114416.300000", "114417.087500", "114417.877500", "114418.665000", "114419.452500", "114420.240000", "114421.030000", "114421.817500", "114422.605000", "114423.392500", "114424.182500", "114424.970000", "114425.757500", "114426.545000", "114427.335000", "114428.122500", "114428.910000", "114429.700000", "114430.487500", "114431.275000", "114432.062500", "114432.852500", "114433.640000", "114434.427500", "114435.215000", "114436.005000", "114436.792500", "114437.580000", "114438.367500", "114439.157500", "114439.945000", "114440.732500", "114441.520000", "114442.310000", "114443.097500", "114443.885000", "114444.672500", "114445.462500", "114446.250000", "114447.037500", "114447.827500", "114448.615000", "114449.402500", "114450.190000", "114450.980000", "114451.767500", "114452.555000", "114453.342500", "114454.132500", "114454.920000", "114455.707500", "114456.495000", "114457.285000", "114458.072500", "114458.860000", "114459.647500", "114500.437500", "114501.225000", "114502.012500", "114502.800000", "114503.590000", "114504.377500", "114505.165000", "114505.955000", "114506.742500", "114507.530000", "114508.317500", "114509.107500", "114509.895000", "114510.682500", "114511.470000", "114512.260000", "114513.047500", "114513.835000", "114514.622500", "114515.412500", "114516.200000", "114516.987500", "114517.775000", "114518.565000", "114519.352500", "114520.140000", "114520.927500", "114521.717500", "114522.505000", "114523.292500", "114524.082500", "114524.870000", "114525.657500", "114526.445000", "114527.235000", "114528.022500", "114528.810000", "114529.597500", "114530.387500", "114531.175000", "114531.962500", "114532.750000", "114533.540000", "114534.327500", "114535.115000", "114535.902500", "114536.692500", "114537.480000", "114538.267500", "114539.055000", "114539.845000", "114540.632500", "114541.420000", "114542.210000", "114542.997500", "114543.785000", "114544.572500", "114545.362500", "114546.150000", "114546.937500", "114547.725000", "114548.515000", "114549.302500", "114550.090000", "114550.877500", "114551.667500", "114552.455000", "114553.242500", "114554.030000", "114554.820000", "114555.607500", "114556.395000", "114557.182500", "114557.972500", "114558.760000", "114559.547500", "114600.337500", "114601.125000", "114601.912500", "114602.700000", "114603.490000", "114604.277500", "114605.065000", "114605.852500"],
      "ContentTime": ["113853.593000", "113853.593000", "113853.609000", "113853.609000", "113853.609000", "113853.609000", "113853.609000", "113853.609000", "113853.609000", "113853.625000", "113853.625000", "113853.625000", "113853.625000", "113853.625000", "113853.625000", "113853.625000", "113853.625000", "113853.640000", "113853.640000", "113853.640000", "113853.640000", "113853.640000", "113853.640000", "113853.640000", "113853.656000", "113853.656000", "113853.656000", "113853.656000", "113853.656000", "113913.578000", "113913.578000", "113913.578000", "113913.578000", "113913.578000", "113913.593000", "113913.593000", "113913.593000", "113913.593000", "113913.593000", "113913.593000", "113913.609000", "113913.609000", "113913.609000", "113913.609000", "113913.609000", "113913.609000", "113913.609000", "113913.625000", "113913.625000", "113913.625000", "113913.625000", "113913.625000", "113913.625000", "113913.625000", "113933.578000", "113933.578000", "113933.578000", "113933.578000", "113933.578000", "113933.593000", "113933.593000", "113933.593000", "113933.593000", "113933.593000", "113933.593000", "113933.593000", "113933.593000", "113933.609000", "113933.609000", "113933.609000", "113933.609000", "113933.609000", "113933.625000", "113933.625000", "113933.625000", "113933.625000", "113933.625000", "113933.625000", "113933.625000", "113933.640000", "113953.578000", "113953.578000", "113953.578000", "113953.578000", "113953.578000", "113953.593000", "113953.593000", "113953.593000", "113953.593000", "113953.593000", "113953.593000", "113953.593000", "113953.593000", "113953.609000", "113953.609000", "113953.609000", "113953.609000", "113953.609000", "113953.609000", "113953.609000", "113953.625000", "113953.625000", "113953.625000", "113953.625000", "113953.625000", "114013.578000", "114013.578000", "114013.578000", "114013.578000", "114013.578000", "114013.593000", "114013.593000", "114013.593000", "114013.593000", "114013.593000", "114013.593000", "114013.593000", "114013.593000", "114013.609000", "114013.609000", "114013.609000", "114013.609000", "114013.609000", "114013.609000", "114013.609000", "114013.609000", "114013.625000", "114013.625000", "114013.625000", "114013.625000", "114013.625000", "114033.578000", "114033.578000", "114033.578000", "114033.578000", "114033.578000", "114033.593000", "114033.593000", "114033.593000", "114033.593000", "114033.593000", "114033.593000", "114033.593000", "114033.593000", "114033.609000", "114033.609000", "114033.609000", "114033.609000", "114033.609000", "114033.609000", "114033.625000", "114033.625000", "114033.625000", "114033.625000", "114033.625000", "114033.625000", "114053.578000", "114053.578000", "114053.578000", "114053.578000", "114053.578000", "114053.593000", "114053.593000", "114053.593000", "114053.593000", "114053.593000", "114053.593000", "114053.593000", "114053.609000", "114053.609000", "114053.609000", "114053.609000", "114053.609000", "114053.625000", "114053.625000", "114053.625000", "114053.625000", "114053.625000", "114053.625000", "114053.625000", "114053.625000", "114053.640000", "114113.578000", "114113.578000", "114113.578000", "114113.578000", "114113.578000", "114113.593000", "114113.593000", "114113.593000", "114113.593000", "114113.593000", "114113.593000", "114113.593000", "114113.593000", "114113.609000", "114113.609000", "114113.609000", "114113.609000", "114113.609000", "114113.609000", "114113.609000", "114113.625000", "114113.625000", "114113.625000", "114113.625000", "114113.625000", "114133.578000", "114133.578000", "114133.578000", "114133.578000", "114133.578000", "114133.593000", "114133.593000", "114133.593000", "114133.593000", "114133.593000", "114133.593000", "114133.593000", "114133.609000", "114133.609000", "114133.609000", "114133.609000", "114133.609000", "114133.609000", "114133.609000", "114133.625000", "114133.625000", "114133.625000", "114133.625000", "114133.625000", "114133.625000", "114133.625000", "114153.578000", "114153.578000", "114153.578000", "114153.578000", "114153.578000", "114153.593000", "114153.593000", "114153.593000", "114153.593000", "114153.593000", "114153.593000", "114153.593000", "114153.593000", "114153.609000", "114153.609000", "114153.609000", "114153.609000", "114153.609000", "114153.609000", "114153.609000", "114153.625000", "114153.625000", "114153.625000", "114153.625000", "114153.625000", "114213.578000", "114213.578000", "114213.578000", "114213.578000", "114213.578000", "114213.593000", "114213.593000", "114213.593000", "114213.593000", "114213.593000", "114213.593000", "114213.593000", "114213.609000", "114213.609000", "114213.609000", "114213.609000", "114213.609000", "114213.609000", "114213.609000", "114213.609000", "114213.625000", "114213.625000", "114213.625000", "114213.625000", "114213.625000", "114213.625000", "114233.578000", "114233.578000", "114233.578000", "114233.578000", "114233.578000", "114233.593000", "114233.593000", "114233.593000", "114233.593000", "114233.593000", "114233.593000", "114233.593000", "114233.593000", "114233.609000", "114233.609000", "114233.609000", "114233.609000", "114233.625000", "114233.625000", "114233.625000", "114233.640000", "114233.640000", "114233.640000", "114233.640000", "114233.640000", "114253.578000", "114253.578000", "114253.578000", "114253.578000", "114253.578000", "114253.593000", "114253.593000", "114253.593000", "114253.593000", "114253.593000", "114253.593000", "114253.593000", "114253.609000", "114253.609000", "114253.609000", "114253.609000", "114253.609000", "114253.609000", "114253.609000", "114253.609000", "114253.625000", "114253.625000", "114253.625000", "114253.625000", "114253.625000", "114253.625000", "114313.578000", "114313.578000", "114313.578000", "114313.578000", "114313.578000", "114313.593000", "114313.593000", "114313.593000", "114313.593000", "114313.593000", "114313.593000", "114313.593000", "114313.609000", "114313.609000", "114313.609000", "114313.609000", "114313.609000", "114313.609000", "114313.609000", "114313.625000", "114313.625000", "114313.625000", "114313.625000", "114313.625000", "114313.625000", "114333.578000", "114333.578000", "114333.578000", "114333.578000", "114333.578000", "114333.593000", "114333.593000", "114333.593000", "114333.593000", "114333.593000", "114333.593000", "114333.593000", "114333.609000", "114333.609000", "114333.609000", "114333.609000", "114333.609000", "114333.625000", "114333.625000", "114333.625000", "114333.625000", "114333.625000", "114333.625000", "114333.625000", "114333.625000", "114333.640000", "114353.578000", "114353.578000", "114353.578000", "114353.578000", "114353.578000", "114353.593000", "114353.593000", "114353.593000", "114353.593000", "114353.593000", "114353.593000", "114353.609000", "114353.609000", "114353.609000", "114353.609000", "114353.609000", "114353.609000", "114353.609000", "114353.609000", "114353.625000", "114353.625000", "114353.625000", "114353.625000", "114353.625000", "114353.625000", "114413.578000", "114413.578000", "114413.578000", "114413.578000", "114413.578000", "114413.593000", "114413.593000", "114413.593000", "114413.593000", "114413.593000", "114413.593000", "114413.593000", "114413.609000", "114413.609000", "114413.609000", "114413.609000", "114413.609000", "114413.609000", "114413.609000", "114413.609000", "114413.625000", "114413.625000", "114413.625000", "114413.625000", "114413.625000", "114413.625000", "114433.578000", "114433.578000", "114433.578000", "114433.578000", "114433.578000", "114433.593000", "114433.593000", "114433.593000", "114433.593000", "114433.593000", "114433.593000", "114433.593000", "114433.593000", "114433.609000", "114433.609000", "114433.609000", "114433.609000", "114433.609000", "114433.609000", "114433.609000", "114433.625000", "114433.625000", "114433.625000", "114433.625000", "114433.625000", "114453.578000", "114453.578000", "114453.578000", "114453.593000", "114453.593000", "114453.593000", "114453.593000", "114453.593000", "114453.593000", "114453.593000", "114453.593000", "114453.609000", "114453.609000", "114453.609000", "114453.609000", "114453.609000", "114453.609000", "114453.609000", "114453.625000", "114453.625000", "114453.625000", "114453.625000", "114453.625000", "114453.625000", "114453.625000", "114513.578000", "114513.578000", "114513.578000", "114513.578000", "114513.578000", "114513.593000", "114513.593000", "114513.593000", "114513.593000", "114513.593000", "114513.593000", "114513.593000", "114513.609000", "114513.609000", "114513.609000", "114513.609000", "114513.609000", "114513.609000", "114513.609000", "114513.625000", "114513.625000", "114513.625000", "114513.640000", "114513.640000", "114513.640000", "114513.640000", "114533.578000", "114533.578000", "114533.578000", "114533.578000", "114533.593000", "114533.593000", "114533.593000", "114533.593000", "114533.593000", "114533.593000", "114533.609000", "114533.609000", "114533.609000", "114533.609000", "114533.609000", "114533.609000", "114533.609000", "114533.625000", "114533.625000", "114533.625000", "114533.625000", "114533.625000", "114533.625000", "114533.625000", "114533.640000", "114553.578000", "114553.578000", "114553.578000", "114553.578000", "114553.578000", "114553.593000", "114553.593000", "114553.593000", "114553.593000", "114553.593000", "114553.593000", "114553.593000", "114553.593000", "114553.609000", "114553.609000", "114553.609000", "114553.609000", "114553.609000", "114553.609000", "114553.609000", "114553.625000", "114553.625000", "114553.625000", "114553.625000", "114553.625000", "114553.640000", "114606.671000", "114606.671000", "114606.687000", "114606.687000", "114606.687000", "114606.687000", "114606.687000", "114606.687000", "114606.687000", "114606.703000", "114606.703000", "114606.703000", "114606.703000", "114606.703000", "114606.703000", "114606.703000", "114606.718000"],
