{
  "AcquisitionMatrixPE": 104,
  "AcquisitionNumber": 1,
  "AcquisitionTime": "15:47:22.985000",
  "BandwidthPerPixelPhaseEncode": 13.935,
  "BaseResolution": 104,
  "CoilString": "C:HEA;HEP",
  "ConversionSoftware": "dcm2niix",
  "ConversionSoftwareVersion": "v1.0.20210317",
  "DerivedVendorReportedEchoSpacing": 0.000690017,
  "DeviceSerialNumber": "35450",
  "DwellTime": 2.5e-06,
  "EchoTime": 0.0348,
  "EffectiveEchoSpacing": 0.000690017,
  "FlipAngle": 55,
  "ImageComments": "Unaliased MB8/PE3",
  "ImageOrientationPatientDICOM": [0.999919, 0.00205885, 0.0125729, -9.39616e-09, 0.986856, -0.1616],
  "ImageType": [
    "ORIGINAL",
    "PRIMARY",
    "M",
    "MB",
    "ND",
    "MOSAIC"
],
  "ImagingFrequency": 123.235,
  "InPlanePhaseEncodingDirectionDICOM": "COL",
  "InstitutionAddress": "Univeristy Ave. 197,Newark,North East,US,07102-1814",
  "InstitutionName": "RUBIC",
  "InstitutionalDepartmentName": "Department",
  "MRAcquisitionType": "2D",
  "MagneticFieldStrength": 3,
  "Manufacturer": "Siemens",
  "ManufacturersModelName": "TrioTim",
  "Modality": "MR",
  "MultibandAccelerationFactor": 8,
  "PartialFourier": 0.875,
  "PatientPosition": "HFS",
  "PercentPhaseFOV": 100,
  "PercentSampling": 100,
  "PhaseEncodingDirection": "j-",
  "PhaseEncodingSteps": 91,
  "PhaseResolution": 1,
  "PixelBandwidth": 1923,
  "ProcedureStepDescription": "Cole^Michael",
  "ProtocolName": "cmrr_mbep2d_bold_2mm_MB8_Task_8x",
  "PulseSequenceDetails": "%CustomerSeq%\\cmrr_mbep2d_bold",
  "ReceiveCoilName": "32Ch_Head",
  "ReconMatrixPE": 104,
  "RepetitionTime": 0.785,
  "SAR": 0.112132,
  "ScanOptions": "PFP\\FS",
  "ScanningSequence": "EP",
  "SequenceName": "epfid2d1_104",
  "SequenceVariant": "SK\\SS",
  "SeriesDescription": "cmrr_mbep2d_bold_2mm_MB8_Task_8x",
  "SeriesNumber": 13,
  "ShimSetting": [2135, -413, -7251, 553, 67, -287, 99, 64],
  "SliceThickness": 2,
  "SliceTiming": [0, 0.4375, 0.0875, 0.525, 0.175, 0.6125, 0.2625, 0.7, 0.35, 0, 0.4375, 0.0875, 0.525, 0.175, 0.6125, 0.2625, 0.7, 0.35, 0, 0.4375, 0.0875, 0.525, 0.175, 0.6125, 0.2625, 0.7, 0.35, 0, 0.4375, 0.0875, 0.525, 0.175, 0.6125, 0.2625, 0.7, 0.35, 0, 0.4375, 0.0875, 0.525, 0.175, 0.6125, 0.2625, 0.7, 0.35, 0, 0.4375, 0.0875, 0.525, 0.175, 0.6125, 0.2625, 0.7, 0.35, 0, 0.4375, 0.0875, 0.525, 0.175, 0.6125, 0.2625, 0.7, 0.35, 0, 0.4375, 0.0875, 0.525, 0.175, 0.6125, 0.2625, 0.7, 0.35],
  "SoftwareVersions": "syngo MR B19",
  "SpacingBetweenSlices": 2,
  "StationName": "MRC35450",
  "TaskName": "cpro",
  "TotalReadoutTime": 0.0710717,
  "TxRefAmp": 315.523,
  "dcmmeta_affine": [
    [-1.9998376369476318, -1.8792327693972766e-08, 0.02548067271709442, 103.05376434326172],
    [-0.004117702133953571, 1.9737125635147095, -0.3231743276119232, -78.75324249267578],
    [0.02514575980603695, 0.3232005536556244, 1.9735524654388428, -107.64749908447266],
    [0.0, 0.0, 0.0, 1.0]
],
  "dcmmeta_reorient_transform": [
    [0.0, -1.0, 0.0, 103.0],
    [1.0, 0.0, 0.0, 0.0],
    [0.0, 0.0, 1.0, 0.0],
    [0.0, 0.0, 0.0, 1.0]
],
  "dcmmeta_shape": [104, 104, 72, 581],
  "dcmmeta_slice_dim": 2,
  "dcmmeta_version": 0.6,
  "global": {
    "const": {
      "AcquisitionMatrix": [104, 0, 0, 104],
      "AngioFlag": "N",
      "BitsAllocated": 16,
      "BitsStored": 12,
      "Columns": 936,
      "EchoNumbers": 1,
      "EchoTime": 34.8,
      "EchoTrainLength": 1,
      "FlipAngle": 55.0,
      "HighBit": 11,
      "ImageOrientationPatient": [0.99991883861804, 0.00205885117722, 0.0125728798845, -9.396164e-09, 0.98685629701143, -0.1616002755223],
      "ImagePositionPatient": [-934.98623024117, -947.31655906651, 49.63295286387],
      "ImageType": [
        "ORIGINAL",
        "PRIMARY",
        "M",
        "MB",
        "ND",
        "MOSAIC"
],
      "ImagedNucleus": "1H",
      "ImagingFrequency": 123.234683,
      "InPlanePhaseEncodingDirection": "COL",
      "MRAcquisitionType": "2D",
      "MagneticFieldStrength": 3.0,
      "Manufacturer": "SIEMENS",
      "ManufacturerModelName": "TrioTim",
      "Modality": "MR",
      "NumberOfAverages": 1.0,
      "NumberOfPhaseEncodingSteps": 91,
      "PercentPhaseFieldOfView": 100.0,
      "PercentSampling": 100.0,
      "PerformedProcedureStepStartTime": "145533.859000",
      "PhotometricInterpretation": "MONOCHROME2",
      "PixelBandwidth": 1923.0,
      "PixelRepresentation": 0,
      "PixelSpacing": [2.0, 2.0],
      "ProtocolName": "cmrr_mbep2d_bold_2mm_MB8_Task_8x",
      "RepetitionTime": 785.0,
      "Rows": 936,
      "SAR": 0.11213245485419,
      "SamplesPerPixel": 1,
      "ScanOptions": [
        "PFP",
        "FS"
],
      "ScanningSequence": "EP",
      "SequenceName": "epfid2d1_104",
      "SequenceVariant": [
        "SK",
        "SS"
],
      "SeriesDescription": "cmrr_mbep2d_bold_2mm_MB8_Task_8x",
      "SeriesNumber": 13,
      "SeriesTime": "161854.609000",
      "SliceLocation": -92.185536084773,
      "SliceThickness": 2.0,
      "SmallestImagePixelValue": 0,
      "SoftwareVersions": "syngo MR B19",
      "SpacingBetweenSlices": 2.0000000326651,
      "SpecificCharacterSet": "ISO_IR 100",
      "StudyID": "1",
      "StudyTime": "145533.765000",
      "TransmitCoilName": "Body",
      "VariableFlipAngleFlag": "N",
      "WindowCenterWidthExplanation": "Algo1",
      "dBdt": 0.0},
    "slices": {}
  },
  "time": {
    "samples": {
      "AcquisitionNumber": [1, 2, 3, 4, 5, 6, 7, 8, 9, 10, 11, 12, 13, 14, 15, 16, 17, 18, 19, 20, 21, 22, 23, 24, 25, 26, 27, 28, 29, 30, 31, 32, 33, 34, 35, 36, 37, 38, 39, 40, 41, 42, 43, 44, 45, 46, 47, 48, 49, 50, 51, 52, 53, 54, 55, 56, 57, 58, 59, 60, 61, 62, 63, 64, 65, 66, 67, 68, 69, 70, 71, 72, 73, 74, 75, 76, 77, 78, 79, 80, 81, 82, 83, 84, 85, 86, 87, 88, 89, 90, 91, 92, 93, 94, 95, 96, 97, 98, 99, 100, 101, 102, 103, 104, 105, 106, 107, 108, 109, 110, 111, 112, 113, 114, 115, 116, 117, 118, 119, 120, 121, 122, 123, 124, 125, 126, 127, 128, 129, 130, 131, 132, 133, 134, 135, 136, 137, 138, 139, 140, 141, 142, 143, 144, 145, 146, 147, 148, 149, 150, 151, 152, 153, 154, 155, 156, 157, 158, 159, 160, 161, 162, 163, 164, 165, 166, 167, 168, 169, 170, 171, 172, 173, 174, 175, 176, 177, 178, 179, 180, 181, 182, 183, 184, 185, 186, 187, 188, 189, 190, 191, 192, 193, 194, 195, 196, 197, 198, 199, 200, 201, 202, 203, 204, 205, 206, 207, 208, 209, 210, 211, 212, 213, 214, 215, 216, 217, 218, 219, 220, 221, 222, 223, 224, 225, 226, 227, 228, 229, 230, 231, 232, 233, 234, 235, 236, 237, 238, 239, 240, 241, 242, 243, 244, 245, 246, 247, 248, 249, 250, 251, 252, 253, 254, 255, 256, 257, 258, 259, 260, 261, 262, 263, 264, 265, 266, 267, 268, 269, 270, 271, 272, 273, 274, 275, 276, 277, 278, 279, 280, 281, 282, 283, 284, 285, 286, 287, 288, 289, 290, 291, 292, 293, 294, 295, 296, 297, 298, 299, 300, 301, 302, 303, 304, 305, 306, 307, 308, 309, 310, 311, 312, 313, 314, 315, 316, 317, 318, 319, 320, 321, 322, 323, 324, 325, 326, 327, 328, 329, 330, 331, 332, 333, 334, 335, 336, 337, 338, 339, 340, 341, 342, 343, 344, 345, 346, 347, 348, 349, 350, 351, 352, 353, 354, 355, 356, 357, 358, 359, 360, 361, 362, 363, 364, 365, 366, 367, 368, 369, 370, 371, 372, 373, 374, 375, 376, 377, 378, 379, 380, 381, 382, 383, 384, 385, 386, 387, 388, 389, 390, 391, 392, 393, 394, 395, 396, 397, 398, 399, 400, 401, 402, 403, 404, 405, 406, 407, 408, 409, 410, 411, 412, 413, 414, 415, 416, 417, 418, 419, 420, 421, 422, 423, 424, 425, 426, 427, 428, 429, 430, 431, 432, 433, 434, 435, 436, 437, 438, 439, 440, 441, 442, 443, 444, 445, 446, 447, 448, 449, 450, 451, 452, 453, 454, 455, 456, 457, 458, 459, 460, 461, 462, 463, 464, 465, 466, 467, 468, 469, 470, 471, 472, 473, 474, 475, 476, 477, 478, 479, 480, 481, 482, 483, 484, 485, 486, 487, 488, 489, 490, 491, 492, 493, 494, 495, 496, 497, 498, 499, 500, 501, 502, 503, 504, 505, 506, 507, 508, 509, 510, 511, 512, 513, 514, 515, 516, 517, 518, 519, 520, 521, 522, 523, 524, 525, 526, 527, 528, 529, 530, 531, 532, 533, 534, 535, 536, 537, 538, 539, 540, 541, 542, 543, 544, 545, 546, 547, 548, 549, 550, 551, 552, 553, 554, 555, 556, 557, 558, 559, 560, 561, 562, 563, 564, 565, 566, 567, 568, 569, 570, 571, 572, 573, 574, 575, 576, 577, 578, 579, 580, 581],
      "AcquisitionTime": ["154722.985000", "154723.772500", "154724.560000", "154725.350000", "154726.137500", "154726.925000", "154727.712500", "154728.502500", "154729.290000", "154730.077500", "154730.865000", "154731.655000", "154732.442500", "154733.230000", "154734.017500", "154734.807500", "154735.595000", "154736.382500", "154737.172500", "154737.960000", "154738.747500", "154739.535000", "154740.325000", "154741.112500", "154741.900000", "154742.687500", "154743.477500", "154744.265000", "154745.052500", "154745.840000", "154746.630000", "154747.417500", "154748.205000", "154748.992500", "154749.782500", "154750.570000", "154751.357500", "154752.145000", "154752.935000", "154753.722500", "154754.510000", "154755.300000", "154756.087500", "154756.875000", "154757.662500", "154758.452500", "154759.240000", "154800.027500", "154800.815000", "154801.605000", "154802.392500", "154803.180000", "154803.967500", "154804.757500", "154805.545000", "154806.332500", "154807.120000", "154807.910000", "154808.697500", "154809.485000", "154810.272500", "154811.062500", "154811.850000", "154812.637500", "154813.427500", "154814.215000", "154815.002500", "154815.790000", "154816.580000", "154817.367500", "154818.155000", "154818.942500", "154819.732500", "154820.520000", "154821.307500", "154822.095000", "154822.885000", "154823.672500", "154824.460000", "154825.247500", "154826.037500", "154826.825000", "154827.612500", "154828.400000", "154829.190000", "154829.977500", "154830.765000", "154831.555000", "154832.342500", "154833.130000", "154833.917500", "154834.707500", "154835.495000", "154836.282500", "154837.070000", "154837.860000", "154838.647500", "154839.435000", "154840.222500", "154841.012500", "154841.800000", "154842.587500", "154843.375000", "154844.165000", "154844.952500", "154845.740000", "154846.527500", "154847.317500", "154848.105000", "154848.892500", "154849.682500", "154850.470000", "154851.257500", "154852.045000", "154852.835000", "154853.622500", "154854.410000", "154855.197500", "154855.987500", "154856.775000", "154857.562500", "154858.350000", "154859.140000", "154859.927500", "154900.715000", "154901.502500", "154902.292500", "154903.080000", "154903.867500", "154904.655000", "154905.445000", "154906.232500", "154907.020000", "154907.810000", "154908.597500", "154909.385000", "154910.172500", "154910.962500", "154911.750000", "154912.537500", "154913.325000", "154914.115000", "154914.902500", "154915.690000", "154916.477500", "154917.267500", "154918.055000", "154918.842500", "154919.630000", "154920.420000", "154921.207500", "154921.995000", "154922.782500", "154923.572500", "154924.360000", "154925.147500", "154925.937500", "154926.725000", "154927.512500", "154928.300000", "154929.090000", "154929.877500", "154930.665000", "154931.452500", "154932.242500", "154933.030000", "154933.817500", "154934.605000", "154935.395000", "154936.182500", "154936.970000", "154937.757500", "154938.547500", "154939.335000", "154940.122500", "154940.910000", "154941.700000", "154942.487500", "154943.275000", "154944.065000", "154944.852500", "154945.640000", "154946.427500", "154947.217500", "154948.005000", "154948.792500", "154949.580000", "154950.370000", "154951.157500", "154951.945000", "154952.732500", "154953.522500", "154954.310000", "154955.097500", "154955.885000", "154956.675000", "154957.462500", "154958.250000", "154959.037500", "154959.827500", "155000.615000", "155001.402500", "155002.192500", "155002.980000", "155003.767500", "155004.555000", "155005.345000", "155006.132500", "155006.920000", "155007.707500", "155008.497500", "155009.285000", "155010.072500", "155010.860000", "155011.650000", "155012.437500", "155013.225000", "155014.012500", "155014.802500", "155015.590000", "155016.377500", "155017.165000", "155017.955000", "155018.742500", "155019.530000", "155020.320000", "155021.107500", "155021.895000", "155022.682500", "155023.472500", "155024.260000", "155025.047500", "155025.835000", "155026.625000", "155027.412500", "155028.200000", "155028.987500", "155029.777500", "155030.565000", "155031.352500", "155032.140000", "155032.930000", "155033.717500", "155034.505000", "155035.292500", "155036.082500", "155036.870000", "155037.657500", "155038.447500", "155039.235000", "155040.022500", "155040.810000", "155041.600000", "155042.387500", "155043.175000", "155043.962500", "155044.752500", "155045.540000", "155046.327500", "155047.115000", "155047.905000", "155048.692500", "155049.480000", "155050.267500", "155051.057500", "155051.845000", "155052.632500", "155053.422500", "155054.210000", "155054.997500", "155055.785000", "155056.575000", "155057.362500", "155058.150000", "155058.937500", "155059.727500", "155100.515000", "155101.302500", "155102.090000", "155102.880000", "155103.667500", "155104.455000", "155105.242500", "155106.032500", "155106.820000", "155107.607500", "155108.395000", "155109.185000", "155109.972500", "155110.760000", "155111.550000", "155112.337500", "155113.125000", "155113.912500", "155114.702500", "155115.490000", "155116.277500", "155117.065000", "155117.855000", "155118.642500", "155119.430000", "155120.217500", "155121.007500", "155121.795000", "155122.582500", "155123.370000", "155124.160000", "155124.947500", "155125.735000", "155126.522500", "155127.312500", "155128.100000", "155128.887500", "155129.677500", "155130.465000", "155131.252500", "155132.040000", "155132.830000", "155133.617500", "155134.405000", "155135.192500", "155135.982500", "155136.770000", "155137.557500", "155138.345000", "155139.135000", "155139.922500", "155140.710000", "155141.497500", "155142.287500", "155143.075000", "155143.862500", "155144.650000", "155145.440000", "155146.227500", "155147.015000", "155147.805000", "155148.592500", "155149.380000", "155150.167500", "155150.957500", "155151.745000", "155152.532500", "155153.320000", "155154.110000", "155154.897500", "155155.685000", "155156.472500", "155157.262500", "155158.050000", "155158.837500", "155159.625000", "155200.415000", "155201.202500", "155201.990000", "155202.777500", "155203.567500", "155204.355000", "155205.142500", "155205.932500", "155206.720000", "155207.507500", "155208.295000", "155209.085000", "155209.872500", "155210.660000", "155211.447500", "155212.237500", "155213.025000", "155213.812500", "155214.600000", "155215.390000", "155216.177500", "155216.965000", "155217.752500", "155218.542500", "155219.330000", "155220.117500", "155220.905000", "155221.695000", "155222.482500", "155223.270000", "155224.060000", "155224.847500", "155225.635000", "155226.422500", "155227.212500", "155228.000000", "155228.787500", "155229.575000", "155230.365000", "155231.152500", "155231.940000", "155232.727500", "155233.517500", "155234.305000", "155235.092500", "155235.880000", "155236.670000", "155237.457500", "155238.245000", "155239.032500", "155239.822500", "155240.610000", "155241.397500", "155242.187500", "155242.975000", "155243.762500", "155244.550000", "155245.340000", "155246.127500", "155246.915000", "155247.702500", "155248.492500", "155249.280000", "155250.067500", "155250.855000", "155251.645000", "155252.432500", "155253.220000", "155254.007500", "155254.797500", "155255.585000", "155256.372500", "155257.160000", "155257.950000", "155258.737500", "155259.525000", "155300.315000", "155301.102500", "155301.890000", "155302.677500", "155303.467500", "155304.255000", "155305.042500", "155305.830000", "155306.620000", "155307.407500", "155308.195000", "155308.982500", "155309.772500", "155310.560000", "155311.347500", "155312.135000", "155312.925000", "155313.712500", "155314.500000", "155315.287500", "155316.077500", "155316.865000", "155317.652500", "155318.442500", "155319.230000", "155320.017500", "155320.805000", "155321.595000", "155322.382500", "155323.170000", "155323.957500", "155324.747500", "155325.535000", "155326.322500", "155327.110000", "155327.900000", "155328.687500", "155329.475000", "155330.262500", "155331.052500", "155331.840000", "155332.627500", "155333.415000", "155334.205000", "155334.992500", "155335.780000", "155336.570000", "155337.357500", "155338.145000", "155338.932500", "155339.722500", "155340.510000", "155341.297500", "155342.085000", "155342.875000", "155343.662500", "155344.450000", "155345.237500", "155346.027500", "155346.815000", "155347.602500", "155348.390000", "155349.180000", "155349.967500", "155350.755000", "155351.542500", "155352.332500", "155353.120000", "155353.907500", "155354.697500", "155355.485000", "155356.272500", "155357.060000", "155357.850000", "155358.637500", "155359.425000", "155400.212500", "155401.002500", "155401.790000", "155402.577500", "155403.365000", "155404.155000", "155404.942500", "155405.730000", "155406.517500", "155407.307500", "155408.095000", "155408.882500", "155409.672500", "155410.460000", "155411.247500", "155412.035000", "155412.825000", "155413.612500", "155414.400000", "155415.187500", "155415.977500", "155416.765000", "155417.552500", "155418.340000", "155419.130000", "155419.917500", "155420.705000", "155421.492500", "155422.282500", "155423.070000", "155423.857500", "155424.645000", "155425.435000", "155426.222500", "155427.010000", "155427.800000", "155428.587500", "155429.375000", "155430.162500", "155430.952500", "155431.740000", "155432.527500", "155433.315000", "155434.105000", "155434.892500", "155435.680000", "155436.467500", "155437.257500", "155438.045000", "155438.832500", "155439.620000", "155440.410000", "155441.197500", "155441.985000", "155442.772500", "155443.562500", "155444.350000", "155445.137500", "155445.927500", "155446.715000", "155447.502500", "155448.290000", "155449.080000", "155449.867500", "155450.655000", "155451.442500", "155452.232500", "155453.020000", "155453.807500", "155454.595000", "155455.385000", "155456.172500", "155456.960000", "155457.747500", "155458.537500", "155459.325000", "155500.112500"],
      "ContentTime": ["161854.625000", "161854.625000", "161854.625000", "161854.625000", "161854.625000", "161954.593000", "161954.593000", "161954.593000", "161954.609000", "161954.609000", "161954.609000", "161954.609000", "161954.609000", "161954.609000", "161954.609000", "161954.625000", "161954.625000", "161954.625000", "161954.625000", "161954.625000", "161954.625000", "161954.625000", "161954.640000", "161954.640000", "161954.640000", "161954.640000", "161954.656000", "161954.656000", "161954.656000", "161954.656000", "161954.656000", "161954.656000", "161954.671000", "162054.593000", "162054.593000", "162054.593000", "162054.593000", "162054.593000", "162054.609000", "162054.609000", "162054.609000", "162054.609000", "162054.609000", "162054.625000", "162054.625000", "162054.625000", "162054.625000", "162054.625000", "162054.640000", "162054.640000", "162054.640000", "162054.640000", "162054.640000", "162054.656000", "162054.656000", "162054.656000", "162054.656000", "162054.656000", "162054.656000", "162054.656000", "162154.593000", "162154.593000", "162154.593000", "162154.593000", "162154.593000", "162154.609000", "162154.609000", "162154.609000", "162154.609000", "162154.609000", "162154.609000", "162154.609000", "162154.625000", "162154.625000", "162154.625000", "162154.640000", "162154.640000", "162154.640000", "162154.640000", "162154.640000", "162154.640000", "162154.640000", "162154.656000", "162154.656000", "162154.656000", "162154.656000", "162154.656000", "162154.671000", "162254.593000", "162254.593000", "162254.593000", "162254.593000", "162254.593000", "162254.609000", "162254.609000", "162254.609000", "162254.609000", "162254.609000", "162254.625000", "162254.625000", "162254.625000", "162254.625000", "162254.625000", "162254.640000", "162254.640000", "162254.640000", "162254.640000", "162254.640000", "162254.640000", "162254.656000", "162254.656000", "162254.656000", "162254.656000", "162254.656000", "162254.671000", "162354.593000", "162354.593000", "162354.593000", "162354.593000", "162354.593000", "162354.609000", "162354.609000", "162354.625000", "162354.625000", "162354.625000", "162354.625000", "162354.625000", "162354.625000", "162354.640000", "162354.640000", "162354.640000", "162354.640000", "162354.640000", "162354.640000", "162354.640000", "162354.656000", "162354.656000", "162354.656000", "162354.656000", "162354.656000", "162354.671000", "162354.671000", "162454.593000", "162454.593000", "162454.593000", "162454.593000", "162454.593000", "162454.609000", "162454.609000", "162454.609000", "162454.609000", "162454.625000", "162454.625000", "162454.625000", "162454.625000", "162454.625000", "162454.625000", "162454.625000", "162454.640000", "162454.640000", "162454.640000", "162454.640000", "162454.640000", "162454.656000", "162454.656000", "162454.656000", "162454.671000", "162454.671000", "162454.671000", "162454.671000", "162554.593000", "162554.593000", "162554.593000", "162554.593000", "162554.609000", "162554.609000", "162554.609000", "162554.609000", "162554.609000", "162554.625000", "162554.625000", "162554.625000", "162554.625000", "162554.640000", "162554.640000", "162554.640000", "162554.640000", "162554.640000", "162554.656000", "162554.656000", "162554.656000", "162554.656000", "162554.671000", "162554.671000", "162554.671000", "162554.671000", "162554.687000", "162654.593000", "162654.609000", "162654.609000", "162654.609000", "162654.609000", "162654.609000", "162654.609000", "162654.609000", "162654.625000", "162654.625000", "162654.625000", "162654.625000", "162654.625000", "162654.625000", "162654.625000", "162654.640000", "162654.640000", "162654.640000", "162654.640000", "162654.656000", "162654.656000", "162654.656000", "162654.656000", "162654.656000", "162654.656000", "162654.656000", "162654.671000", "162654.671000", "162754.593000", "162754.593000", "162754.593000", "162754.609000", "162754.609000", "162754.609000", "162754.609000", "162754.609000", "162754.625000", "162754.625000", "162754.625000", "162754.625000", "162754.625000", "162754.625000", "162754.625000", "162754.640000", "162754.640000", "162754.656000", "162754.656000", "162754.656000", "162754.656000", "162754.656000", "162754.656000", "162754.656000", "162754.671000", "162754.671000", "162754.671000", "162834.609000", "162834.609000", "162834.609000", "162834.609000", "162834.609000", "162834.609000", "162834.609000", "162834.625000", "162834.625000", "162834.625000", "162834.625000", "162834.625000", "162834.625000", "162834.640000", "162834.640000", "162834.640000", "162834.640000", "162834.640000", "162834.640000", "162934.609000", "162934.609000", "162934.609000", "162934.609000", "162934.625000", "162934.625000", "162934.625000", "162934.625000", "162934.625000", "162934.625000", "162934.625000", "162934.640000", "162934.640000", "162934.640000", "162934.640000", "162934.640000", "162934.640000", "162934.640000", "162934.656000", "162934.656000", "162934.656000", "162934.656000", "162934.656000", "162934.671000", "162934.671000", "162934.671000", "162934.671000", "163034.609000", "163034.609000", "163034.609000", "163034.625000", "163034.625000", "163034.625000", "163034.625000", "163034.625000", "163034.625000", "163034.625000", "163034.640000", "163034.640000", "163034.640000", "163034.640000", "163034.640000", "163034.640000", "163034.656000", "163034.656000", "163034.656000", "163034.671000", "163034.671000", "163034.671000", "163034.671000", "163034.671000", "163034.671000", "163034.687000", "163034.687000", "163134.609000", "163134.609000", "163134.609000", "163134.625000", "163134.625000", "163134.625000", "163134.625000", "163134.640000", "163134.640000", "163134.640000", "163134.640000", "163134.640000", "163134.640000", "163134.656000", "163134.656000", "163134.656000", "163134.671000", "163134.671000", "163134.671000", "163134.671000", "163134.687000", "163134.687000", "163134.687000", "163134.687000", "163134.687000", "163134.687000", "163134.703000", "163234.609000", "163234.609000", "163234.609000", "163234.609000", "163234.609000", "163234.609000", "163234.609000", "163234.625000", "163234.625000", "163234.625000", "163234.625000", "163234.625000", "163234.625000", "163234.625000", "163234.640000", "163234.640000", "163234.640000", "163234.640000", "163234.640000", "163234.640000", "163234.656000", "163234.656000", "163234.656000", "163234.656000", "163234.656000", "163234.656000", "163234.656000", "163234.671000", "163334.609000", "163334.609000", "163334.609000", "163334.609000", "163334.609000", "163334.609000", "163334.609000", "163334.625000", "163334.625000", "163334.625000", "163334.625000", "163334.625000", "163334.625000", "163334.640000", "163334.640000", "163334.640000", "163334.640000", "163334.640000", "163334.640000", "163334.640000", "163334.656000", "163334.656000", "163334.656000", "163334.656000", "163334.656000", "163334.656000", "163334.656000", "163434.609000", "163434.609000", "163434.609000", "163434.609000", "163434.609000", "163434.609000", "163434.609000", "163434.625000", "163434.625000", "163434.625000", "163434.625000", "163434.625000", "163434.640000", "163434.640000", "163434.640000", "163434.640000", "163434.656000", "163434.656000", "163434.656000", "163434.656000", "163434.656000", "163434.656000", "163434.656000", "163434.671000", "163434.671000", "163434.671000", "163434.671000", "163534.609000", "163534.609000", "163534.609000", "163534.609000", "163534.609000", "163534.609000", "163534.609000", "163534.625000", "163534.625000", "163534.625000", "163534.625000", "163534.640000", "163534.640000", "163534.640000", "163534.640000", "163534.640000", "163534.640000", "163534.656000", "163534.656000", "163534.656000", "163534.656000", "163534.656000", "163534.656000", "163534.656000", "163534.671000", "163534.671000", "163534.687000", "163534.687000", "163634.593000", "163634.593000", "163634.593000", "163634.593000", "163634.609000", "163634.609000", "163634.625000", "163634.625000", "163634.625000", "163634.625000", "163634.625000", "163634.625000", "163634.625000", "163634.640000", "163634.640000", "163634.640000", "163634.640000", "163634.640000", "163634.640000", "163634.656000", "163634.656000", "163634.656000", "163634.671000", "163634.671000", "163634.671000", "163634.671000", "163634.687000", "163734.593000", "163734.593000", "163734.593000", "163734.609000", "163734.609000", "163734.609000", "163734.609000", "163734.609000", "163734.625000", "163734.625000", "163734.625000", "163734.625000", "163734.625000", "163734.625000", "163734.640000", "163734.640000", "163734.640000", "163734.640000", "163734.640000", "163734.656000", "163734.656000", "163734.656000", "163734.656000", "163734.656000", "163734.656000", "163734.656000", "163734.671000", "163734.671000", "163834.593000", "163834.609000", "163834.609000", "163834.609000", "163834.609000", "163834.609000", "163834.609000", "163834.625000", "163834.625000", "163834.625000", "163834.625000", "163834.625000", "163834.625000", "163834.625000", "163834.640000", "163834.640000", "163834.640000", "163834.640000", "163834.640000", "163834.656000", "163834.656000", "163834.656000", "163834.656000", "163834.656000", "163834.656000", "163834.656000", "163834.671000", "163934.593000", "163934.593000", "163934.593000", "163934.593000", "163934.609000", "163934.609000", "163934.609000", "163934.609000", "163934.609000", "163934.609000", "163934.609000", "163934.625000", "163934.625000", "163934.625000", "163934.625000", "163934.625000", "163934.640000", "163934.640000", "163934.640000", "163934.656000", "163934.656000", "163934.656000", "163934.656000", "163934.656000", "163934.656000", "163934.671000", "163934.671000", "163954.640000", "163954.656000", "163954.656000", "163954.656000", "163954.656000", "163954.656000", "163954.656000", "163954.671000", "163954.671000", "163954.671000"],
      "DataSetTrailingPadding": [
        "\u0000\u0000\u0000\u0000\u0000\u0000\u0000\u0000\u0000\u0000\u0000\u0000\u0000\u0000\u0000\u0000\u0000\u0000\u0000\u0000\u0000\u0000\u0000\u0000\u0000\u0000\u0000\u0000\u0000\u0000\u0000\u0000\u0000\u0000\u0000\u0000",
        "\u0000\u0000\u0000\u0000\u0000\u0000\u0000\u0000\u0000\u0000\u0000\u0000\u0000\u0000\u0000\u0000\u0000\u0000\u0000\u0000\u0000\u0000\u0000\u0000\u0000\u0000\u0000\u0000\u0000\u0000\u0000\u0000\u0000\u0000\u0000\u0000",
        "\u0000\u0000\u0000\u0000\u0000\u0000\u0000\u0000\u0000\u0000\u0000\u0000\u0000\u0000\u0000\u0000\u0000\u0000\u0000\u0000\u0000\u0000\u0000\u0000\u0000\u0000\u0000\u0000\u0000\u0000\u0000\u0000\u0000\u0000",
        "\u0000\u0000\u0000\u0000\u0000\u0000\u0000\u0000\u0000\u0000\u0000\u0000\u0000\u0000\u0000\u0000\u0000\u0000\u0000\u0000\u0000\u0000\u0000\u0000\u0000\u0000\u0000\u0000\u0000\u0000\u0000\u0000\u0000\u0000",
        "\u0000\u0000\u0000\u0000\u0000\u0000\u0000\u0000\u0000\u0000\u0000\u0000\u0000\u0000\u0000\u0000\u0000\u0000\u0000\u0000\u0000\u0000\u0000\u0000\u0000\u0000\u0000\u0000\u0000\u0000\u0000\u0000\u0000\u0000\u0000\u0000",
        "\u0000\u0000\u0000\u0000\u0000\u0000\u0000\u0000\u0000\u0000\u0000\u0000\u0000\u0000\u0000\u0000\u0000\u0000\u0000\u0000\u0000\u0000\u0000\u0000\u0000\u0000\u0000\u0000\u0000\u0000\u0000\u0000\u0000\u0000",
        "\u0000\u0000\u0000\u0000\u0000\u0000\u0000\u0000\u0000\u0000\u0000\u0000\u0000\u0000\u0000\u0000\u0000\u0000\u0000\u0000\u0000\u0000\u0000\u0000\u0000\u0000\u0000\u0000\u0000\u0000\u0000\u0000\u0000\u0000\u0000\u0000",
        "\u0000\u0000\u0000\u0000\u0000\u0000\u0000\u0000\u0000\u0000\u0000\u0000\u0000\u0000\u0000\u0000\u0000\u0000\u0000\u0000\u0000\u0000\u0000\u0000\u0000\u0000\u0000\u0000\u0000\u0000\u0000\u0000\u0000\u0000\u0000\u0000",
