{
  "AcquisitionMatrixPE": 104,
  "AcquisitionNumber": 1,
  "AcquisitionTime": "15:24:49.117500",
  "BandwidthPerPixelPhaseEncode": 13.935,
  "BaseResolution": 104,
  "CoilString": "C:HEA;HEP",
  "ConversionSoftware": "dcm2niix",
  "ConversionSoftwareVersion": "v1.0.20210317",
  "DerivedVendorReportedEchoSpacing": 0.000690017,
  "DeviceSerialNumber": "35450",
  "DwellTime": 2.5e-06,
  "EchoTime": 0.0348,
  "EffectiveEchoSpacing": 0.000690017,
  "FlipAngle": 55,
  "ImageComments": "Unaliased MB8/PE3",
  "ImageOrientationPatientDICOM": [0.999919, 0.00205885, 0.0125729, -9.39616e-09, 0.986856, -0.1616],
  "ImageType": [
    "ORIGINAL",
    "PRIMARY",
    "M",
    "MB",
    "ND",
    "MOSAIC"
],
  "ImagingFrequency": 123.235,
  "InPlanePhaseEncodingDirectionDICOM": "COL",
  "InstitutionAddress": "Univeristy Ave. 197,Newark,North East,US,07102-1814",
  "InstitutionName": "RUBIC",
  "InstitutionalDepartmentName": "Department",
  "MRAcquisitionType": "2D",
  "MagneticFieldStrength": 3,
  "Manufacturer": "Siemens",
  "ManufacturersModelName": "TrioTim",
  "Modality": "MR",
  "MultibandAccelerationFactor": 8,
  "PartialFourier": 0.875,
  "PatientPosition": "HFS",
  "PercentPhaseFOV": 100,
  "PercentSampling": 100,
  "PhaseEncodingDirection": "j-",
  "PhaseEncodingSteps": 91,
  "PhaseResolution": 1,
  "PixelBandwidth": 1923,
  "ProcedureStepDescription": "Cole^Michael",
  "ProtocolName": "cmrr_mbep2d_bold_2mm_MB8_Rest",
  "PulseSequenceDetails": "%CustomerSeq%\\cmrr_mbep2d_bold",
  "ReceiveCoilName": "32Ch_Head",
  "ReconMatrixPE": 104,
  "RepetitionTime": 0.785,
  "SAR": 0.108297,
  "ScanOptions": "PFP\\FS",
  "ScanningSequence": "EP",
  "SequenceName": "epfid2d1_104",
  "SequenceVariant": "SK\\SS",
  "SeriesDescription": "cmrr_mbep2d_bold_2mm_MB8_Rest",
  "SeriesNumber": 9,
  "ShimSetting": [2135, -413, -7251, 553, 67, -287, 99, 64],
  "SliceThickness": 2,
  "SliceTiming": [0, 0.4375, 0.0875, 0.525, 0.175, 0.6125, 0.2625, 0.7, 0.35, 0, 0.4375, 0.0875, 0.525, 0.175, 0.6125, 0.2625, 0.7, 0.35, 0, 0.4375, 0.0875, 0.525, 0.175, 0.6125, 0.2625, 0.7, 0.35, 0, 0.4375, 0.0875, 0.525, 0.175, 0.6125, 0.2625, 0.7, 0.35, 0, 0.4375, 0.0875, 0.525, 0.175, 0.6125, 0.2625, 0.7, 0.35, 0, 0.4375, 0.0875, 0.525, 0.175, 0.6125, 0.2625, 0.7, 0.35, 0, 0.4375, 0.0875, 0.525, 0.175, 0.6125, 0.2625, 0.7, 0.35, 0, 0.4375, 0.0875, 0.525, 0.175, 0.6125, 0.2625, 0.7, 0.35],
  "SoftwareVersions": "syngo MR B19",
  "SpacingBetweenSlices": 2,
  "StationName": "MRC35450",
  "TaskName": "rest",
  "TotalReadoutTime": 0.0710717,
  "TxRefAmp": 315.523,
  "dcmmeta_affine": [
    [-1.9998376369476318, -1.8792327693972766e-08, 0.02548067271709442, 103.05376434326172],
    [-0.004117702133953571, 1.9737125635147095, -0.3231743276119232, -78.75324249267578],
    [0.02514575980603695, 0.3232005536556244, 1.9735524654388428, -107.64749908447266],
    [0.0, 0.0, 0.0, 1.0]
],
  "dcmmeta_reorient_transform": [
    [0.0, -1.0, 0.0, 103.0],
    [1.0, 0.0, 0.0, 0.0],
    [0.0, 0.0, 1.0, 0.0],
    [0.0, 0.0, 0.0, 1.0]
],
  "dcmmeta_shape": [104, 104, 72, 1070],
  "dcmmeta_slice_dim": 2,
  "dcmmeta_version": 0.6,
  "global": {
    "const": {
      "AcquisitionMatrix": [104, 0, 0, 104],
      "AngioFlag": "N",
      "BitsAllocated": 16,
      "BitsStored": 12,
      "Columns": 936,
      "EchoNumbers": 1,
      "EchoTime": 34.8,
      "EchoTrainLength": 1,
      "FlipAngle": 55.0,
      "HighBit": 11,
      "ImageOrientationPatient": [0.99991883861804, 0.00205885117722, 0.0125728798845, -9.396164e-09, 0.98685629701143, -0.1616002755223],
      "ImagePositionPatient": [-934.98623024117, -947.31655906651, 49.63295286387],
      "ImageType": [
        "ORIGINAL",
        "PRIMARY",
        "M",
        "MB",
        "ND",
        "MOSAIC"
],
      "ImagedNucleus": "1H",
      "ImagingFrequency": 123.234637,
      "InPlanePhaseEncodingDirection": "COL",
      "MRAcquisitionType": "2D",
      "MagneticFieldStrength": 3.0,
      "Manufacturer": "SIEMENS",
      "ManufacturerModelName": "TrioTim",
      "Modality": "MR",
      "NumberOfAverages": 1.0,
      "NumberOfPhaseEncodingSteps": 91,
      "PercentPhaseFieldOfView": 100.0,
      "PercentSampling": 100.0,
      "PerformedProcedureStepStartTime": "145533.859000",
      "PhotometricInterpretation": "MONOCHROME2",
      "PixelBandwidth": 1923.0,
      "PixelRepresentation": 0,
      "PixelSpacing": [2.0, 2.0],
      "ProtocolName": "cmrr_mbep2d_bold_2mm_MB8_Rest",
      "RepetitionTime": 785.0,
      "Rows": 936,
      "SAR": 0.10829720725011,
      "SamplesPerPixel": 1,
      "ScanOptions": [
        "PFP",
        "FS"
],
      "ScanningSequence": "EP",
      "SequenceName": "epfid2d1_104",
      "SequenceVariant": [
        "SK",
        "SS"
],
      "SeriesDescription": "cmrr_mbep2d_bold_2mm_MB8_Rest",
      "SeriesNumber": 9,
      "SeriesTime": "152606.125000",
      "SliceLocation": -92.185536084773,
      "SliceThickness": 2.0,
      "SmallestImagePixelValue": 0,
      "SoftwareVersions": "syngo MR B19",
      "SpacingBetweenSlices": 2.0000000326651,
      "SpecificCharacterSet": "ISO_IR 100",
      "StudyID": "1",
      "StudyTime": "145533.765000",
      "TransmitCoilName": "Body",
      "VariableFlipAngleFlag": "N",
      "WindowCenterWidthExplanation": "Algo1",
      "dBdt": 0.0},
    "slices": {}
  },
  "time": {
    "samples": {
      "AcquisitionNumber": [1, 2, 3, 4, 5, 6, 7, 8, 9, 10, 11, 12, 13, 14, 15, 16, 17, 18, 19, 20, 21, 22, 23, 24, 25, 26, 27, 28, 29, 30, 31, 32, 33, 34, 35, 36, 37, 38, 39, 40, 41, 42, 43, 44, 45, 46, 47, 48, 49, 50, 51, 52, 53, 54, 55, 56, 57, 58, 59, 60, 61, 62, 63, 64, 65, 66, 67, 68, 69, 70, 71, 72, 73, 74, 75, 76, 77, 78, 79, 80, 81, 82, 83, 84, 85, 86, 87, 88, 89, 90, 91, 92, 93, 94, 95, 96, 97, 98, 99, 100, 101, 102, 103, 104, 105, 106, 107, 108, 109, 110, 111, 112, 113, 114, 115, 116, 117, 118, 119, 120, 121, 122, 123, 124, 125, 126, 127, 128, 129, 130, 131, 132, 133, 134, 135, 136, 137, 138, 139, 140, 141, 142, 143, 144, 145, 146, 147, 148, 149, 150, 151, 152, 153, 154, 155, 156, 157, 158, 159, 160, 161, 162, 163, 164, 165, 166, 167, 168, 169, 170, 171, 172, 173, 174, 175, 176, 177, 178, 179, 180, 181, 182, 183, 184, 185, 186, 187, 188, 189, 190, 191, 192, 193, 194, 195, 196, 197, 198, 199, 200, 201, 202, 203, 204, 205, 206, 207, 208, 209, 210, 211, 212, 213, 214, 215, 216, 217, 218, 219, 220, 221, 222, 223, 224, 225, 226, 227, 228, 229, 230, 231, 232, 233, 234, 235, 236, 237, 238, 239, 240, 241, 242, 243, 244, 245, 246, 247, 248, 249, 250, 251, 252, 253, 254, 255, 256, 257, 258, 259, 260, 261, 262, 263, 264, 265, 266, 267, 268, 269, 270, 271, 272, 273, 274, 275, 276, 277, 278, 279, 280, 281, 282, 283, 284, 285, 286, 287, 288, 289, 290, 291, 292, 293, 294, 295, 296, 297, 298, 299, 300, 301, 302, 303, 304, 305, 306, 307, 308, 309, 310, 311, 312, 313, 314, 315, 316, 317, 318, 319, 320, 321, 322, 323, 324, 325, 326, 327, 328, 329, 330, 331, 332, 333, 334, 335, 336, 337, 338, 339, 340, 341, 342, 343, 344, 345, 346, 347, 348, 349, 350, 351, 352, 353, 354, 355, 356, 357, 358, 359, 360, 361, 362, 363, 364, 365, 366, 367, 368, 369, 370, 371, 372, 373, 374, 375, 376, 377, 378, 379, 380, 381, 382, 383, 384, 385, 386, 387, 388, 389, 390, 391, 392, 393, 394, 395, 396, 397, 398, 399, 400, 401, 402, 403, 404, 405, 406, 407, 408, 409, 410, 411, 412, 413, 414, 415, 416, 417, 418, 419, 420, 421, 422, 423, 424, 425, 426, 427, 428, 429, 430, 431, 432, 433, 434, 435, 436, 437, 438, 439, 440, 441, 442, 443, 444, 445, 446, 447, 448, 449, 450, 451, 452, 453, 454, 455, 456, 457, 458, 459, 460, 461, 462, 463, 464, 465, 466, 467, 468, 469, 470, 471, 472, 473, 474, 475, 476, 477, 478, 479, 480, 481, 482, 483, 484, 485, 486, 487, 488, 489, 490, 491, 492, 493, 494, 495, 496, 497, 498, 499, 500, 501, 502, 503, 504, 505, 506, 507, 508, 509, 510, 511, 512, 513, 514, 515, 516, 517, 518, 519, 520, 521, 522, 523, 524, 525, 526, 527, 528, 529, 530, 531, 532, 533, 534, 535, 536, 537, 538, 539, 540, 541, 542, 543, 544, 545, 546, 547, 548, 549, 550, 551, 552, 553, 554, 555, 556, 557, 558, 559, 560, 561, 562, 563, 564, 565, 566, 567, 568, 569, 570, 571, 572, 573, 574, 575, 576, 577, 578, 579, 580, 581, 582, 583, 584, 585, 586, 587, 588, 589, 590, 591, 592, 593, 594, 595, 596, 597, 598, 599, 600, 601, 602, 603, 604, 605, 606, 607, 608, 609, 610, 611, 612, 613, 614, 615, 616, 617, 618, 619, 620, 621, 622, 623, 624, 625, 626, 627, 628, 629, 630, 631, 632, 633, 634, 635, 636, 637, 638, 639, 640, 641, 642, 643, 644, 645, 646, 647, 648, 649, 650, 651, 652, 653, 654, 655, 656, 657, 658, 659, 660, 661, 662, 663, 664, 665, 666, 667, 668, 669, 670, 671, 672, 673, 674, 675, 676, 677, 678, 679, 680, 681, 682, 683, 684, 685, 686, 687, 688, 689, 690, 691, 692, 693, 694, 695, 696, 697, 698, 699, 700, 701, 702, 703, 704, 705, 706, 707, 708, 709, 710, 711, 712, 713, 714, 715, 716, 717, 718, 719, 720, 721, 722, 723, 724, 725, 726, 727, 728, 729, 730, 731, 732, 733, 734, 735, 736, 737, 738, 739, 740, 741, 742, 743, 744, 745, 746, 747, 748, 749, 750, 751, 752, 753, 754, 755, 756, 757, 758, 759, 760, 761, 762, 763, 764, 765, 766, 767, 768, 769, 770, 771, 772, 773, 774, 775, 776, 777, 778, 779, 780, 781, 782, 783, 784, 785, 786, 787, 788, 789, 790, 791, 792, 793, 794, 795, 796, 797, 798, 799, 800, 801, 802, 803, 804, 805, 806, 807, 808, 809, 810, 811, 812, 813, 814, 815, 816, 817, 818, 819, 820, 821, 822, 823, 824, 825, 826, 827, 828, 829, 830, 831, 832, 833, 834, 835, 836, 837, 838, 839, 840, 841, 842, 843, 844, 845, 846, 847, 848, 849, 850, 851, 852, 853, 854, 855, 856, 857, 858, 859, 860, 861, 862, 863, 864, 865, 866, 867, 868, 869, 870, 871, 872, 873, 874, 875, 876, 877, 878, 879, 880, 881, 882, 883, 884, 885, 886, 887, 888, 889, 890, 891, 892, 893, 894, 895, 896, 897, 898, 899, 900, 901, 902, 903, 904, 905, 906, 907, 908, 909, 910, 911, 912, 913, 914, 915, 916, 917, 918, 919, 920, 921, 922, 923, 924, 925, 926, 927, 928, 929, 930, 931, 932, 933, 934, 935, 936, 937, 938, 939, 940, 941, 942, 943, 944, 945, 946, 947, 948, 949, 950, 951, 952, 953, 954, 955, 956, 957, 958, 959, 960, 961, 962, 963, 964, 965, 966, 967, 968, 969, 970, 971, 972, 973, 974, 975, 976, 977, 978, 979, 980, 981, 982, 983, 984, 985, 986, 987, 988, 989, 990, 991, 992, 993, 994, 995, 996, 997, 998, 999, 1000, 1001, 1002, 1003, 1004, 1005, 1006, 1007, 1008, 1009, 1010, 1011, 1012, 1013, 1014, 1015, 1016, 1017, 1018, 1019, 1020, 1021, 1022, 1023, 1024, 1025, 1026, 1027, 1028, 1029, 1030, 1031, 1032, 1033, 1034, 1035, 1036, 1037, 1038, 1039, 1040, 1041, 1042, 1043, 1044, 1045, 1046, 1047, 1048, 1049, 1050, 1051, 1052, 1053, 1054, 1055, 1056, 1057, 1058, 1059, 1060, 1061, 1062, 1063, 1064, 1065, 1066, 1067, 1068, 1069, 1070],
      "AcquisitionTime": ["152449.117500", "152449.905000", "152450.695000", "152451.482500", "152452.270000", "152453.057500", "152453.847500", "152454.635000", "152455.422500", "152456.212500", "152457.000000", "152457.787500", "152458.575000", "152459.365000", "152500.152500", "152500.940000", "152501.727500", "152502.517500", "152503.305000", "152504.092500", "152504.880000", "152505.670000", "152506.457500", "152507.245000", "152508.032500", "152508.822500", "152509.610000", "152510.397500", "152511.185000", "152511.975000", "152512.762500", "152513.550000", "152514.340000", "152515.127500", "152515.915000", "152516.702500", "152517.492500", "152518.280000", "152519.067500", "152519.855000", "152520.645000", "152521.432500", "152522.220000", "152523.007500", "152523.797500", "152524.585000", "152525.372500", "152526.160000", "152526.950000", "152527.737500", "152528.525000", "152529.312500", "152530.102500", "152530.890000", "152531.677500", "152532.467500", "152533.255000", "152534.042500", "152534.830000", "152535.620000", "152536.407500", "152537.195000", "152537.982500", "152538.772500", "152539.560000", "152540.347500", "152541.135000", "152541.925000", "152542.712500", "152543.500000", "152544.287500", "152545.077500", "152545.865000", "152546.652500", "152547.440000", "152548.230000", "152549.017500", "152549.805000", "152550.595000", "152551.382500", "152552.170000", "152552.957500", "152553.747500", "152554.535000", "152555.322500", "152556.110000", "152556.900000", "152557.687500", "152558.475000", "152559.262500", "152600.052500", "152600.840000", "152601.627500", "152602.415000", "152603.205000", "152603.992500", "152604.780000", "152605.567500", "152606.357500", "152607.145000", "152607.932500", "152608.722500", "152609.510000", "152610.297500", "152611.085000", "152611.875000", "152612.662500", "152613.450000", "152614.237500", "152615.027500", "152615.815000", "152616.602500", "152617.390000", "152618.180000", "152618.967500", "152619.755000", "152620.542500", "152621.332500", "152622.120000", "152622.907500", "152623.695000", "152624.485000", "152625.272500", "152626.060000", "152626.850000", "152627.637500", "152628.425000", "152629.212500", "152630.002500", "152630.790000", "152631.577500", "152632.365000", "152633.155000", "152633.942500", "152634.730000", "152635.517500", "152636.307500", "152637.095000", "152637.882500", "152638.670000", "152639.460000", "152640.247500", "152641.035000", "152641.822500", "152642.612500", "152643.400000", "152644.187500", "152644.977500", "152645.765000", "152646.552500", "152647.340000", "152648.130000", "152648.917500", "152649.705000", "152650.492500", "152651.282500", "152652.070000", "152652.857500", "152653.645000", "152654.435000", "152655.222500", "152656.010000", "152656.797500", "152657.587500", "152658.375000", "152659.162500", "152659.950000", "152700.740000", "152701.527500", "152702.315000", "152703.105000", "152703.892500", "152704.680000", "152705.467500", "152706.257500", "152707.045000", "152707.832500", "152708.620000", "152709.410000", "152710.197500", "152710.985000", "152711.772500", "152712.562500", "152713.350000", "152714.137500", "152714.925000", "152715.715000", "152716.502500", "152717.290000", "152718.080000", "152718.867500", "152719.655000", "152720.442500", "152721.232500", "152722.020000", "152722.807500", "152723.595000", "152724.385000", "152725.172500", "152725.960000", "152726.747500", "152727.537500", "152728.325000", "152729.112500", "152729.900000", "152730.690000", "152731.477500", "152732.265000", "152733.052500", "152733.842500", "152734.630000", "152735.417500", "152736.207500", "152736.995000", "152737.782500", "152738.570000", "152739.360000", "152740.147500", "152740.935000", "152741.722500", "152742.512500", "152743.300000", "152744.087500", "152744.875000", "152745.665000", "152746.452500", "152747.240000", "152748.027500", "152748.817500", "152749.605000", "152750.392500", "152751.180000", "152751.970000", "152752.757500", "152753.545000", "152754.335000", "152755.122500", "152755.910000", "152756.697500", "152757.487500", "152758.275000", "152759.062500", "152759.850000", "152800.640000", "152801.427500", "152802.215000", "152803.002500", "152803.792500", "152804.580000", "152805.367500", "152806.155000", "152806.945000", "152807.732500", "152808.520000", "152809.307500", "152810.097500", "152810.885000", "152811.672500", "152812.462500", "152813.250000", "152814.037500", "152814.825000", "152815.615000", "152816.402500", "152817.190000", "152817.977500", "152818.767500", "152819.555000", "152820.342500", "152821.130000", "152821.920000", "152822.707500", "152823.495000", "152824.282500", "152825.072500", "152825.860000", "152826.647500", "152827.435000", "152828.225000", "152829.012500", "152829.800000", "152830.590000", "152831.377500", "152832.165000", "152832.952500", "152833.742500", "152834.530000", "152835.317500", "152836.105000", "152836.895000", "152837.682500", "152838.470000", "152839.257500", "152840.047500", "152840.835000", "152841.622500", "152842.410000", "152843.200000", "152843.987500", "152844.775000", "152845.562500", "152846.352500", "152847.140000", "152847.927500", "152848.717500", "152849.505000", "152850.292500", "152851.080000", "152851.870000", "152852.657500", "152853.445000", "152854.232500", "152855.022500", "152855.810000", "152856.597500", "152857.385000", "152858.175000", "152858.962500", "152859.750000", "152900.537500", "152901.327500", "152902.115000", "152902.902500", "152903.690000", "152904.480000", "152905.267500", "152906.055000", "152906.845000", "152907.632500", "152908.420000", "152909.207500", "152909.997500", "152910.785000", "152911.572500", "152912.360000", "152913.150000", "152913.937500", "152914.725000", "152915.512500", "152916.302500", "152917.090000", "152917.877500", "152918.665000", "152919.455000", "152920.242500", "152921.030000", "152921.817500", "152922.607500", "152923.395000", "152924.182500", "152924.972500", "152925.760000", "152926.547500", "152927.335000", "152928.125000", "152928.912500", "152929.700000", "152930.487500", "152931.277500", "152932.065000", "152932.852500", "152933.640000", "152934.430000", "152935.217500", "152936.005000", "152936.792500", "152937.582500", "152938.370000", "152939.157500", "152939.945000", "152940.735000", "152941.522500", "152942.310000", "152943.100000", "152943.887500", "152944.675000", "152945.462500", "152946.252500", "152947.040000", "152947.827500", "152948.615000", "152949.405000", "152950.192500", "152950.980000", "152951.767500", "152952.557500", "152953.345000", "152954.132500", "152954.920000", "152955.710000", "152956.497500", "152957.285000", "152958.072500", "152958.862500", "152959.650000", "153000.437500", "153001.227500", "153002.015000", "153002.802500", "153003.590000", "153004.380000", "153005.167500", "153005.955000", "153006.742500", "153007.532500", "153008.320000", "153009.107500", "153009.895000", "153010.685000", "153011.472500", "153012.260000", "153013.047500", "153013.837500", "153014.625000", "153015.412500", "153016.200000", "153016.990000", "153017.777500", "153018.565000", "153019.355000", "153020.142500", "153020.930000", "153021.717500", "153022.507500", "153023.295000", "153024.082500", "153024.870000", "153025.660000", "153026.447500", "153027.235000", "153028.022500", "153028.812500", "153029.600000", "153030.387500", "153031.175000", "153031.965000", "153032.752500", "153033.540000", "153034.330000", "153035.117500", "153035.905000", "153036.692500", "153037.482500", "153038.270000", "153039.057500", "153039.845000", "153040.635000", "153041.422500", "153042.210000", "153042.997500", "153043.787500", "153044.575000", "153045.362500", "153046.150000", "153046.940000", "153047.727500", "153048.515000", "153049.302500", "153050.092500", "153050.880000", "153051.667500", "153052.457500", "153053.245000", "153054.032500", "153054.820000", "153055.610000", "153056.397500", "153057.185000", "153057.972500", "153058.762500", "153059.550000", "153100.337500", "153101.125000", "153101.915000", "153102.702500", "153103.490000", "153104.277500", "153105.067500", "153105.855000", "153106.642500", "153107.430000", "153108.220000", "153109.007500", "153109.795000", "153110.585000", "153111.372500", "153112.160000", "153112.947500", "153113.737500", "153114.525000", "153115.312500", "153116.100000", "153116.890000", "153117.677500", "153118.465000", "153119.252500", "153120.042500", "153120.830000", "153121.617500", "153122.405000", "153123.195000", "153123.982500", "153124.770000", "153125.557500", "153126.347500", "153127.135000", "153127.922500", "153128.712500", "153129.500000", "153130.287500", "153131.075000", "153131.865000", "153132.652500", "153133.440000", "153134.227500", "153135.017500", "153135.805000", "153136.592500", "153137.380000", "153138.170000", "153138.957500", "153139.745000", "153140.532500", "153141.322500", "153142.110000", "153142.897500", "153143.685000", "153144.475000", "153145.262500", "153146.050000", "153146.840000", "153147.627500", "153148.415000", "153149.202500", "153149.992500", "153150.780000", "153151.567500", "153152.355000", "153153.145000", "153153.932500", "153154.720000", "153155.507500", "153156.297500", "153157.085000", "153157.872500", "153158.660000", "153159.450000", "153200.237500", "153201.025000", "153201.812500", "153202.602500", "153203.390000", "153204.177500", "153204.967500", "153205.755000", "153206.542500", "153207.330000", "153208.120000", "153208.907500", "153209.695000", "153210.482500", "153211.272500", "153212.060000", "153212.847500", "153213.635000", "153214.425000", "153215.212500", "153216.000000", "153216.787500", "153217.577500", "153218.365000", "153219.152500", "153219.940000", "153220.730000", "153221.517500", "153222.305000", "153223.095000", "153223.882500", "153224.670000", "153225.457500", "153226.247500", "153227.035000", "153227.822500", "153228.610000", "153229.400000", "153230.187500", "153230.975000", "153231.762500", "153232.552500", "153233.340000", "153234.127500", "153234.915000", "153235.705000", "153236.492500", "153237.280000", "153238.067500", "153238.857500", "153239.645000", "153240.432500", "153241.222500", "153242.010000", "153242.797500", "153243.585000", "153244.375000", "153245.162500", "153245.950000", "153246.737500", "153247.527500", "153248.315000", "153249.102500", "153249.890000", "153250.680000", "153251.467500", "153252.255000", "153253.042500", "153253.832500", "153254.620000", "153255.407500", "153256.195000", "153256.985000", "153257.772500", "153258.560000", "153259.350000", "153300.137500", "153300.925000", "153301.712500", "153302.502500", "153303.290000", "153304.077500", "153304.865000", "153305.655000", "153306.442500", "153307.230000", "153308.017500", "153308.807500", "153309.595000", "153310.382500", "153311.170000", "153311.960000", "153312.747500", "153313.535000", "153314.322500", "153315.112500", "153315.900000", "153316.687500", "153317.477500", "153318.265000", "153319.052500", "153319.840000", "153320.630000", "153321.417500", "153322.205000", "153322.992500", "153323.782500", "153324.570000", "153325.357500", "153326.145000", "153326.935000", "153327.722500", "153328.510000", "153329.297500", "153330.087500", "153330.875000", "153331.662500", "153332.450000", "153333.240000", "153334.027500", "153334.815000", "153335.605000", "153336.392500", "153337.180000", "153337.967500", "153338.757500", "153339.545000", "153340.332500", "153341.120000", "153341.910000", "153342.697500", "153343.485000", "153344.272500", "153345.062500", "153345.850000", "153346.637500", "153347.425000", "153348.215000", "153349.002500", "153349.790000", "153350.580000", "153351.367500", "153352.155000", "153352.942500", "153353.732500", "153354.520000", "153355.307500", "153356.095000", "153356.885000", "153357.672500", "153358.460000", "153359.247500", "153400.037500", "153400.825000", "153401.612500", "153402.400000", "153403.190000", "153403.977500", "153404.765000", "153405.552500", "153406.342500", "153407.130000", "153407.917500", "153408.707500", "153409.495000", "153410.282500", "153411.070000", "153411.860000", "153412.647500", "153413.435000", "153414.222500", "153415.012500", "153415.800000", "153416.587500", "153417.375000", "153418.165000", "153418.952500", "153419.740000", "153420.527500", "153421.317500", "153422.105000", "153422.892500", "153423.680000", "153424.470000", "153425.257500", "153426.045000", "153426.835000", "153427.622500", "153428.410000", "153429.197500", "153429.987500", "153430.775000", "153431.562500", "153432.350000", "153433.140000", "153433.927500", "153434.715000", "153435.502500", "153436.292500", "153437.080000", "153437.867500", "153438.655000", "153439.445000", "153440.232500", "153441.020000", "153441.807500", "153442.597500", "153443.385000", "153444.172500", "153444.962500", "153445.750000", "153446.537500", "153447.325000", "153448.115000", "153448.902500", "153449.690000", "153450.477500", "153451.267500", "153452.055000", "153452.842500", "153453.630000", "153454.420000", "153455.207500", "153455.995000", "153456.782500", "153457.572500", "153458.360000", "153459.147500", "153459.935000", "153500.725000", "153501.512500", "153502.300000", "153503.090000", "153503.877500", "153504.665000", "153505.452500", "153506.242500", "153507.030000", "153507.817500", "153508.605000", "153509.395000", "153510.182500", "153510.970000", "153511.757500", "153512.547500", "153513.335000", "153514.122500", "153514.910000", "153515.700000", "153516.487500", "153517.275000", "153518.062500", "153518.852500", "153519.640000", "153520.427500", "153521.217500", "153522.005000", "153522.792500", "153523.580000", "153524.370000", "153525.157500", "153525.945000", "153526.732500", "153527.522500", "153528.310000", "153529.097500", "153529.885000", "153530.675000", "153531.462500", "153532.250000", "153533.037500", "153533.827500", "153534.615000", "153535.402500", "153536.190000", "153536.980000", "153537.767500", "153538.555000", "153539.345000", "153540.132500", "153540.920000", "153541.707500", "153542.497500", "153543.285000", "153544.072500", "153544.860000", "153545.650000", "153546.437500", "153547.225000", "153548.012500", "153548.802500", "153549.590000", "153550.377500", "153551.165000", "153551.955000", "153552.742500", "153553.530000", "153554.317500", "153555.107500", "153555.895000", "153556.682500", "153557.472500", "153558.260000", "153559.047500", "153559.835000", "153600.625000", "153601.412500", "153602.200000", "153602.987500", "153603.777500", "153604.565000", "153605.352500", "153606.140000", "153606.930000", "153607.717500", "153608.505000", "153609.292500", "153610.082500", "153610.870000", "153611.657500", "153612.445000", "153613.235000", "153614.022500", "153614.810000", "153615.600000", "153616.387500", "153617.175000", "153617.962500", "153618.752500", "153619.540000", "153620.327500", "153621.115000", "153621.905000", "153622.692500", "153623.480000", "153624.267500", "153625.057500", "153625.845000", "153626.632500", "153627.420000", "153628.210000", "153628.997500", "153629.785000", "153630.572500", "153631.362500", "153632.150000", "153632.937500", "153633.727500", "153634.515000", "153635.302500", "153636.090000", "153636.880000", "153637.667500", "153638.455000", "153639.242500", "153640.032500", "153640.820000", "153641.607500", "153642.395000", "153643.185000", "153643.972500", "153644.760000", "153645.547500", "153646.337500", "153647.125000", "153647.912500", "153648.700000", "153649.490000", "153650.277500", "153651.065000", "153651.855000", "153652.642500", "153653.430000", "153654.217500", "153655.007500", "153655.795000", "153656.582500", "153657.370000", "153658.160000", "153658.947500", "153659.735000", "153700.522500", "153701.312500", "153702.100000", "153702.887500", "153703.675000", "153704.465000", "153705.252500", "153706.040000", "153706.830000", "153707.617500", "153708.405000", "153709.192500", "153709.982500", "153710.770000", "153711.557500", "153712.345000", "153713.135000", "153713.922500", "153714.710000", "153715.497500", "153716.287500", "153717.075000", "153717.862500", "153718.650000", "153719.440000", "153720.227500", "153721.015000", "153721.802500", "153722.592500", "153723.380000", "153724.167500", "153724.957500", "153725.745000", "153726.532500", "153727.320000", "153728.110000", "153728.897500", "153729.685000", "153730.472500", "153731.262500", "153732.050000", "153732.837500", "153733.625000", "153734.415000", "153735.202500", "153735.990000", "153736.777500", "153737.567500", "153738.355000", "153739.142500", "153739.930000", "153740.720000", "153741.507500", "153742.295000", "153743.085000", "153743.872500", "153744.660000", "153745.447500", "153746.237500", "153747.025000", "153747.812500", "153748.600000", "153749.390000", "153750.177500", "153750.965000", "153751.752500", "153752.542500", "153753.330000", "153754.117500", "153754.905000", "153755.695000", "153756.482500", "153757.270000", "153758.057500", "153758.847500", "153759.635000", "153800.422500", "153801.212500", "153802.000000", "153802.787500", "153803.575000", "153804.365000", "153805.152500", "153805.940000", "153806.727500", "153807.517500", "153808.305000", "153809.092500", "153809.880000", "153810.670000", "153811.457500", "153812.245000", "153813.032500", "153813.822500", "153814.610000", "153815.397500", "153816.185000", "153816.975000", "153817.762500", "153818.550000", "153819.340000", "153820.127500", "153820.915000", "153821.702500", "153822.492500", "153823.280000", "153824.067500", "153824.855000", "153825.645000", "153826.432500", "153827.220000", "153828.007500", "153828.797500", "153829.585000", "153830.372500", "153831.160000", "153831.950000", "153832.737500", "153833.525000", "153834.312500", "153835.102500", "153835.890000", "153836.677500", "153837.467500", "153838.255000", "153839.042500", "153839.830000", "153840.620000", "153841.407500", "153842.195000", "153842.982500", "153843.772500", "153844.560000", "153845.347500", "153846.135000", "153846.925000", "153847.712500", "153848.500000", "153849.287500", "153850.077500", "153850.865000", "153851.652500"],
