{
  "AcquisitionMatrixPE": 104,
  "AcquisitionNumber": 1,
  "AcquisitionTime": "16:03:40.725000",
  "BandwidthPerPixelPhaseEncode": 13.935,
  "BaseResolution": 104,
  "CoilString": "C:HEA;HEP",
  "ConversionSoftware": "dcm2niix",
  "ConversionSoftwareVersion": "v1.0.20210317",
  "DerivedVendorReportedEchoSpacing": 0.000690017,
  "DeviceSerialNumber": "35450",
  "DwellTime": 2.5e-06,
  "EchoTime": 0.0348,
  "EffectiveEchoSpacing": 0.000690017,
  "FlipAngle": 55,
  "ImageComments": "Unaliased MB8/PE3",
  "ImageOrientationPatientDICOM": [0.999919, 0.00205885, 0.0125729, -9.39616e-09, 0.986856, -0.1616],
  "ImageType": [
    "ORIGINAL",
    "PRIMARY",
    "M",
    "MB",
    "ND",
    "MOSAIC"
],
  "ImagingFrequency": 123.235,
  "InPlanePhaseEncodingDirectionDICOM": "COL",
  "InstitutionAddress": "Univeristy Ave. 197,Newark,North East,US,07102-1814",
  "InstitutionName": "RUBIC",
  "InstitutionalDepartmentName": "Department",
  "MRAcquisitionType": "2D",
  "MagneticFieldStrength": 3,
  "Manufacturer": "Siemens",
  "ManufacturersModelName": "TrioTim",
  "Modality": "MR",
  "MultibandAccelerationFactor": 8,
  "PartialFourier": 0.875,
  "PatientPosition": "HFS",
  "PercentPhaseFOV": 100,
  "PercentSampling": 100,
  "PhaseEncodingDirection": "j-",
  "PhaseEncodingSteps": 91,
  "PhaseResolution": 1,
  "PixelBandwidth": 1923,
  "ProcedureStepDescription": "Cole^Michael",
  "ProtocolName": "cmrr_mbep2d_bold_2mm_MB8_Task_8x",
  "PulseSequenceDetails": "%CustomerSeq%\\cmrr_mbep2d_bold",
  "ReceiveCoilName": "32Ch_Head",
  "ReconMatrixPE": 104,
  "RepetitionTime": 0.785,
  "SAR": 0.108221,
  "ScanOptions": "PFP\\FS",
  "ScanningSequence": "EP",
  "SequenceName": "epfid2d1_104",
  "SequenceVariant": "SK\\SS",
  "SeriesDescription": "cmrr_mbep2d_bold_2mm_MB8_Task_8x",
  "SeriesNumber": 17,
  "ShimSetting": [2135, -413, -7251, 553, 67, -287, 99, 64],
  "SliceThickness": 2,
  "SliceTiming": [0, 0.4375, 0.0875, 0.525, 0.175, 0.6125, 0.2625, 0.7, 0.35, 0, 0.4375, 0.0875, 0.525, 0.175, 0.6125, 0.2625, 0.7, 0.35, 0, 0.4375, 0.0875, 0.525, 0.175, 0.6125, 0.2625, 0.7, 0.35, 0, 0.4375, 0.0875, 0.525, 0.175, 0.6125, 0.2625, 0.7, 0.35, 0, 0.4375, 0.0875, 0.525, 0.175, 0.6125, 0.2625, 0.7, 0.35, 0, 0.4375, 0.0875, 0.525, 0.175, 0.6125, 0.2625, 0.7, 0.35, 0, 0.4375, 0.0875, 0.525, 0.175, 0.6125, 0.2625, 0.7, 0.35, 0, 0.4375, 0.0875, 0.525, 0.175, 0.6125, 0.2625, 0.7, 0.35],
  "SoftwareVersions": "syngo MR B19",
  "SpacingBetweenSlices": 2,
  "StationName": "MRC35450",
  "TaskName": "cpro",
  "TotalReadoutTime": 0.0710717,
  "TxRefAmp": 315.523,
  "dcmmeta_affine": [
    [-1.9998376369476318, -1.8792327693972766e-08, 0.02548067271709442, 103.05376434326172],
    [-0.004117702133953571, 1.9737125635147095, -0.3231743276119232, -78.75324249267578],
    [0.02514575980603695, 0.3232005536556244, 1.9735524654388428, -107.64749908447266],
    [0.0, 0.0, 0.0, 1.0]
],
  "dcmmeta_reorient_transform": [
    [0.0, -1.0, 0.0, 103.0],
    [1.0, 0.0, 0.0, 0.0],
    [0.0, 0.0, 1.0, 0.0],
    [0.0, 0.0, 0.0, 1.0]
],
  "dcmmeta_shape": [104, 104, 72, 581],
  "dcmmeta_slice_dim": 2,
  "dcmmeta_version": 0.6,
  "global": {
    "const": {
      "AcquisitionMatrix": [104, 0, 0, 104],
      "AngioFlag": "N",
      "BitsAllocated": 16,
      "BitsStored": 12,
      "Columns": 936,
      "EchoNumbers": 1,
      "EchoTime": 34.8,
      "EchoTrainLength": 1,
      "FlipAngle": 55.0,
      "HighBit": 11,
      "ImageOrientationPatient": [0.99991883861804, 0.00205885117722, 0.0125728798845, -9.396164e-09, 0.98685629701143, -0.1616002755223],
      "ImagePositionPatient": [-934.98623024117, -947.31655906651, 49.63295286387],
      "ImageType": [
        "ORIGINAL",
        "PRIMARY",
        "M",
        "MB",
        "ND",
        "MOSAIC"
],
      "ImagedNucleus": "1H",
      "ImagingFrequency": 123.234683,
      "InPlanePhaseEncodingDirection": "COL",
      "MRAcquisitionType": "2D",
      "MagneticFieldStrength": 3.0,
      "Manufacturer": "SIEMENS",
      "ManufacturerModelName": "TrioTim",
      "Modality": "MR",
      "NumberOfAverages": 1.0,
      "NumberOfPhaseEncodingSteps": 91,
      "PercentPhaseFieldOfView": 100.0,
      "PercentSampling": 100.0,
      "PerformedProcedureStepStartTime": "145533.859000",
      "PhotometricInterpretation": "MONOCHROME2",
      "PixelBandwidth": 1923.0,
      "PixelRepresentation": 0,
      "PixelSpacing": [2.0, 2.0],
      "ProtocolName": "cmrr_mbep2d_bold_2mm_MB8_Task_8x",
      "RepetitionTime": 785.0,
      "Rows": 936,
      "SAR": 0.10822117282634,
      "SamplesPerPixel": 1,
      "ScanOptions": [
        "PFP",
        "FS"
],
      "ScanningSequence": "EP",
      "SequenceName": "epfid2d1_104",
      "SequenceVariant": [
        "SK",
        "SS"
],
      "SeriesDescription": "cmrr_mbep2d_bold_2mm_MB8_Task_8x",
      "SeriesNumber": 17,
      "SeriesTime": "170131.593000",
      "SliceLocation": -92.185536084773,
      "SliceThickness": 2.0,
      "SmallestImagePixelValue": 0,
      "SoftwareVersions": "syngo MR B19",
      "SpacingBetweenSlices": 2.0000000326651,
      "SpecificCharacterSet": "ISO_IR 100",
      "StudyID": "1",
      "StudyTime": "145533.765000",
      "TransmitCoilName": "Body",
      "VariableFlipAngleFlag": "N",
      "WindowCenterWidthExplanation": "Algo1",
      "dBdt": 0.0},
    "slices": {}
  },
  "time": {
    "samples": {
      "AcquisitionNumber": [1, 2, 3, 4, 5, 6, 7, 8, 9, 10, 11, 12, 13, 14, 15, 16, 17, 18, 19, 20, 21, 22, 23, 24, 25, 26, 27, 28, 29, 30, 31, 32, 33, 34, 35, 36, 37, 38, 39, 40, 41, 42, 43, 44, 45, 46, 47, 48, 49, 50, 51, 52, 53, 54, 55, 56, 57, 58, 59, 60, 61, 62, 63, 64, 65, 66, 67, 68, 69, 70, 71, 72, 73, 74, 75, 76, 77, 78, 79, 80, 81, 82, 83, 84, 85, 86, 87, 88, 89, 90, 91, 92, 93, 94, 95, 96, 97, 98, 99, 100, 101, 102, 103, 104, 105, 106, 107, 108, 109, 110, 111, 112, 113, 114, 115, 116, 117, 118, 119, 120, 121, 122, 123, 124, 125, 126, 127, 128, 129, 130, 131, 132, 133, 134, 135, 136, 137, 138, 139, 140, 141, 142, 143, 144, 145, 146, 147, 148, 149, 150, 151, 152, 153, 154, 155, 156, 157, 158, 159, 160, 161, 162, 163, 164, 165, 166, 167, 168, 169, 170, 171, 172, 173, 174, 175, 176, 177, 178, 179, 180, 181, 182, 183, 184, 185, 186, 187, 188, 189, 190, 191, 192, 193, 194, 195, 196, 197, 198, 199, 200, 201, 202, 203, 204, 205, 206, 207, 208, 209, 210, 211, 212, 213, 214, 215, 216, 217, 218, 219, 220, 221, 222, 223, 224, 225, 226, 227, 228, 229, 230, 231, 232, 233, 234, 235, 236, 237, 238, 239, 240, 241, 242, 243, 244, 245, 246, 247, 248, 249, 250, 251, 252, 253, 254, 255, 256, 257, 258, 259, 260, 261, 262, 263, 264, 265, 266, 267, 268, 269, 270, 271, 272, 273, 274, 275, 276, 277, 278, 279, 280, 281, 282, 283, 284, 285, 286, 287, 288, 289, 290, 291, 292, 293, 294, 295, 296, 297, 298, 299, 300, 301, 302, 303, 304, 305, 306, 307, 308, 309, 310, 311, 312, 313, 314, 315, 316, 317, 318, 319, 320, 321, 322, 323, 324, 325, 326, 327, 328, 329, 330, 331, 332, 333, 334, 335, 336, 337, 338, 339, 340, 341, 342, 343, 344, 345, 346, 347, 348, 349, 350, 351, 352, 353, 354, 355, 356, 357, 358, 359, 360, 361, 362, 363, 364, 365, 366, 367, 368, 369, 370, 371, 372, 373, 374, 375, 376, 377, 378, 379, 380, 381, 382, 383, 384, 385, 386, 387, 388, 389, 390, 391, 392, 393, 394, 395, 396, 397, 398, 399, 400, 401, 402, 403, 404, 405, 406, 407, 408, 409, 410, 411, 412, 413, 414, 415, 416, 417, 418, 419, 420, 421, 422, 423, 424, 425, 426, 427, 428, 429, 430, 431, 432, 433, 434, 435, 436, 437, 438, 439, 440, 441, 442, 443, 444, 445, 446, 447, 448, 449, 450, 451, 452, 453, 454, 455, 456, 457, 458, 459, 460, 461, 462, 463, 464, 465, 466, 467, 468, 469, 470, 471, 472, 473, 474, 475, 476, 477, 478, 479, 480, 481, 482, 483, 484, 485, 486, 487, 488, 489, 490, 491, 492, 493, 494, 495, 496, 497, 498, 499, 500, 501, 502, 503, 504, 505, 506, 507, 508, 509, 510, 511, 512, 513, 514, 515, 516, 517, 518, 519, 520, 521, 522, 523, 524, 525, 526, 527, 528, 529, 530, 531, 532, 533, 534, 535, 536, 537, 538, 539, 540, 541, 542, 543, 544, 545, 546, 547, 548, 549, 550, 551, 552, 553, 554, 555, 556, 557, 558, 559, 560, 561, 562, 563, 564, 565, 566, 567, 568, 569, 570, 571, 572, 573, 574, 575, 576, 577, 578, 579, 580, 581],
      "AcquisitionTime": ["160340.725000", "160341.512500", "160342.302500", "160343.090000", "160343.877500", "160344.665000", "160345.455000", "160346.242500", "160347.030000", "160347.817500", "160348.607500", "160349.395000", "160350.182500", "160350.970000", "160351.760000", "160352.547500", "160353.335000", "160354.122500", "160354.912500", "160355.700000", "160356.487500", "160357.275000", "160358.065000", "160358.852500", "160359.640000", "160400.430000", "160401.217500", "160402.005000", "160402.792500", "160403.582500", "160404.370000", "160405.157500", "160405.945000", "160406.735000", "160407.522500", "160408.310000", "160409.097500", "160409.887500", "160410.675000", "160411.462500", "160412.250000", "160413.040000", "160413.827500", "160414.615000", "160415.402500", "160416.192500", "160416.980000", "160417.767500", "160418.557500", "160419.345000", "160420.132500", "160420.920000", "160421.710000", "160422.497500", "160423.285000", "160424.072500", "160424.862500", "160425.650000", "160426.437500", "160427.225000", "160428.015000", "160428.802500", "160429.590000", "160430.377500", "160431.167500", "160431.955000", "160432.742500", "160433.530000", "160434.320000", "160435.107500", "160435.895000", "160436.685000", "160437.472500", "160438.260000", "160439.047500", "160439.837500", "160440.625000", "160441.412500", "160442.200000", "160442.990000", "160443.777500", "160444.565000", "160445.352500", "160446.142500", "160446.930000", "160447.717500", "160448.505000", "160449.295000", "160450.082500", "160450.870000", "160451.657500", "160452.447500", "160453.235000", "160454.022500", "160454.812500", "160455.600000", "160456.387500", "160457.175000", "160457.965000", "160458.752500", "160459.540000", "160500.327500", "160501.117500", "160501.905000", "160502.692500", "160503.480000", "160504.270000", "160505.057500", "160505.845000", "160506.632500", "160507.422500", "160508.210000", "160508.997500", "160509.785000", "160510.575000", "160511.362500", "160512.150000", "160512.940000", "160513.727500", "160514.515000", "160515.302500", "160516.092500", "160516.880000", "160517.667500", "160518.455000", "160519.245000", "160520.032500", "160520.820000", "160521.607500", "160522.397500", "160523.185000", "160523.972500", "160524.760000", "160525.550000", "160526.337500", "160527.125000", "160527.912500", "160528.702500", "160529.490000", "160530.277500", "160531.067500", "160531.855000", "160532.642500", "160533.430000", "160534.220000", "160535.007500", "160535.795000", "160536.582500", "160537.372500", "160538.160000", "160538.947500", "160539.735000", "160540.525000", "160541.312500", "160542.100000", "160542.887500", "160543.677500", "160544.465000", "160545.252500", "160546.040000", "160546.830000", "160547.617500", "160548.405000", "160549.195000", "160549.982500", "160550.770000", "160551.557500", "160552.347500", "160553.135000", "160553.922500", "160554.710000", "160555.500000", "160556.287500", "160557.075000", "160557.862500", "160558.652500", "160559.440000", "160600.227500", "160601.015000", "160601.805000", "160602.592500", "160603.380000", "160604.170000", "160604.957500", "160605.745000", "160606.532500", "160607.322500", "160608.110000", "160608.897500", "160609.685000", "160610.475000", "160611.262500", "160612.050000", "160612.837500", "160613.627500", "160614.415000", "160615.202500", "160615.990000", "160616.780000", "160617.567500", "160618.355000", "160619.142500", "160619.932500", "160620.720000", "160621.507500", "160622.297500", "160623.085000", "160623.872500", "160624.660000", "160625.450000", "160626.237500", "160627.025000", "160627.812500", "160628.602500", "160629.390000", "160630.177500", "160630.965000", "160631.755000", "160632.542500", "160633.330000", "160634.117500", "160634.907500", "160635.695000", "160636.482500", "160637.270000", "160638.060000", "160638.847500", "160639.635000", "160640.425000", "160641.212500", "160642.000000", "160642.787500", "160643.577500", "160644.365000", "160645.152500", "160645.940000", "160646.730000", "160647.517500", "160648.305000", "160649.092500", "160649.882500", "160650.670000", "160651.457500", "160652.245000", "160653.035000", "160653.822500", "160654.610000", "160655.397500", "160656.187500", "160656.975000", "160657.762500", "160658.552500", "160659.340000", "160700.127500", "160700.915000", "160701.705000", "160702.492500", "160703.280000", "160704.067500", "160704.857500", "160705.645000", "160706.432500", "160707.220000", "160708.010000", "160708.797500", "160709.585000", "160710.372500", "160711.162500", "160711.950000", "160712.737500", "160713.525000", "160714.315000", "160715.102500", "160715.890000", "160716.680000", "160717.467500", "160718.255000", "160719.042500", "160719.832500", "160720.620000", "160721.407500", "160722.195000", "160722.985000", "160723.772500", "160724.560000", "160725.347500", "160726.137500", "160726.925000", "160727.712500", "160728.500000", "160729.290000", "160730.077500", "160730.865000", "160731.652500", "160732.442500", "160733.230000", "160734.017500", "160734.807500", "160735.595000", "160736.382500", "160737.170000", "160737.960000", "160738.747500", "160739.535000", "160740.322500", "160741.112500", "160741.900000", "160742.687500", "160743.475000", "160744.265000", "160745.052500", "160745.840000", "160746.627500", "160747.417500", "160748.205000", "160748.992500", "160749.780000", "160750.570000", "160751.357500", "160752.145000", "160752.935000", "160753.722500", "160754.510000", "160755.297500", "160756.087500", "160756.875000", "160757.662500", "160758.450000", "160759.240000", "160800.027500", "160800.815000", "160801.602500", "160802.392500", "160803.180000", "160803.967500", "160804.755000", "160805.545000", "160806.332500", "160807.120000", "160807.907500", "160808.697500", "160809.485000", "160810.272500", "160811.062500", "160811.850000", "160812.637500", "160813.425000", "160814.215000", "160815.002500", "160815.790000", "160816.577500", "160817.367500", "160818.155000", "160818.942500", "160819.730000", "160820.520000", "160821.307500", "160822.095000", "160822.882500", "160823.672500", "160824.460000", "160825.247500", "160826.035000", "160826.825000", "160827.612500", "160828.400000", "160829.190000", "160829.977500", "160830.765000", "160831.552500", "160832.342500", "160833.130000", "160833.917500", "160834.705000", "160835.495000", "160836.282500", "160837.070000", "160837.857500", "160838.647500", "160839.435000", "160840.222500", "160841.010000", "160841.800000", "160842.587500", "160843.375000", "160844.162500", "160844.952500", "160845.740000", "160846.527500", "160847.317500", "160848.105000", "160848.892500", "160849.680000", "160850.470000", "160851.257500", "160852.045000", "160852.832500", "160853.622500", "160854.410000", "160855.197500", "160855.985000", "160856.775000", "160857.562500", "160858.350000", "160859.137500", "160859.927500", "160900.715000", "160901.502500", "160902.290000", "160903.080000", "160903.867500", "160904.655000", "160905.445000", "160906.232500", "160907.020000", "160907.807500", "160908.597500", "160909.385000", "160910.172500", "160910.960000", "160911.750000", "160912.537500", "160913.325000", "160914.112500", "160914.902500", "160915.690000", "160916.477500", "160917.265000", "160918.055000", "160918.842500", "160919.630000", "160920.420000", "160921.207500", "160921.995000", "160922.782500", "160923.572500", "160924.360000", "160925.147500", "160925.935000", "160926.725000", "160927.512500", "160928.300000", "160929.087500", "160929.877500", "160930.665000", "160931.452500", "160932.240000", "160933.030000", "160933.817500", "160934.605000", "160935.392500", "160936.182500", "160936.970000", "160937.757500", "160938.547500", "160939.335000", "160940.122500", "160940.910000", "160941.700000", "160942.487500", "160943.275000", "160944.062500", "160944.852500", "160945.640000", "160946.427500", "160947.215000", "160948.005000", "160948.792500", "160949.580000", "160950.367500", "160951.157500", "160951.945000", "160952.732500", "160953.520000", "160954.310000", "160955.097500", "160955.885000", "160956.675000", "160957.462500", "160958.250000", "160959.037500", "160959.827500", "161000.615000", "161001.402500", "161002.190000", "161002.980000", "161003.767500", "161004.555000", "161005.342500", "161006.132500", "161006.920000", "161007.707500", "161008.495000", "161009.285000", "161010.072500", "161010.860000", "161011.647500", "161012.437500", "161013.225000", "161014.012500", "161014.802500", "161015.590000", "161016.377500", "161017.165000", "161017.955000", "161018.742500", "161019.530000", "161020.317500", "161021.107500", "161021.895000", "161022.682500", "161023.470000", "161024.260000", "161025.047500", "161025.835000", "161026.622500", "161027.412500", "161028.200000", "161028.987500", "161029.775000", "161030.565000", "161031.352500", "161032.140000", "161032.930000", "161033.717500", "161034.505000", "161035.292500", "161036.082500", "161036.870000", "161037.657500", "161038.445000", "161039.235000", "161040.022500", "161040.810000", "161041.597500", "161042.387500", "161043.175000", "161043.962500", "161044.750000", "161045.540000", "161046.327500", "161047.115000", "161047.902500", "161048.692500", "161049.480000", "161050.267500", "161051.057500", "161051.845000", "161052.632500", "161053.420000", "161054.210000", "161054.997500", "161055.785000", "161056.572500", "161057.362500", "161058.150000", "161058.937500", "161059.725000", "161100.515000", "161101.302500", "161102.090000", "161102.877500", "161103.667500", "161104.455000", "161105.242500", "161106.030000", "161106.820000", "161107.607500", "161108.395000", "161109.185000", "161109.972500", "161110.760000", "161111.547500", "161112.337500", "161113.125000", "161113.912500", "161114.700000", "161115.490000", "161116.277500", "161117.065000", "161117.852500"],
      "ContentTime": ["170131.593000", "170131.593000", "170131.593000", "170131.593000", "170231.562000", "170231.562000", "170231.562000", "170231.578000", "170231.578000", "170231.578000", "170231.578000", "170231.578000", "170231.593000", "170231.593000", "170231.609000", "170231.609000", "170231.609000", "170231.609000", "170231.609000", "170231.609000", "170231.625000", "170231.625000", "170231.625000", "170231.625000", "170231.625000", "170231.625000", "170231.640000", "170231.640000", "170231.640000", "170231.656000", "170231.656000", "170331.562000", "170331.562000", "170331.562000", "170331.562000", "170331.578000", "170331.578000", "170331.578000", "170331.593000", "170331.593000", "170331.593000", "170331.593000", "170331.593000", "170331.593000", "170331.593000", "170331.609000", "170331.609000", "170331.609000", "170331.609000", "170331.609000", "170331.609000", "170331.625000", "170331.625000", "170331.625000", "170331.640000", "170331.640000", "170331.640000", "170331.640000", "170331.640000", "170431.562000", "170431.562000", "170431.562000", "170431.578000", "170431.578000", "170431.578000", "170431.578000", "170431.578000", "170431.593000", "170431.593000", "170431.593000", "170431.593000", "170431.593000", "170431.593000", "170431.609000", "170431.609000", "170431.609000", "170431.609000", "170431.625000", "170431.625000", "170431.625000", "170431.640000", "170431.640000", "170431.640000", "170431.640000", "170431.640000", "170431.640000", "170431.656000", "170531.562000", "170531.562000", "170531.562000", "170531.562000", "170531.578000", "170531.578000", "170531.578000", "170531.578000", "170531.578000", "170531.578000", "170531.578000", "170531.593000", "170531.593000", "170531.593000", "170531.593000", "170531.609000", "170531.609000", "170531.609000", "170531.609000", "170531.609000", "170531.609000", "170531.609000", "170531.625000", "170531.625000", "170531.625000", "170531.625000", "170531.625000", "170531.625000", "170631.562000", "170631.562000", "170631.562000", "170631.562000", "170631.578000", "170631.578000", "170631.578000", "170631.578000", "170631.578000", "170631.578000", "170631.578000", "170631.593000", "170631.593000", "170631.593000", "170631.609000", "170631.609000", "170631.609000", "170631.609000", "170631.609000", "170631.609000", "170631.625000", "170631.625000", "170631.625000", "170631.625000", "170631.625000", "170631.640000", "170631.640000", "170631.656000", "170731.562000", "170731.562000", "170731.562000", "170731.562000", "170731.578000", "170731.578000", "170731.578000", "170731.578000", "170731.593000", "170731.593000", "170731.593000", "170731.593000", "170731.593000", "170731.593000", "170731.593000", "170731.609000", "170731.609000", "170731.609000", "170731.609000", "170731.609000", "170731.609000", "170731.609000", "170731.625000", "170731.625000", "170731.625000", "170731.625000", "170731.640000", "170731.640000", "170831.562000", "170831.562000", "170831.562000", "170831.578000", "170831.578000", "170831.578000", "170831.578000", "170831.578000", "170831.593000", "170831.593000", "170831.593000", "170831.593000", "170831.593000", "170831.593000", "170831.593000", "170831.609000", "170831.609000", "170831.609000", "170831.609000", "170831.609000", "170831.625000", "170831.625000", "170831.625000", "170831.625000", "170831.625000", "170831.625000", "170831.625000", "170831.640000", "170931.562000", "170931.562000", "170931.562000", "170931.562000", "170931.578000", "170931.578000", "170931.578000", "170931.578000", "170931.578000", "170931.578000", "170931.578000", "170931.593000", "170931.593000", "170931.593000", "170931.593000", "170931.593000", "170931.609000", "170931.609000", "170931.609000", "170931.609000", "170931.609000", "170931.609000", "170931.609000", "170931.625000", "170931.625000", "170931.640000", "170931.640000", "170931.640000", "171031.562000", "171031.562000", "171031.562000", "171031.562000", "171031.578000", "171031.578000", "171031.578000", "171031.578000", "171031.578000", "171031.578000", "171031.578000", "171031.593000", "171031.593000", "171031.593000", "171031.593000", "171031.593000", "171031.593000", "171031.609000", "171031.609000", "171031.609000", "171031.609000", "171031.609000", "171031.609000", "171031.609000", "171031.625000", "171031.625000", "171031.625000", "171031.625000", "171131.562000", "171131.562000", "171131.562000", "171131.562000", "171131.578000", "171131.578000", "171131.578000", "171131.578000", "171131.578000", "171131.593000", "171131.593000", "171131.593000", "171131.593000", "171131.593000", "171131.593000", "171131.593000", "171131.609000", "171131.609000", "171131.609000", "171131.609000", "171131.609000", "171131.609000", "171131.625000", "171131.625000", "171131.625000", "171131.625000", "171131.625000", "171131.640000", "171231.562000", "171231.562000", "171231.562000", "171231.578000", "171231.578000", "171231.578000", "171231.578000", "171231.593000", "171231.593000", "171231.593000", "171231.593000", "171231.609000", "171231.609000", "171231.609000", "171231.609000", "171231.609000", "171231.609000", "171231.609000", "171231.625000", "171231.625000", "171231.640000", "171231.640000", "171231.640000", "171231.640000", "171231.640000", "171231.640000", "171231.640000", "171231.656000", "171331.562000", "171331.562000", "171331.562000", "171331.562000", "171331.578000", "171331.578000", "171331.578000", "171331.578000", "171331.578000", "171331.593000", "171331.593000", "171331.593000", "171331.593000", "171331.593000", "171331.593000", "171331.609000", "171331.609000", "171331.609000", "171331.609000", "171331.609000", "171331.609000", "171331.625000", "171331.625000", "171331.625000", "171331.625000", "171331.625000", "171331.625000", "171331.625000", "171351.562000", "171351.562000", "171351.562000", "171351.562000", "171351.578000", "171351.578000", "171351.578000", "171351.578000", "171351.578000", "171351.578000", "171451.562000", "171451.562000", "171451.562000", "171451.562000", "171451.578000", "171451.578000", "171451.578000", "171451.578000", "171451.578000", "171451.578000", "171451.578000", "171451.593000", "171451.593000", "171451.593000", "171451.609000", "171451.609000", "171451.609000", "171451.609000", "171451.609000", "171451.609000", "171451.609000", "171451.625000", "171451.625000", "171451.625000", "171451.625000", "171451.625000", "171451.625000", "171451.625000", "171551.562000", "171551.562000", "171551.562000", "171551.562000", "171551.578000", "171551.578000", "171551.578000", "171551.578000", "171551.578000", "171551.593000", "171551.593000", "171551.593000", "171551.593000", "171551.593000", "171551.593000", "171551.609000", "171551.609000", "171551.609000", "171551.609000", "171551.609000", "171551.625000", "171551.625000", "171551.625000", "171551.625000", "171551.625000", "171551.640000", "171551.640000", "171551.640000", "171651.562000", "171651.562000", "171651.562000", "171651.562000", "171651.578000", "171651.578000", "171651.578000", "171651.593000", "171651.593000", "171651.593000", "171651.593000", "171651.593000", "171651.593000", "171651.609000", "171651.609000", "171651.609000", "171651.609000", "171651.609000", "171651.609000", "171651.625000", "171651.625000", "171651.625000", "171651.640000", "171651.640000", "171651.640000", "171651.640000", "171651.640000", "171651.640000", "171751.562000", "171751.578000", "171751.578000", "171751.578000", "171751.578000", "171751.578000", "171751.578000", "171751.593000", "171751.593000", "171751.593000", "171751.593000", "171751.593000", "171751.593000", "171751.593000", "171751.609000", "171751.609000", "171751.609000", "171751.609000", "171751.609000", "171751.625000", "171751.625000", "171751.625000", "171751.625000", "171751.625000", "171751.625000", "171751.625000", "171751.640000", "171751.640000", "171851.562000", "171851.562000", "171851.562000", "171851.578000", "171851.578000", "171851.578000", "171851.578000", "171851.578000", "171851.578000", "171851.578000", "171851.593000", "171851.593000", "171851.593000", "171851.609000", "171851.609000", "171851.609000", "171851.609000", "171851.609000", "171851.625000", "171851.625000", "171851.625000", "171851.625000", "171851.625000", "171851.625000", "171851.640000", "171851.640000", "171851.640000", "171851.656000", "171951.562000", "171951.562000", "171951.562000", "171951.578000", "171951.578000", "171951.578000", "171951.578000", "171951.593000", "171951.593000", "171951.593000", "171951.593000", "171951.593000", "171951.609000", "171951.609000", "171951.609000", "171951.609000", "171951.609000", "171951.609000", "171951.625000", "171951.625000", "171951.625000", "171951.625000", "171951.625000", "171951.640000", "171951.640000", "171951.640000", "171951.640000", "171951.656000", "171951.656000", "172051.562000", "172051.562000", "172051.578000", "172051.578000", "172051.578000", "172051.578000", "172051.578000", "172051.593000", "172051.593000", "172051.593000", "172051.593000", "172051.593000", "172051.593000", "172051.593000", "172051.609000", "172051.609000", "172051.609000", "172051.609000", "172051.625000", "172051.625000", "172051.625000", "172051.625000", "172051.640000", "172051.640000", "172051.640000", "172051.640000", "172051.640000", "172051.640000", "172151.562000", "172151.562000", "172151.562000", "172151.562000", "172151.578000", "172151.578000", "172151.578000", "172151.578000", "172151.578000", "172151.578000", "172151.578000", "172151.593000", "172151.593000", "172151.593000", "172151.593000", "172151.609000", "172151.609000", "172151.609000", "172151.609000", "172151.609000", "172151.609000", "172151.625000", "172151.625000", "172151.625000", "172151.625000", "172151.625000", "172151.625000", "172151.640000", "172205.375000", "172205.375000", "172205.390000", "172205.390000", "172205.390000", "172205.406000", "172205.406000"],
      "DataSetTrailingPadding": [
        "\u0000\u0000\u0000\u0000\u0000\u0000\u0000\u0000\u0000\u0000\u0000\u0000\u0000\u0000\u0000\u0000\u0000\u0000\u0000\u0000\u0000\u0000\u0000\u0000\u0000\u0000\u0000\u0000\u0000\u0000\u0000\u0000\u0000\u0000\u0000\u0000",
        "\u0000\u0000\u0000\u0000\u0000\u0000\u0000\u0000\u0000\u0000\u0000\u0000\u0000\u0000\u0000\u0000\u0000\u0000\u0000\u0000\u0000\u0000\u0000\u0000\u0000\u0000\u0000\u0000\u0000\u0000\u0000\u0000\u0000\u0000\u0000\u0000",
        "\u0000\u0000\u0000\u0000\u0000\u0000\u0000\u0000\u0000\u0000\u0000\u0000\u0000\u0000\u0000\u0000\u0000\u0000\u0000\u0000\u0000\u0000\u0000\u0000\u0000\u0000\u0000\u0000\u0000\u0000\u0000\u0000\u0000\u0000\u0000\u0000",
        "\u0000\u0000\u0000\u0000\u0000\u0000\u0000\u0000\u0000\u0000\u0000\u0000\u0000\u0000\u0000\u0000\u0000\u0000\u0000\u0000\u0000\u0000\u0000\u0000\u0000\u0000\u0000\u0000\u0000\u0000\u0000\u0000\u0000\u0000\u0000\u0000\u0000\u0000",
        "\u0000\u0000\u0000\u0000\u0000\u0000\u0000\u0000\u0000\u0000\u0000\u0000\u0000\u0000\u0000\u0000\u0000\u0000\u0000\u0000\u0000\u0000\u0000\u0000\u0000\u0000\u0000\u0000\u0000\u0000\u0000\u0000\u0000\u0000\u0000\u0000",
        "\u0000\u0000\u0000\u0000\u0000\u0000\u0000\u0000\u0000\u0000\u0000\u0000\u0000\u0000\u0000\u0000\u0000\u0000\u0000\u0000\u0000\u0000\u0000\u0000\u0000\u0000\u0000\u0000\u0000\u0000\u0000\u0000\u0000\u0000",
        "\u0000\u0000\u0000\u0000\u0000\u0000\u0000\u0000\u0000\u0000\u0000\u0000\u0000\u0000\u0000\u0000\u0000\u0000\u0000\u0000\u0000\u0000\u0000\u0000\u0000\u0000\u0000\u0000\u0000\u0000\u0000\u0000\u0000\u0000\u0000\u0000\u0000\u0000",
        "\u0000\u0000\u0000\u0000\u0000\u0000\u0000\u0000\u0000\u0000\u0000\u0000\u0000\u0000\u0000\u0000\u0000\u0000\u0000\u0000\u0000\u0000\u0000\u0000\u0000\u0000\u0000\u0000\u0000\u0000\u0000\u0000\u0000\u0000\u0000\u0000",
