{
  "AcquisitionMatrixPE": 104,
  "AcquisitionNumber": 1,
  "AcquisitionTime": "15:55:27.692500",
  "BandwidthPerPixelPhaseEncode": 13.935,
  "BaseResolution": 104,
  "CoilString": "C:HEA;HEP",
  "ConversionSoftware": "dcm2niix",
  "ConversionSoftwareVersion": "v1.0.20210317",
  "DerivedVendorReportedEchoSpacing": 0.000690017,
  "DeviceSerialNumber": "35450",
  "DwellTime": 2.5e-06,
  "EchoTime": 0.0348,
  "EffectiveEchoSpacing": 0.000690017,
  "FlipAngle": 55,
  "ImageComments": "Unaliased MB8/PE3",
  "ImageOrientationPatientDICOM": [0.999919, 0.00205885, 0.0125729, -9.39616e-09, 0.986856, -0.1616],
  "ImageType": [
    "ORIGINAL",
    "PRIMARY",
    "M",
    "MB",
    "ND",
    "MOSAIC"
],
  "ImagingFrequency": 123.235,
  "InPlanePhaseEncodingDirectionDICOM": "COL",
  "InstitutionAddress": "Univeristy Ave. 197,Newark,North East,US,07102-1814",
  "InstitutionName": "RUBIC",
  "InstitutionalDepartmentName": "Department",
  "MRAcquisitionType": "2D",
  "MagneticFieldStrength": 3,
  "Manufacturer": "Siemens",
  "ManufacturersModelName": "TrioTim",
  "Modality": "MR",
  "MultibandAccelerationFactor": 8,
  "PartialFourier": 0.875,
  "PatientPosition": "HFS",
  "PercentPhaseFOV": 100,
  "PercentSampling": 100,
  "PhaseEncodingDirection": "j-",
  "PhaseEncodingSteps": 91,
  "PhaseResolution": 1,
  "PixelBandwidth": 1923,
  "ProcedureStepDescription": "Cole^Michael",
  "ProtocolName": "cmrr_mbep2d_bold_2mm_MB8_Task_8x",
  "PulseSequenceDetails": "%CustomerSeq%\\cmrr_mbep2d_bold",
  "ReceiveCoilName": "32Ch_Head",
  "ReconMatrixPE": 104,
  "RepetitionTime": 0.785,
  "SAR": 0.108221,
  "ScanOptions": "PFP\\FS",
  "ScanningSequence": "EP",
  "SequenceName": "epfid2d1_104",
  "SequenceVariant": "SK\\SS",
  "SeriesDescription": "cmrr_mbep2d_bold_2mm_MB8_Task_8x",
  "SeriesNumber": 15,
  "ShimSetting": [2135, -413, -7251, 553, 67, -287, 99, 64],
  "SliceThickness": 2,
  "SliceTiming": [0, 0.4375, 0.0875, 0.525, 0.175, 0.6125, 0.2625, 0.7, 0.35, 0, 0.4375, 0.0875, 0.525, 0.175, 0.6125, 0.2625, 0.7, 0.35, 0, 0.4375, 0.0875, 0.525, 0.175, 0.6125, 0.2625, 0.7, 0.35, 0, 0.4375, 0.0875, 0.525, 0.175, 0.6125, 0.2625, 0.7, 0.35, 0, 0.4375, 0.0875, 0.525, 0.175, 0.6125, 0.2625, 0.7, 0.35, 0, 0.4375, 0.0875, 0.525, 0.175, 0.6125, 0.2625, 0.7, 0.35, 0, 0.4375, 0.0875, 0.525, 0.175, 0.6125, 0.2625, 0.7, 0.35, 0, 0.4375, 0.0875, 0.525, 0.175, 0.6125, 0.2625, 0.7, 0.35],
  "SoftwareVersions": "syngo MR B19",
  "SpacingBetweenSlices": 2,
  "StationName": "MRC35450",
  "TaskName": "cpro",
  "TotalReadoutTime": 0.0710717,
  "TxRefAmp": 315.523,
  "dcmmeta_affine": [
    [-1.9998376369476318, -1.8792327693972766e-08, 0.02548067271709442, 103.05376434326172],
    [-0.004117702133953571, 1.9737125635147095, -0.3231743276119232, -78.75324249267578],
    [0.02514575980603695, 0.3232005536556244, 1.9735524654388428, -107.64749908447266],
    [0.0, 0.0, 0.0, 1.0]
],
  "dcmmeta_reorient_transform": [
    [0.0, -1.0, 0.0, 103.0],
    [1.0, 0.0, 0.0, 0.0],
    [0.0, 0.0, 1.0, 0.0],
    [0.0, 0.0, 0.0, 1.0]
],
  "dcmmeta_shape": [104, 104, 72, 581],
  "dcmmeta_slice_dim": 2,
  "dcmmeta_version": 0.6,
  "global": {
    "const": {
      "AcquisitionMatrix": [104, 0, 0, 104],
      "AngioFlag": "N",
      "BitsAllocated": 16,
      "BitsStored": 12,
      "Columns": 936,
      "EchoNumbers": 1,
      "EchoTime": 34.8,
      "EchoTrainLength": 1,
      "FlipAngle": 55.0,
      "HighBit": 11,
      "ImageOrientationPatient": [0.99991883861804, 0.00205885117722, 0.0125728798845, -9.396164e-09, 0.98685629701143, -0.1616002755223],
      "ImagePositionPatient": [-934.98623024117, -947.31655906651, 49.63295286387],
      "ImageType": [
        "ORIGINAL",
        "PRIMARY",
        "M",
        "MB",
        "ND",
        "MOSAIC"
],
      "ImagedNucleus": "1H",
      "ImagingFrequency": 123.234683,
      "InPlanePhaseEncodingDirection": "COL",
      "MRAcquisitionType": "2D",
      "MagneticFieldStrength": 3.0,
      "Manufacturer": "SIEMENS",
      "ManufacturerModelName": "TrioTim",
      "Modality": "MR",
      "NumberOfAverages": 1.0,
      "NumberOfPhaseEncodingSteps": 91,
      "PercentPhaseFieldOfView": 100.0,
      "PercentSampling": 100.0,
      "PerformedProcedureStepStartTime": "145533.859000",
      "PhotometricInterpretation": "MONOCHROME2",
      "PixelBandwidth": 1923.0,
      "PixelRepresentation": 0,
      "PixelSpacing": [2.0, 2.0],
      "ProtocolName": "cmrr_mbep2d_bold_2mm_MB8_Task_8x",
      "RepetitionTime": 785.0,
      "Rows": 936,
      "SAR": 0.10822117282634,
      "SamplesPerPixel": 1,
      "ScanOptions": [
        "PFP",
        "FS"
],
      "ScanningSequence": "EP",
      "SequenceName": "epfid2d1_104",
      "SequenceVariant": [
        "SK",
        "SS"
],
      "SeriesDescription": "cmrr_mbep2d_bold_2mm_MB8_Task_8x",
      "SeriesNumber": 15,
      "SeriesTime": "164019.125000",
      "SliceLocation": -92.185536084773,
      "SliceThickness": 2.0,
      "SmallestImagePixelValue": 0,
      "SoftwareVersions": "syngo MR B19",
      "SpacingBetweenSlices": 2.0000000326651,
      "SpecificCharacterSet": "ISO_IR 100",
      "StudyID": "1",
      "StudyTime": "145533.765000",
      "TransmitCoilName": "Body",
      "VariableFlipAngleFlag": "N",
      "WindowCenterWidthExplanation": "Algo1",
      "dBdt": 0.0},
    "slices": {}
  },
  "time": {
    "samples": {
      "AcquisitionNumber": [1, 2, 3, 4, 5, 6, 7, 8, 9, 10, 11, 12, 13, 14, 15, 16, 17, 18, 19, 20, 21, 22, 23, 24, 25, 26, 27, 28, 29, 30, 31, 32, 33, 34, 35, 36, 37, 38, 39, 40, 41, 42, 43, 44, 45, 46, 47, 48, 49, 50, 51, 52, 53, 54, 55, 56, 57, 58, 59, 60, 61, 62, 63, 64, 65, 66, 67, 68, 69, 70, 71, 72, 73, 74, 75, 76, 77, 78, 79, 80, 81, 82, 83, 84, 85, 86, 87, 88, 89, 90, 91, 92, 93, 94, 95, 96, 97, 98, 99, 100, 101, 102, 103, 104, 105, 106, 107, 108, 109, 110, 111, 112, 113, 114, 115, 116, 117, 118, 119, 120, 121, 122, 123, 124, 125, 126, 127, 128, 129, 130, 131, 132, 133, 134, 135, 136, 137, 138, 139, 140, 141, 142, 143, 144, 145, 146, 147, 148, 149, 150, 151, 152, 153, 154, 155, 156, 157, 158, 159, 160, 161, 162, 163, 164, 165, 166, 167, 168, 169, 170, 171, 172, 173, 174, 175, 176, 177, 178, 179, 180, 181, 182, 183, 184, 185, 186, 187, 188, 189, 190, 191, 192, 193, 194, 195, 196, 197, 198, 199, 200, 201, 202, 203, 204, 205, 206, 207, 208, 209, 210, 211, 212, 213, 214, 215, 216, 217, 218, 219, 220, 221, 222, 223, 224, 225, 226, 227, 228, 229, 230, 231, 232, 233, 234, 235, 236, 237, 238, 239, 240, 241, 242, 243, 244, 245, 246, 247, 248, 249, 250, 251, 252, 253, 254, 255, 256, 257, 258, 259, 260, 261, 262, 263, 264, 265, 266, 267, 268, 269, 270, 271, 272, 273, 274, 275, 276, 277, 278, 279, 280, 281, 282, 283, 284, 285, 286, 287, 288, 289, 290, 291, 292, 293, 294, 295, 296, 297, 298, 299, 300, 301, 302, 303, 304, 305, 306, 307, 308, 309, 310, 311, 312, 313, 314, 315, 316, 317, 318, 319, 320, 321, 322, 323, 324, 325, 326, 327, 328, 329, 330, 331, 332, 333, 334, 335, 336, 337, 338, 339, 340, 341, 342, 343, 344, 345, 346, 347, 348, 349, 350, 351, 352, 353, 354, 355, 356, 357, 358, 359, 360, 361, 362, 363, 364, 365, 366, 367, 368, 369, 370, 371, 372, 373, 374, 375, 376, 377, 378, 379, 380, 381, 382, 383, 384, 385, 386, 387, 388, 389, 390, 391, 392, 393, 394, 395, 396, 397, 398, 399, 400, 401, 402, 403, 404, 405, 406, 407, 408, 409, 410, 411, 412, 413, 414, 415, 416, 417, 418, 419, 420, 421, 422, 423, 424, 425, 426, 427, 428, 429, 430, 431, 432, 433, 434, 435, 436, 437, 438, 439, 440, 441, 442, 443, 444, 445, 446, 447, 448, 449, 450, 451, 452, 453, 454, 455, 456, 457, 458, 459, 460, 461, 462, 463, 464, 465, 466, 467, 468, 469, 470, 471, 472, 473, 474, 475, 476, 477, 478, 479, 480, 481, 482, 483, 484, 485, 486, 487, 488, 489, 490, 491, 492, 493, 494, 495, 496, 497, 498, 499, 500, 501, 502, 503, 504, 505, 506, 507, 508, 509, 510, 511, 512, 513, 514, 515, 516, 517, 518, 519, 520, 521, 522, 523, 524, 525, 526, 527, 528, 529, 530, 531, 532, 533, 534, 535, 536, 537, 538, 539, 540, 541, 542, 543, 544, 545, 546, 547, 548, 549, 550, 551, 552, 553, 554, 555, 556, 557, 558, 559, 560, 561, 562, 563, 564, 565, 566, 567, 568, 569, 570, 571, 572, 573, 574, 575, 576, 577, 578, 579, 580, 581],
      "AcquisitionTime": ["155527.692500", "155528.480000", "155529.267500", "155530.055000", "155530.845000", "155531.632500", "155532.420000", "155533.207500", "155533.997500", "155534.785000", "155535.572500", "155536.360000", "155537.150000", "155537.937500", "155538.725000", "155539.512500", "155540.302500", "155541.090000", "155541.877500", "155542.665000", "155543.455000", "155544.242500", "155545.030000", "155545.820000", "155546.607500", "155547.395000", "155548.182500", "155548.972500", "155549.760000", "155550.547500", "155551.335000", "155552.125000", "155552.912500", "155553.700000", "155554.487500", "155555.277500", "155556.065000", "155556.852500", "155557.640000", "155558.430000", "155559.217500", "155600.005000", "155600.792500", "155601.582500", "155602.370000", "155603.157500", "155603.947500", "155604.735000", "155605.522500", "155606.310000", "155607.100000", "155607.887500", "155608.675000", "155609.462500", "155610.252500", "155611.040000", "155611.827500", "155612.615000", "155613.405000", "155614.192500", "155614.980000", "155615.767500", "155616.557500", "155617.345000", "155618.132500", "155618.920000", "155619.710000", "155620.497500", "155621.285000", "155622.075000", "155622.862500", "155623.650000", "155624.437500", "155625.227500", "155626.015000", "155626.802500", "155627.590000", "155628.380000", "155629.167500", "155629.955000", "155630.742500", "155631.532500", "155632.320000", "155633.107500", "155633.895000", "155634.685000", "155635.472500", "155636.260000", "155637.047500", "155637.837500", "155638.625000", "155639.412500", "155640.202500", "155640.990000", "155641.777500", "155642.565000", "155643.355000", "155644.142500", "155644.930000", "155645.717500", "155646.507500", "155647.295000", "155648.082500", "155648.870000", "155649.660000", "155650.447500", "155651.235000", "155652.022500", "155652.812500", "155653.600000", "155654.387500", "155655.175000", "155655.965000", "155656.752500", "155657.540000", "155658.330000", "155659.117500", "155659.905000", "155700.692500", "155701.482500", "155702.270000", "155703.057500", "155703.845000", "155704.635000", "155705.422500", "155706.210000", "155706.997500", "155707.787500", "155708.575000", "155709.362500", "155710.150000", "155710.940000", "155711.727500", "155712.515000", "155713.302500", "155714.092500", "155714.880000", "155715.667500", "155716.457500", "155717.245000", "155718.032500", "155718.820000", "155719.610000", "155720.397500", "155721.185000", "155721.972500", "155722.762500", "155723.550000", "155724.337500", "155725.125000", "155725.915000", "155726.702500", "155727.490000", "155728.277500", "155729.067500", "155729.855000", "155730.642500", "155731.432500", "155732.220000", "155733.007500", "155733.795000", "155734.585000", "155735.372500", "155736.160000", "155736.947500", "155737.737500", "155738.525000", "155739.312500", "155740.100000", "155740.890000", "155741.677500", "155742.465000", "155743.252500", "155744.042500", "155744.830000", "155745.617500", "155746.405000", "155747.195000", "155747.982500", "155748.770000", "155749.560000", "155750.347500", "155751.135000", "155751.922500", "155752.712500", "155753.500000", "155754.287500", "155755.075000", "155755.865000", "155756.652500", "155757.440000", "155758.227500", "155759.017500", "155759.805000", "155800.592500", "155801.380000", "155802.170000", "155802.957500", "155803.745000", "155804.532500", "155805.322500", "155806.110000", "155806.897500", "155807.687500", "155808.475000", "155809.262500", "155810.050000", "155810.840000", "155811.627500", "155812.415000", "155813.202500", "155813.992500", "155814.780000", "155815.567500", "155816.355000", "155817.145000", "155817.932500", "155818.720000", "155819.507500", "155820.297500", "155821.085000", "155821.872500", "155822.660000", "155823.450000", "155824.237500", "155825.025000", "155825.815000", "155826.602500", "155827.390000", "155828.177500", "155828.967500", "155829.755000", "155830.542500", "155831.330000", "155832.120000", "155832.907500", "155833.695000", "155834.482500", "155835.272500", "155836.060000", "155836.847500", "155837.635000", "155838.425000", "155839.212500", "155840.000000", "155840.787500", "155841.577500", "155842.365000", "155843.152500", "155843.942500", "155844.730000", "155845.517500", "155846.305000", "155847.095000", "155847.882500", "155848.670000", "155849.457500", "155850.247500", "155851.035000", "155851.822500", "155852.610000", "155853.400000", "155854.187500", "155854.975000", "155855.762500", "155856.552500", "155857.340000", "155858.127500", "155858.915000", "155859.705000", "155900.492500", "155901.280000", "155902.070000", "155902.857500", "155903.645000", "155904.432500", "155905.222500", "155906.010000", "155906.797500", "155907.585000", "155908.375000", "155909.162500", "155909.950000", "155910.737500", "155911.527500", "155912.315000", "155913.102500", "155913.890000", "155914.680000", "155915.467500", "155916.255000", "155917.042500", "155917.832500", "155918.620000", "155919.407500", "155920.197500", "155920.985000", "155921.772500", "155922.560000", "155923.350000", "155924.137500", "155924.925000", "155925.712500", "155926.502500", "155927.290000", "155928.077500", "155928.865000", "155929.655000", "155930.442500", "155931.230000", "155932.017500", "155932.807500", "155933.595000", "155934.382500", "155935.170000", "155935.960000", "155936.747500", "155937.535000", "155938.325000", "155939.112500", "155939.900000", "155940.687500", "155941.477500", "155942.265000", "155943.052500", "155943.840000", "155944.630000", "155945.417500", "155946.205000", "155946.992500", "155947.782500", "155948.570000", "155949.357500", "155950.145000", "155950.935000", "155951.722500", "155952.510000", "155953.297500", "155954.087500", "155954.875000", "155955.662500", "155956.452500", "155957.240000", "155958.027500", "155958.815000", "155959.605000", "160000.392500", "160001.180000", "160001.967500", "160002.757500", "160003.545000", "160004.332500", "160005.120000", "160005.910000", "160006.697500", "160007.485000", "160008.272500", "160009.062500", "160009.850000", "160010.637500", "160011.425000", "160012.215000", "160013.002500", "160013.790000", "160014.580000", "160015.367500", "160016.155000", "160016.942500", "160017.732500", "160018.520000", "160019.307500", "160020.095000", "160020.885000", "160021.672500", "160022.460000", "160023.247500", "160024.037500", "160024.825000", "160025.612500", "160026.400000", "160027.190000", "160027.977500", "160028.765000", "160029.552500", "160030.342500", "160031.130000", "160031.917500", "160032.707500", "160033.495000", "160034.282500", "160035.070000", "160035.860000", "160036.647500", "160037.435000", "160038.222500", "160039.012500", "160039.800000", "160040.587500", "160041.375000", "160042.165000", "160042.952500", "160043.740000", "160044.527500", "160045.317500", "160046.105000", "160046.892500", "160047.682500", "160048.470000", "160049.257500", "160050.045000", "160050.835000", "160051.622500", "160052.410000", "160053.197500", "160053.987500", "160054.775000", "160055.562500", "160056.350000", "160057.140000", "160057.927500", "160058.715000", "160059.502500", "160100.292500", "160101.080000", "160101.867500", "160102.655000", "160103.445000", "160104.232500", "160105.020000", "160105.810000", "160106.597500", "160107.385000", "160108.172500", "160108.962500", "160109.750000", "160110.537500", "160111.325000", "160112.115000", "160112.902500", "160113.690000", "160114.477500", "160115.267500", "160116.055000", "160116.842500", "160117.630000", "160118.420000", "160119.207500", "160119.995000", "160120.782500", "160121.572500", "160122.360000", "160123.147500", "160123.937500", "160124.725000", "160125.512500", "160126.300000", "160127.090000", "160127.877500", "160128.665000", "160129.452500", "160130.242500", "160131.030000", "160131.817500", "160132.605000", "160133.395000", "160134.182500", "160134.970000", "160135.757500", "160136.547500", "160137.335000", "160138.122500", "160138.910000", "160139.700000", "160140.487500", "160141.275000", "160142.065000", "160142.852500", "160143.640000", "160144.427500", "160145.217500", "160146.005000", "160146.792500", "160147.580000", "160148.370000", "160149.157500", "160149.945000", "160150.732500", "160151.522500", "160152.310000", "160153.097500", "160153.885000", "160154.675000", "160155.462500", "160156.250000", "160157.037500", "160157.827500", "160158.615000", "160159.402500", "160200.192500", "160200.980000", "160201.767500", "160202.555000", "160203.345000", "160204.132500", "160204.920000", "160205.707500", "160206.497500", "160207.285000", "160208.072500", "160208.860000", "160209.650000", "160210.437500", "160211.225000", "160212.012500", "160212.802500", "160213.590000", "160214.377500", "160215.165000", "160215.955000", "160216.742500", "160217.530000", "160218.320000", "160219.107500", "160219.895000", "160220.682500", "160221.472500", "160222.260000", "160223.047500", "160223.835000", "160224.625000", "160225.412500", "160226.200000", "160226.987500", "160227.777500", "160228.565000", "160229.352500", "160230.140000", "160230.930000", "160231.717500", "160232.505000", "160233.292500", "160234.082500", "160234.870000", "160235.657500", "160236.447500", "160237.235000", "160238.022500", "160238.810000", "160239.600000", "160240.387500", "160241.175000", "160241.962500", "160242.752500", "160243.540000", "160244.327500", "160245.115000", "160245.905000", "160246.692500", "160247.480000", "160248.267500", "160249.057500", "160249.845000", "160250.632500", "160251.420000", "160252.210000", "160252.997500", "160253.785000", "160254.575000", "160255.362500", "160256.150000", "160256.937500", "160257.727500", "160258.515000", "160259.302500", "160300.090000", "160300.880000", "160301.667500", "160302.455000", "160303.242500", "160304.032500", "160304.820000"],
      "ContentTime": ["164019.125000", "164019.140000", "164019.140000", "164119.109000", "164119.125000", "164119.125000", "164119.125000", "164119.125000", "164119.125000", "164119.125000", "164119.140000", "164119.140000", "164119.140000", "164119.140000", "164119.140000", "164119.140000", "164119.156000", "164119.156000", "164119.156000", "164119.156000", "164119.171000", "164119.171000", "164119.171000", "164119.171000", "164119.171000", "164119.187000", "164119.187000", "164119.187000", "164119.187000", "164119.187000", "164119.187000", "164219.109000", "164219.109000", "164219.109000", "164219.109000", "164219.125000", "164219.125000", "164219.125000", "164219.125000", "164219.125000", "164219.125000", "164219.125000", "164219.140000", "164219.140000", "164219.140000", "164219.140000", "164219.156000", "164219.156000", "164219.156000", "164219.156000", "164219.156000", "164219.156000", "164219.171000", "164219.171000", "164219.171000", "164219.171000", "164219.171000", "164219.171000", "164319.109000", "164319.109000", "164319.109000", "164319.109000", "164319.125000", "164319.125000", "164319.125000", "164319.125000", "164319.125000", "164319.125000", "164319.125000", "164319.140000", "164319.140000", "164319.156000", "164319.156000", "164319.156000", "164319.156000", "164319.156000", "164319.156000", "164319.156000", "164319.171000", "164319.171000", "164319.171000", "164319.171000", "164319.171000", "164319.187000", "164319.187000", "164319.187000", "164419.109000", "164419.109000", "164419.109000", "164419.109000", "164419.125000", "164419.125000", "164419.125000", "164419.125000", "164419.125000", "164419.125000", "164419.140000", "164419.140000", "164419.140000", "164419.156000", "164419.156000", "164419.156000", "164419.156000", "164419.156000", "164419.156000", "164419.156000", "164419.171000", "164419.171000", "164419.171000", "164419.171000", "164419.171000", "164419.187000", "164419.187000", "164519.109000", "164519.109000", "164519.109000", "164519.109000", "164519.125000", "164519.125000", "164519.125000", "164519.140000", "164519.140000", "164519.140000", "164519.140000", "164519.140000", "164519.140000", "164519.140000", "164519.156000", "164519.156000", "164519.156000", "164519.156000", "164519.156000", "164519.156000", "164519.171000", "164519.171000", "164519.171000", "164519.187000", "164519.187000", "164519.187000", "164519.187000", "164519.187000", "164539.109000", "164539.109000", "164539.109000", "164539.109000", "164539.125000", "164539.125000", "164539.125000", "164539.125000", "164539.140000", "164639.109000", "164639.109000", "164639.109000", "164639.109000", "164639.125000", "164639.125000", "164639.125000", "164639.125000", "164639.125000", "164639.140000", "164639.140000", "164639.140000", "164639.140000", "164639.140000", "164639.156000", "164639.156000", "164639.156000", "164639.156000", "164639.156000", "164639.156000", "164639.156000", "164639.171000", "164639.171000", "164639.171000", "164639.171000", "164639.187000", "164639.187000", "164739.109000", "164739.109000", "164739.109000", "164739.109000", "164739.125000", "164739.125000", "164739.125000", "164739.125000", "164739.140000", "164739.140000", "164739.140000", "164739.156000", "164739.156000", "164739.156000", "164739.156000", "164739.156000", "164739.156000", "164739.156000", "164739.187000", "164739.187000", "164739.187000", "164739.187000", "164739.218000", "164739.218000", "164739.218000", "164739.218000", "164739.218000", "164839.109000", "164839.109000", "164839.109000", "164839.109000", "164839.125000", "164839.125000", "164839.125000", "164839.140000", "164839.140000", "164839.140000", "164839.140000", "164839.140000", "164839.140000", "164839.140000", "164839.156000", "164839.156000", "164839.156000", "164839.156000", "164839.156000", "164839.156000", "164839.156000", "164839.171000", "164839.171000", "164839.171000", "164839.171000", "164839.171000", "164839.187000", "164839.187000", "164939.109000", "164939.109000", "164939.109000", "164939.125000", "164939.125000", "164939.125000", "164939.125000", "164939.140000", "164939.140000", "164939.140000", "164939.140000", "164939.140000", "164939.140000", "164939.140000", "164939.156000", "164939.156000", "164939.156000", "164939.156000", "164939.156000", "164939.171000", "164939.171000", "164939.171000", "164939.171000", "164939.187000", "164939.187000", "164939.187000", "164939.187000", "165039.109000", "165039.109000", "165039.109000", "165039.109000", "165039.125000", "165039.125000", "165039.125000", "165039.125000", "165039.125000", "165039.125000", "165039.125000", "165039.140000", "165039.140000", "165039.140000", "165039.140000", "165039.140000", "165039.156000", "165039.156000", "165039.156000", "165039.156000", "165039.171000", "165039.171000", "165039.171000", "165039.171000", "165039.171000", "165039.171000", "165039.171000", "165039.187000", "165139.109000", "165139.109000", "165139.109000", "165139.109000", "165139.125000", "165139.125000", "165139.125000", "165139.125000", "165139.125000", "165139.125000", "165139.140000", "165139.140000", "165139.140000", "165139.140000", "165139.156000", "165139.156000", "165139.156000", "165139.156000", "165139.171000", "165139.171000", "165139.171000", "165139.171000", "165139.171000", "165139.171000", "165139.171000", "165139.187000", "165139.187000", "165239.109000", "165239.109000", "165239.109000", "165239.109000", "165239.125000", "165239.125000", "165239.125000", "165239.125000", "165239.125000", "165239.125000", "165239.125000", "165239.140000", "165239.140000", "165239.156000", "165239.156000", "165239.156000", "165239.156000", "165239.156000", "165239.171000", "165239.171000", "165239.171000", "165239.171000", "165239.171000", "165239.171000", "165239.171000", "165239.187000", "165239.187000", "165239.187000", "165339.109000", "165339.109000", "165339.109000", "165339.109000", "165339.125000", "165339.125000", "165339.125000", "165339.140000", "165339.140000", "165339.140000", "165339.140000", "165339.140000", "165339.140000", "165339.140000", "165339.156000", "165339.156000", "165339.156000", "165339.156000", "165339.156000", "165339.156000", "165339.156000", "165339.171000", "165339.171000", "165339.187000", "165339.187000", "165339.187000", "165339.187000", "165339.203000", "165439.109000", "165439.109000", "165439.109000", "165439.125000", "165439.125000", "165439.125000", "165439.125000", "165439.125000", "165439.140000", "165439.140000", "165439.140000", "165439.140000", "165439.140000", "165439.140000", "165439.156000", "165439.156000", "165439.156000", "165439.156000", "165439.156000", "165439.171000", "165439.171000", "165439.171000", "165439.171000", "165439.187000", "165439.187000", "165439.187000", "165439.187000", "165439.203000", "165519.109000", "165519.125000", "165519.125000", "165519.125000", "165519.125000", "165519.125000", "165519.125000", "165519.125000", "165519.140000", "165519.140000", "165519.140000", "165519.140000", "165519.140000", "165519.140000", "165519.140000", "165519.156000", "165519.156000", "165519.171000", "165519.171000", "165619.109000", "165619.109000", "165619.109000", "165619.109000", "165619.125000", "165619.125000", "165619.125000", "165619.125000", "165619.140000", "165619.140000", "165619.140000", "165619.140000", "165619.140000", "165619.140000", "165619.156000", "165619.156000", "165619.156000", "165619.156000", "165619.156000", "165619.156000", "165619.156000", "165619.171000", "165619.171000", "165619.171000", "165619.171000", "165619.171000", "165619.187000", "165619.187000", "165719.109000", "165719.109000", "165719.125000", "165719.125000", "165719.125000", "165719.125000", "165719.140000", "165719.140000", "165719.140000", "165719.140000", "165719.140000", "165719.140000", "165719.140000", "165719.156000", "165719.156000", "165719.156000", "165719.156000", "165719.156000", "165719.187000", "165719.187000", "165719.187000", "165719.187000", "165719.203000", "165719.203000", "165719.203000", "165719.203000", "165719.203000", "165719.203000", "165819.109000", "165819.109000", "165819.109000", "165819.109000", "165819.125000", "165819.125000", "165819.125000", "165819.125000", "165819.125000", "165819.125000", "165819.140000", "165819.140000", "165819.140000", "165819.140000", "165819.156000", "165819.156000", "165819.156000", "165819.156000", "165819.156000", "165819.156000", "165819.171000", "165819.171000", "165819.171000", "165819.187000", "165819.187000", "165819.187000", "165819.187000", "165819.187000", "165919.109000", "165919.109000", "165919.109000", "165919.109000", "165919.125000", "165919.125000", "165919.125000", "165919.125000", "165919.140000", "165919.140000", "165919.140000", "165919.140000", "165919.140000", "165919.140000", "165919.140000", "165919.156000", "165919.156000", "165919.156000", "165919.156000", "165919.156000", "165919.156000", "165919.156000", "165919.171000", "165919.171000", "165919.187000", "165919.187000", "165919.187000", "165919.187000", "165919.203000", "170019.109000", "170019.109000", "170019.109000", "170019.125000", "170019.125000", "170019.140000", "170019.140000", "170019.140000", "170019.140000", "170019.140000", "170019.140000", "170019.140000", "170019.156000", "170019.156000", "170019.156000", "170019.156000", "170019.156000", "170019.156000", "170019.156000", "170019.250000", "170019.250000", "170019.250000", "170019.250000", "170019.265000", "170019.265000", "170019.265000", "170019.265000", "170019.265000", "170106.921000", "170106.921000", "170106.921000", "170106.921000", "170106.921000", "170106.937000", "170106.937000", "170106.937000", "170106.937000", "170106.953000", "170106.953000", "170106.953000", "170106.953000", "170106.953000", "170106.968000", "170106.968000", "170106.968000", "170106.968000", "170106.968000", "170106.968000", "170106.968000", "170106.984000", "170106.984000"],
      "DataSetTrailingPadding": [
        "\u0000\u0000\u0000\u0000\u0000\u0000\u0000\u0000\u0000\u0000\u0000\u0000\u0000\u0000\u0000\u0000\u0000\u0000\u0000\u0000\u0000\u0000\u0000\u0000\u0000\u0000\u0000\u0000\u0000\u0000\u0000\u0000\u0000\u0000\u0000\u0000\u0000\u0000",
        "\u0000\u0000\u0000\u0000\u0000\u0000\u0000\u0000\u0000\u0000\u0000\u0000\u0000\u0000\u0000\u0000\u0000\u0000\u0000\u0000\u0000\u0000\u0000\u0000\u0000\u0000\u0000\u0000\u0000\u0000\u0000\u0000\u0000\u0000",
        "\u0000\u0000\u0000\u0000\u0000\u0000\u0000\u0000\u0000\u0000\u0000\u0000\u0000\u0000\u0000\u0000\u0000\u0000\u0000\u0000\u0000\u0000\u0000\u0000\u0000\u0000\u0000\u0000\u0000\u0000\u0000\u0000\u0000\u0000\u0000\u0000",
        "\u0000\u0000\u0000\u0000\u0000\u0000\u0000\u0000\u0000\u0000\u0000\u0000\u0000\u0000\u0000\u0000\u0000\u0000\u0000\u0000\u0000\u0000\u0000\u0000\u0000\u0000\u0000\u0000\u0000\u0000\u0000\u0000\u0000\u0000",
        "\u0000\u0000\u0000\u0000\u0000\u0000\u0000\u0000\u0000\u0000\u0000\u0000\u0000\u0000\u0000\u0000\u0000\u0000\u0000\u0000\u0000\u0000\u0000\u0000\u0000\u0000\u0000\u0000\u0000\u0000\u0000\u0000\u0000\u0000\u0000\u0000",
        "\u0000\u0000\u0000\u0000\u0000\u0000\u0000\u0000\u0000\u0000\u0000\u0000\u0000\u0000\u0000\u0000\u0000\u0000\u0000\u0000\u0000\u0000\u0000\u0000\u0000\u0000\u0000\u0000\u0000\u0000\u0000\u0000\u0000\u0000\u0000\u0000\u0000\u0000",
        "\u0000\u0000\u0000\u0000\u0000\u0000\u0000\u0000\u0000\u0000\u0000\u0000\u0000\u0000\u0000\u0000\u0000\u0000\u0000\u0000\u0000\u0000\u0000\u0000\u0000\u0000\u0000\u0000\u0000\u0000\u0000\u0000\u0000\u0000",
        "\u0000\u0000\u0000\u0000\u0000\u0000\u0000\u0000\u0000\u0000\u0000\u0000\u0000\u0000\u0000\u0000\u0000\u0000\u0000\u0000\u0000\u0000\u0000\u0000\u0000\u0000\u0000\u0000\u0000\u0000\u0000\u0000\u0000\u0000\u0000\u0000",
