{
  "AcquisitionMatrixPE": 104,
  "AcquisitionNumber": 1,
  "AcquisitionTime": "14:03:21.692500",
  "BandwidthPerPixelPhaseEncode": 13.935,
  "BaseResolution": 104,
  "CoilString": "C:HEA;HEP",
  "ConversionSoftware": "dcm2niix",
  "ConversionSoftwareVersion": "v1.0.20210317",
  "DerivedVendorReportedEchoSpacing": 0.000690017,
  "DeviceSerialNumber": "35450",
  "DwellTime": 2.5e-06,
  "EchoTime": 0.0348,
  "EffectiveEchoSpacing": 0.000690017,
  "FlipAngle": 55,
  "ImageComments": "Unaliased MB8/PE3 (remote)",
  "ImageOrientationPatientDICOM": [0.999968, -0.00301991, -0.00743668, 7.1325e-08, 0.926524, -0.376236],
  "ImageType": [
    "ORIGINAL",
    "PRIMARY",
    "M",
    "MB",
    "ND",
    "MOSAIC"
],
  "ImagingFrequency": 123.234,
  "InPlanePhaseEncodingDirectionDICOM": "COL",
  "InstitutionAddress": "Univeristy Ave. 197,Newark,North East,US,07102-1814",
  "InstitutionName": "RUBIC",
  "InstitutionalDepartmentName": "Department",
  "MRAcquisitionType": "2D",
  "MagneticFieldStrength": 3,
  "Manufacturer": "Siemens",
  "ManufacturersModelName": "TrioTim",
  "Modality": "MR",
  "MultibandAccelerationFactor": 8,
  "PartialFourier": 0.875,
  "PatientPosition": "HFS",
  "PercentPhaseFOV": 100,
  "PercentSampling": 100,
  "PhaseEncodingDirection": "j-",
  "PhaseEncodingSteps": 91,
  "PhaseResolution": 1,
  "PixelBandwidth": 1923,
  "ProcedureStepDescription": "Cole^Michael",
  "ProtocolName": "cmrr_mbep2d_bold_2mm_MB8_Task_8x",
  "PulseSequenceDetails": "%CustomerSeq%\\cmrr_mbep2d_bold",
  "ReceiveCoilName": "32Ch_Head",
  "ReconMatrixPE": 104,
  "RepetitionTime": 0.785,
  "SAR": 0.130346,
  "ScanOptions": "PFP\\FS",
  "ScanningSequence": "EP",
  "SequenceName": "epfid2d1_104",
  "SequenceVariant": "SK\\SS",
  "SeriesDescription": "cmrr_mbep2d_bold_2mm_MB8_Task_8x",
  "SeriesNumber": 27,
  "ShimSetting": [2118, -303, -7371, 461, 84, -486, -118, 86],
  "SliceThickness": 2,
  "SliceTiming": [0, 0.4375, 0.0875, 0.525, 0.175, 0.6125, 0.2625, 0.7, 0.35, 0, 0.4375, 0.0875, 0.525, 0.175, 0.6125, 0.2625, 0.7, 0.35, 0, 0.4375, 0.0875, 0.525, 0.175, 0.6125, 0.2625, 0.7, 0.35, 0, 0.4375, 0.0875, 0.525, 0.175, 0.6125, 0.2625, 0.7, 0.35, 0, 0.4375, 0.0875, 0.525, 0.175, 0.6125, 0.2625, 0.7, 0.35, 0, 0.4375, 0.0875, 0.525, 0.175, 0.6125, 0.2625, 0.7, 0.35, 0, 0.4375, 0.0875, 0.525, 0.175, 0.6125, 0.2625, 0.7, 0.35, 0, 0.4375, 0.0875, 0.525, 0.175, 0.6125, 0.2625, 0.7, 0.35],
  "SoftwareVersions": "syngo MR B19",
  "SpacingBetweenSlices": 2,
  "StationName": "MRC35450",
  "TaskName": "cpro",
  "TotalReadoutTime": 0.0710717,
  "TxRefAmp": 337.31,
  "dcmmeta_affine": [
    [-1.9999356269836426, 1.4265000913837866e-07, -0.016052914783358574, 105.20269012451172],
    [0.006039819680154324, 1.853047490119934, -0.7524482607841492, -61.792930603027344],
    [-0.014873352833092213, 0.752472460269928, 1.8529878854751587, -146.2030792236328],
    [0.0, 0.0, 0.0, 1.0]
],
  "dcmmeta_reorient_transform": [
    [0.0, -1.0, 0.0, 103.0],
    [1.0, 0.0, 0.0, 0.0],
    [0.0, 0.0, 1.0, 0.0],
    [0.0, 0.0, 0.0, 1.0]
],
  "dcmmeta_shape": [104, 104, 72, 581],
  "dcmmeta_slice_dim": 2,
  "dcmmeta_version": 0.6,
  "global": {
    "const": {
      "AcquisitionMatrix": [104, 0, 0, 104],
      "AngioFlag": "N",
      "BitsAllocated": 16,
      "BitsStored": 12,
      "Columns": 936,
      "EchoNumbers": 1,
      "EchoTime": 34.8,
      "EchoTrainLength": 1,
      "FlipAngle": 55.0,
      "HighBit": 11,
      "ImageOrientationPatient": [0.9999677874766, -0.0030199099409, -0.0074366762134, 7.1325003e-08, 0.92652377139362, -0.3762362303694],
      "ImagePositionPatient": [-937.17596396929, -897.42617987152, 250.51744535879],
      "ImageType": [
        "ORIGINAL",
        "PRIMARY",
        "M",
        "MB",
        "ND",
        "MOSAIC"
],
      "ImagedNucleus": "1H",
      "ImagingFrequency": 123.234407,
      "InPlanePhaseEncodingDirection": "COL",
      "MRAcquisitionType": "2D",
      "MagneticFieldStrength": 3.0,
      "Manufacturer": "SIEMENS",
      "ManufacturerModelName": "TrioTim",
      "Modality": "MR",
      "NumberOfAverages": 1.0,
      "NumberOfPhaseEncodingSteps": 91,
      "PercentPhaseFieldOfView": 100.0,
      "PercentSampling": 100.0,
      "PerformedProcedureStepStartTime": "115734.265000",
      "PhotometricInterpretation": "MONOCHROME2",
      "PixelBandwidth": 1923.0,
      "PixelRepresentation": 0,
      "PixelSpacing": [2.0, 2.0],
      "ProtocolName": "cmrr_mbep2d_bold_2mm_MB8_Task_8x",
      "RepetitionTime": 785.0,
      "Rows": 936,
      "SAR": 0.13034647175688,
      "SamplesPerPixel": 1,
      "ScanOptions": [
        "PFP",
        "FS"
],
      "ScanningSequence": "EP",
      "SequenceName": "epfid2d1_104",
      "SequenceVariant": [
        "SK",
        "SS"
],
      "SeriesDescription": "cmrr_mbep2d_bold_2mm_MB8_Task_8x",
      "SeriesNumber": 27,
      "SeriesTime": "140355.046000",
      "SliceLocation": -113.05267704487,
      "SliceThickness": 2.0,
      "SmallestImagePixelValue": 0,
      "SoftwareVersions": "syngo MR B19",
      "SpacingBetweenSlices": 2.0000000547758,
      "SpecificCharacterSet": "ISO_IR 100",
      "StudyID": "1",
      "StudyTime": "115734.125000",
      "TransmitCoilName": "Body",
      "VariableFlipAngleFlag": "N",
      "WindowCenterWidthExplanation": "Algo1",
      "dBdt": 0.0},
    "slices": {}
  },
  "time": {
    "samples": {
      "AcquisitionNumber": [1, 2, 3, 4, 5, 6, 7, 8, 9, 10, 11, 12, 13, 14, 15, 16, 17, 18, 19, 20, 21, 22, 23, 24, 25, 26, 27, 28, 29, 30, 31, 32, 33, 34, 35, 36, 37, 38, 39, 40, 41, 42, 43, 44, 45, 46, 47, 48, 49, 50, 51, 52, 53, 54, 55, 56, 57, 58, 59, 60, 61, 62, 63, 64, 65, 66, 67, 68, 69, 70, 71, 72, 73, 74, 75, 76, 77, 78, 79, 80, 81, 82, 83, 84, 85, 86, 87, 88, 89, 90, 91, 92, 93, 94, 95, 96, 97, 98, 99, 100, 101, 102, 103, 104, 105, 106, 107, 108, 109, 110, 111, 112, 113, 114, 115, 116, 117, 118, 119, 120, 121, 122, 123, 124, 125, 126, 127, 128, 129, 130, 131, 132, 133, 134, 135, 136, 137, 138, 139, 140, 141, 142, 143, 144, 145, 146, 147, 148, 149, 150, 151, 152, 153, 154, 155, 156, 157, 158, 159, 160, 161, 162, 163, 164, 165, 166, 167, 168, 169, 170, 171, 172, 173, 174, 175, 176, 177, 178, 179, 180, 181, 182, 183, 184, 185, 186, 187, 188, 189, 190, 191, 192, 193, 194, 195, 196, 197, 198, 199, 200, 201, 202, 203, 204, 205, 206, 207, 208, 209, 210, 211, 212, 213, 214, 215, 216, 217, 218, 219, 220, 221, 222, 223, 224, 225, 226, 227, 228, 229, 230, 231, 232, 233, 234, 235, 236, 237, 238, 239, 240, 241, 242, 243, 244, 245, 246, 247, 248, 249, 250, 251, 252, 253, 254, 255, 256, 257, 258, 259, 260, 261, 262, 263, 264, 265, 266, 267, 268, 269, 270, 271, 272, 273, 274, 275, 276, 277, 278, 279, 280, 281, 282, 283, 284, 285, 286, 287, 288, 289, 290, 291, 292, 293, 294, 295, 296, 297, 298, 299, 300, 301, 302, 303, 304, 305, 306, 307, 308, 309, 310, 311, 312, 313, 314, 315, 316, 317, 318, 319, 320, 321, 322, 323, 324, 325, 326, 327, 328, 329, 330, 331, 332, 333, 334, 335, 336, 337, 338, 339, 340, 341, 342, 343, 344, 345, 346, 347, 348, 349, 350, 351, 352, 353, 354, 355, 356, 357, 358, 359, 360, 361, 362, 363, 364, 365, 366, 367, 368, 369, 370, 371, 372, 373, 374, 375, 376, 377, 378, 379, 380, 381, 382, 383, 384, 385, 386, 387, 388, 389, 390, 391, 392, 393, 394, 395, 396, 397, 398, 399, 400, 401, 402, 403, 404, 405, 406, 407, 408, 409, 410, 411, 412, 413, 414, 415, 416, 417, 418, 419, 420, 421, 422, 423, 424, 425, 426, 427, 428, 429, 430, 431, 432, 433, 434, 435, 436, 437, 438, 439, 440, 441, 442, 443, 444, 445, 446, 447, 448, 449, 450, 451, 452, 453, 454, 455, 456, 457, 458, 459, 460, 461, 462, 463, 464, 465, 466, 467, 468, 469, 470, 471, 472, 473, 474, 475, 476, 477, 478, 479, 480, 481, 482, 483, 484, 485, 486, 487, 488, 489, 490, 491, 492, 493, 494, 495, 496, 497, 498, 499, 500, 501, 502, 503, 504, 505, 506, 507, 508, 509, 510, 511, 512, 513, 514, 515, 516, 517, 518, 519, 520, 521, 522, 523, 524, 525, 526, 527, 528, 529, 530, 531, 532, 533, 534, 535, 536, 537, 538, 539, 540, 541, 542, 543, 544, 545, 546, 547, 548, 549, 550, 551, 552, 553, 554, 555, 556, 557, 558, 559, 560, 561, 562, 563, 564, 565, 566, 567, 568, 569, 570, 571, 572, 573, 574, 575, 576, 577, 578, 579, 580, 581],
      "AcquisitionTime": ["140321.692500", "140322.482500", "140323.270000", "140324.057500", "140324.845000", "140325.635000", "140326.422500", "140327.210000", "140327.997500", "140328.787500", "140329.575000", "140330.362500", "140331.150000", "140331.940000", "140332.727500", "140333.515000", "140334.302500", "140335.092500", "140335.880000", "140336.667500", "140337.455000", "140338.245000", "140339.032500", "140339.820000", "140340.610000", "140341.397500", "140342.185000", "140342.972500", "140343.762500", "140344.550000", "140345.337500", "140346.125000", "140346.915000", "140347.702500", "140348.490000", "140349.277500", "140350.067500", "140350.855000", "140351.642500", "140352.430000", "140353.220000", "140354.007500", "140354.795000", "140355.582500", "140356.372500", "140357.160000", "140357.947500", "140358.737500", "140359.525000", "140400.312500", "140401.100000", "140401.890000", "140402.677500", "140403.465000", "140404.252500", "140405.042500", "140405.830000", "140406.617500", "140407.405000", "140408.195000", "140408.982500", "140409.770000", "140410.557500", "140411.347500", "140412.135000", "140412.922500", "140413.710000", "140414.500000", "140415.287500", "140416.075000", "140416.865000", "140417.652500", "140418.440000", "140419.227500", "140420.017500", "140420.805000", "140421.592500", "140422.380000", "140423.170000", "140423.957500", "140424.745000", "140425.532500", "140426.322500", "140427.110000", "140427.897500", "140428.685000", "140429.475000", "140430.262500", "140431.050000", "140431.837500", "140432.627500", "140433.415000", "140434.202500", "140434.992500", "140435.780000", "140436.567500", "140437.355000", "140438.145000", "140438.932500", "140439.720000", "140440.507500", "140441.297500", "140442.085000", "140442.872500", "140443.660000", "140444.450000", "140445.237500", "140446.025000", "140446.812500", "140447.602500", "140448.390000", "140449.177500", "140449.965000", "140450.755000", "140451.542500", "140452.330000", "140453.120000", "140453.907500", "140454.695000", "140455.482500", "140456.272500", "140457.060000", "140457.847500", "140458.635000", "140459.425000", "140500.212500", "140501.000000", "140501.787500", "140502.577500", "140503.365000", "140504.152500", "140504.940000", "140505.730000", "140506.517500", "140507.305000", "140508.092500", "140508.882500", "140509.670000", "140510.457500", "140511.247500", "140512.035000", "140512.822500", "140513.610000", "140514.400000", "140515.187500", "140515.975000", "140516.762500", "140517.552500", "140518.340000", "140519.127500", "140519.915000", "140520.705000", "140521.492500", "140522.280000", "140523.067500", "140523.857500", "140524.645000", "140525.432500", "140526.222500", "140527.010000", "140527.797500", "140528.585000", "140529.375000", "140530.162500", "140530.950000", "140531.737500", "140532.527500", "140533.315000", "140534.102500", "140534.890000", "140535.680000", "140536.467500", "140537.255000", "140538.042500", "140538.832500", "140539.620000", "140540.407500", "140541.195000", "140541.985000", "140542.772500", "140543.560000", "140544.350000", "140545.137500", "140545.925000", "140546.712500", "140547.502500", "140548.290000", "140549.077500", "140549.865000", "140550.655000", "140551.442500", "140552.230000", "140553.017500", "140553.807500", "140554.595000", "140555.382500", "140556.170000", "140556.960000", "140557.747500", "140558.535000", "140559.322500", "140600.112500", "140600.900000", "140601.687500", "140602.477500", "140603.265000", "140604.052500", "140604.840000", "140605.630000", "140606.417500", "140607.205000", "140607.992500", "140608.782500", "140609.570000", "140610.357500", "140611.145000", "140611.935000", "140612.722500", "140613.510000", "140614.297500", "140615.087500", "140615.875000", "140616.662500", "140617.450000", "140618.240000", "140619.027500", "140619.815000", "140620.605000", "140621.392500", "140622.180000", "140622.967500", "140623.757500", "140624.545000", "140625.332500", "140626.120000", "140626.910000", "140627.697500", "140628.485000", "140629.272500", "140630.062500", "140630.850000", "140631.637500", "140632.425000", "140633.215000", "140634.002500", "140634.790000", "140635.577500", "140636.367500", "140637.155000", "140637.942500", "140638.732500", "140639.520000", "140640.307500", "140641.095000", "140641.885000", "140642.672500", "140643.460000", "140644.247500", "140645.037500", "140645.825000", "140646.612500", "140647.400000", "140648.190000", "140648.977500", "140649.765000", "140650.552500", "140651.342500", "140652.130000", "140652.917500", "140653.705000", "140654.495000", "140655.282500", "140656.070000", "140656.860000", "140657.647500", "140658.435000", "140659.222500", "140700.012500", "140700.800000", "140701.587500", "140702.375000", "140703.165000", "140703.952500", "140704.740000", "140705.527500", "140706.317500", "140707.105000", "140707.892500", "140708.680000", "140709.470000", "140710.257500", "140711.045000", "140711.832500", "140712.622500", "140713.410000", "140714.197500", "140714.987500", "140715.775000", "140716.562500", "140717.350000", "140718.140000", "140718.927500", "140719.715000", "140720.502500", "140721.292500", "140722.080000", "140722.867500", "140723.655000", "140724.445000", "140725.232500", "140726.020000", "140726.807500", "140727.597500", "140728.385000", "140729.172500", "140729.960000", "140730.750000", "140731.537500", "140732.325000", "140733.115000", "140733.902500", "140734.690000", "140735.477500", "140736.267500", "140737.055000", "140737.842500", "140738.630000", "140739.420000", "140740.207500", "140740.995000", "140741.782500", "140742.572500", "140743.360000", "140744.147500", "140744.935000", "140745.725000", "140746.512500", "140747.300000", "140748.087500", "140748.877500", "140749.665000", "140750.452500", "140751.242500", "140752.030000", "140752.817500", "140753.605000", "140754.395000", "140755.182500", "140755.970000", "140756.757500", "140757.547500", "140758.335000", "140759.122500", "140759.910000", "140800.700000", "140801.487500", "140802.275000", "140803.062500", "140803.852500", "140804.640000", "140805.427500", "140806.215000", "140807.005000", "140807.792500", "140808.580000", "140809.370000", "140810.157500", "140810.945000", "140811.732500", "140812.522500", "140813.310000", "140814.097500", "140814.885000", "140815.675000", "140816.462500", "140817.250000", "140818.037500", "140818.827500", "140819.615000", "140820.402500", "140821.190000", "140821.980000", "140822.767500", "140823.555000", "140824.342500", "140825.132500", "140825.920000", "140826.707500", "140827.497500", "140828.285000", "140829.072500", "140829.860000", "140830.650000", "140831.437500", "140832.225000", "140833.012500", "140833.802500", "140834.590000", "140835.377500", "140836.165000", "140836.955000", "140837.742500", "140838.530000", "140839.317500", "140840.107500", "140840.895000", "140841.682500", "140842.472500", "140843.260000", "140844.047500", "140844.835000", "140845.625000", "140846.412500", "140847.200000", "140847.987500", "140848.777500", "140849.565000", "140850.352500", "140851.140000", "140851.930000", "140852.717500", "140853.505000", "140854.292500", "140855.082500", "140855.870000", "140856.657500", "140857.445000", "140858.235000", "140859.022500", "140859.810000", "140900.600000", "140901.387500", "140902.175000", "140902.962500", "140903.752500", "140904.540000", "140905.327500", "140906.115000", "140906.905000", "140907.692500", "140908.480000", "140909.267500", "140910.057500", "140910.845000", "140911.632500", "140912.420000", "140913.210000", "140913.997500", "140914.785000", "140915.572500", "140916.362500", "140917.150000", "140917.937500", "140918.727500", "140919.515000", "140920.302500", "140921.090000", "140921.880000", "140922.667500", "140923.455000", "140924.242500", "140925.032500", "140925.820000", "140926.607500", "140927.395000", "140928.185000", "140928.972500", "140929.760000", "140930.547500", "140931.337500", "140932.125000", "140932.912500", "140933.700000", "140934.490000", "140935.277500", "140936.065000", "140936.855000", "140937.642500", "140938.430000", "140939.217500", "140940.007500", "140940.795000", "140941.582500", "140942.370000", "140943.160000", "140943.947500", "140944.735000", "140945.522500", "140946.312500", "140947.100000", "140947.887500", "140948.675000", "140949.465000", "140950.252500", "140951.040000", "140951.827500", "140952.617500", "140953.405000", "140954.192500", "140954.982500", "140955.770000", "140956.557500", "140957.345000", "140958.135000", "140958.922500", "140959.710000", "141000.497500", "141001.287500", "141002.075000", "141002.862500", "141003.650000", "141004.440000", "141005.227500", "141006.015000", "141006.802500", "141007.592500", "141008.380000", "141009.167500", "141009.955000", "141010.745000", "141011.532500", "141012.320000", "141013.110000", "141013.897500", "141014.685000", "141015.472500", "141016.262500", "141017.050000", "141017.837500", "141018.625000", "141019.415000", "141020.202500", "141020.990000", "141021.777500", "141022.567500", "141023.355000", "141024.142500", "141024.930000", "141025.720000", "141026.507500", "141027.295000", "141028.082500", "141028.872500", "141029.660000", "141030.447500", "141031.237500", "141032.025000", "141032.812500", "141033.600000", "141034.390000", "141035.177500", "141035.965000", "141036.752500", "141037.542500", "141038.330000", "141039.117500", "141039.905000", "141040.695000", "141041.482500", "141042.270000", "141043.057500", "141043.847500", "141044.635000", "141045.422500", "141046.210000", "141047.000000", "141047.787500", "141048.575000", "141049.365000", "141050.152500", "141050.940000", "141051.727500", "141052.517500", "141053.305000", "141054.092500", "141054.880000", "141055.670000", "141056.457500", "141057.245000", "141058.032500", "141058.822500"],
      "ContentTime": ["140355.062000", "140355.062000", "140355.062000", "140355.062000", "140355.062000", "140355.062000", "140355.062000", "140355.078000", "140355.078000", "140355.078000", "140355.078000", "140355.078000", "140355.078000", "140355.078000", "140355.093000", "140355.093000", "140355.093000", "140355.093000", "140355.109000", "140355.109000", "140355.109000", "140355.109000", "140355.109000", "140355.109000", "140355.109000", "140355.125000", "140355.125000", "140355.125000", "140355.125000", "140355.125000", "140355.125000", "140355.140000", "140355.140000", "140355.140000", "140355.140000", "140355.156000", "140355.156000", "140355.156000", "140355.156000", "140415.031000", "140415.031000", "140415.046000", "140415.046000", "140415.046000", "140415.046000", "140415.046000", "140415.046000", "140415.046000", "140415.062000", "140415.062000", "140415.062000", "140415.062000", "140415.062000", "140415.062000", "140415.062000", "140415.078000", "140415.078000", "140415.078000", "140415.078000", "140415.078000", "140415.078000", "140415.078000", "140415.093000", "140415.093000", "140415.093000", "140435.031000", "140435.031000", "140435.046000", "140435.046000", "140435.046000", "140435.046000", "140435.046000", "140435.046000", "140435.046000", "140435.062000", "140435.062000", "140435.062000", "140435.062000", "140435.062000", "140435.062000", "140435.062000", "140435.078000", "140435.078000", "140435.078000", "140435.078000", "140435.078000", "140435.078000", "140435.078000", "140435.093000", "140435.093000", "140455.031000", "140455.031000", "140455.046000", "140455.046000", "140455.046000", "140455.046000", "140455.046000", "140455.046000", "140455.046000", "140455.062000", "140455.062000", "140455.062000", "140455.062000", "140455.062000", "140455.062000", "140455.078000", "140455.078000", "140455.078000", "140455.078000", "140455.078000", "140455.078000", "140455.078000", "140455.093000", "140455.093000", "140455.093000", "140455.093000", "140515.031000", "140515.031000", "140515.046000", "140515.046000", "140515.046000", "140515.046000", "140515.046000", "140515.046000", "140515.046000", "140515.062000", "140515.062000", "140515.062000", "140515.062000", "140515.062000", "140515.062000", "140515.062000", "140515.078000", "140515.078000", "140515.078000", "140515.078000", "140515.078000", "140515.078000", "140515.078000", "140515.093000", "140515.093000", "140535.031000", "140535.031000", "140535.046000", "140535.046000", "140535.046000", "140535.046000", "140535.046000", "140535.046000", "140535.046000", "140535.062000", "140535.062000", "140535.062000", "140535.062000", "140535.062000", "140535.062000", "140535.062000", "140535.078000", "140535.078000", "140535.078000", "140535.078000", "140535.078000", "140535.078000", "140535.093000", "140535.093000", "140535.093000", "140555.031000", "140555.031000", "140555.046000", "140555.046000", "140555.046000", "140555.046000", "140555.046000", "140555.046000", "140555.046000", "140555.062000", "140555.062000", "140555.062000", "140555.062000", "140555.062000", "140555.062000", "140555.062000", "140555.078000", "140555.078000", "140555.078000", "140555.078000", "140555.078000", "140555.078000", "140555.078000", "140555.093000", "140555.093000", "140555.093000", "140615.031000", "140615.031000", "140615.046000", "140615.046000", "140615.046000", "140615.046000", "140615.046000", "140615.046000", "140615.046000", "140615.062000", "140615.062000", "140615.062000", "140615.062000", "140615.062000", "140615.062000", "140615.062000", "140615.078000", "140615.078000", "140615.078000", "140615.078000", "140615.078000", "140615.093000", "140615.093000", "140615.093000", "140615.093000", "140635.031000", "140635.031000", "140635.046000", "140635.046000", "140635.046000", "140635.046000", "140635.046000", "140635.046000", "140635.046000", "140635.062000", "140635.062000", "140635.062000", "140635.062000", "140635.062000", "140635.062000", "140635.062000", "140635.078000", "140635.078000", "140635.078000", "140635.078000", "140635.078000", "140635.078000", "140635.078000", "140635.093000", "140635.093000", "140635.093000", "140655.031000", "140655.046000", "140655.046000", "140655.046000", "140655.046000", "140655.046000", "140655.046000", "140655.046000", "140655.062000", "140655.062000", "140655.062000", "140655.062000", "140655.078000", "140655.078000", "140655.093000", "140655.093000", "140655.093000", "140655.093000", "140655.093000", "140655.093000", "140655.093000", "140655.109000", "140655.109000", "140655.109000", "140655.109000", "140715.031000", "140715.031000", "140715.046000", "140715.046000", "140715.046000", "140715.046000", "140715.046000", "140715.046000", "140715.046000", "140715.062000", "140715.062000", "140715.062000", "140715.062000", "140715.062000", "140715.062000", "140715.062000", "140715.078000", "140715.078000", "140715.078000", "140715.078000", "140715.078000", "140715.078000", "140715.078000", "140715.093000", "140715.093000", "140715.093000", "140735.031000", "140735.031000", "140735.046000", "140735.046000", "140735.046000", "140735.046000", "140735.046000", "140735.046000", "140735.046000", "140735.062000", "140735.062000", "140735.062000", "140735.062000", "140735.062000", "140735.062000", "140735.062000", "140735.078000", "140735.078000", "140735.078000", "140735.078000", "140735.078000", "140735.093000", "140735.093000", "140735.093000", "140735.093000", "140755.031000", "140755.031000", "140755.046000", "140755.046000", "140755.046000", "140755.046000", "140755.046000", "140755.046000", "140755.046000", "140755.062000", "140755.062000", "140755.062000", "140755.062000", "140755.062000", "140755.062000", "140755.062000", "140755.078000", "140755.078000", "140755.078000", "140755.078000", "140755.078000", "140755.078000", "140755.078000", "140755.093000", "140755.093000", "140755.093000", "140815.031000", "140815.031000", "140815.046000", "140815.046000", "140815.046000", "140815.046000", "140815.046000", "140815.046000", "140815.046000", "140815.062000", "140815.062000", "140815.062000", "140815.062000", "140815.062000", "140815.062000", "140815.062000", "140815.078000", "140815.078000", "140815.078000", "140815.078000", "140815.078000", "140815.093000", "140815.093000", "140815.093000", "140815.093000", "140835.031000", "140835.031000", "140835.046000", "140835.046000", "140835.046000", "140835.046000", "140835.046000", "140835.046000", "140835.046000", "140835.062000", "140835.062000", "140835.062000", "140835.062000", "140835.062000", "140835.062000", "140835.062000", "140835.078000", "140835.078000", "140835.078000", "140835.078000", "140835.078000", "140835.078000", "140835.093000", "140835.093000", "140835.093000", "140835.093000", "140855.031000", "140855.031000", "140855.046000", "140855.046000", "140855.046000", "140855.046000", "140855.046000", "140855.046000", "140855.046000", "140855.062000", "140855.062000", "140855.062000", "140855.062000", "140855.062000", "140855.062000", "140855.062000", "140855.078000", "140855.078000", "140855.078000", "140855.078000", "140855.078000", "140855.078000", "140855.078000", "140855.093000", "140855.093000", "140915.031000", "140915.031000", "140915.046000", "140915.046000", "140915.046000", "140915.046000", "140915.046000", "140915.046000", "140915.046000", "140915.062000", "140915.062000", "140915.062000", "140915.062000", "140915.062000", "140915.062000", "140915.062000", "140915.078000", "140915.078000", "140915.078000", "140915.078000", "140915.078000", "140915.078000", "140915.078000", "140915.093000", "140915.093000", "140915.093000", "140935.031000", "140935.031000", "140935.046000", "140935.046000", "140935.046000", "140935.046000", "140935.046000", "140935.046000", "140935.046000", "140935.062000", "140935.062000", "140935.062000", "140935.062000", "140935.062000", "140935.078000", "140935.078000", "140935.078000", "140935.078000", "140935.078000", "140935.093000", "140935.093000", "140935.093000", "140935.093000", "140935.093000", "140935.109000", "140955.031000", "140955.031000", "140955.046000", "140955.046000", "140955.046000", "140955.046000", "140955.046000", "140955.046000", "140955.046000", "140955.062000", "140955.062000", "140955.062000", "140955.062000", "140955.062000", "140955.062000", "140955.062000", "140955.078000", "140955.078000", "140955.078000", "140955.078000", "140955.078000", "140955.093000", "140955.093000", "140955.093000", "140955.093000", "140955.093000", "141015.031000", "141015.031000", "141015.046000", "141015.046000", "141015.046000", "141015.046000", "141015.046000", "141015.046000", "141015.046000", "141015.062000", "141015.062000", "141015.062000", "141015.062000", "141015.062000", "141015.062000", "141015.062000", "141015.078000", "141015.078000", "141015.078000", "141015.078000", "141015.078000", "141015.078000", "141015.078000", "141015.093000", "141015.093000", "141035.031000", "141035.031000", "141035.046000", "141035.046000", "141035.046000", "141035.046000", "141035.046000", "141035.046000", "141035.046000", "141035.062000", "141035.062000", "141035.062000", "141035.062000", "141035.062000", "141035.062000", "141035.078000", "141035.078000", "141035.078000", "141035.078000", "141035.078000", "141035.078000", "141035.093000", "141035.093000", "141035.093000", "141035.093000", "141035.093000", "141055.031000", "141055.031000", "141055.046000", "141055.046000", "141055.046000", "141055.046000", "141055.046000", "141055.046000", "141055.046000", "141055.062000", "141055.062000", "141055.062000", "141055.062000", "141055.062000", "141055.062000", "141055.062000", "141055.078000", "141055.078000", "141055.078000", "141055.078000", "141055.078000", "141055.078000", "141055.078000", "141055.093000", "141055.093000", "141100.156000", "141100.156000", "141100.156000", "141100.156000", "141100.156000", "141100.156000", "141100.171000"],
      "DataSetTrailingPadding": [
        "\u0000\u0000\u0000\u0000\u0000\u0000\u0000\u0000\u0000\u0000\u0000\u0000",
        "\u0000\u0000\u0000\u0000\u0000\u0000\u0000\u0000\u0000\u0000\u0000\u0000\u0000\u0000",
        "\u0000\u0000\u0000\u0000\u0000\u0000\u0000\u0000\u0000\u0000\u0000\u0000",
        "\u0000\u0000\u0000\u0000\u0000\u0000\u0000\u0000\u0000\u0000",
        "\u0000\u0000\u0000\u0000\u0000\u0000\u0000\u0000\u0000\u0000\u0000\u0000",
        "\u0000\u0000\u0000\u0000\u0000\u0000\u0000\u0000\u0000\u0000",
        "\u0000\u0000\u0000\u0000\u0000\u0000\u0000\u0000\u0000\u0000\u0000\u0000\u0000\u0000",
        "\u0000\u0000\u0000\u0000\u0000\u0000\u0000\u0000\u0000\u0000\u0000\u0000",
        "\u0000\u0000\u0000\u0000\u0000\u0000\u0000\u0000\u0000\u0000",
        "\u0000\u0000\u0000\u0000\u0000\u0000",
        "\u0000\u0000\u0000\u0000\u0000\u0000\u0000\u0000",
        "\u0000\u0000\u0000\u0000\u0000\u0000",
        "\u0000\u0000\u0000\u0000\u0000\u0000\u0000\u0000\u0000\u0000\u0000\u0000",
        "\u0000\u0000\u0000\u0000\u0000\u0000\u0000\u0000",
        "\u0000\u0000\u0000\u0000\u0000\u0000",
        "\u0000\u0000\u0000\u0000\u0000\u0000\u0000\u0000",
        "\u0000\u0000\u0000\u0000\u0000\u0000",
        "\u0000\u0000\u0000\u0000\u0000\u0000",
        "\u0000\u0000\u0000\u0000\u0000\u0000\u0000\u0000",
        "\u0000\u0000\u0000\u0000\u0000\u0000",
        "\u0000\u0000\u0000\u0000\u0000\u0000\u0000\u0000",
        "\u0000\u0000\u0000\u0000\u0000\u0000\u0000\u0000",
        "\u0000\u0000\u0000\u0000\u0000\u0000",
        "\u0000\u0000\u0000\u0000\u0000\u0000\u0000\u0000",
        "\u0000\u0000\u0000\u0000\u0000\u0000\u0000\u0000",
        "\u0000\u0000\u0000\u0000\u0000\u0000",
        "\u0000\u0000\u0000\u0000\u0000\u0000\u0000\u0000",
        "\u0000\u0000\u0000\u0000\u0000\u0000",
        "\u0000\u0000\u0000\u0000\u0000\u0000\u0000\u0000",
        "\u0000\u0000\u0000\u0000\u0000\u0000\u0000\u0000",
        "\u0000\u0000\u0000\u0000\u0000\u0000",
