{
  "AcquisitionMatrixPE": 104,
  "AcquisitionNumber": 1,
  "AcquisitionTime": "13:38:34.707500",
  "BandwidthPerPixelPhaseEncode": 13.935,
  "BaseResolution": 104,
  "CoilString": "C:HEA;HEP",
  "ConversionSoftware": "dcm2niix",
  "ConversionSoftwareVersion": "v1.0.20210317",
  "DerivedVendorReportedEchoSpacing": 0.000690017,
  "DeviceSerialNumber": "35450",
  "DwellTime": 2.5e-06,
  "EchoTime": 0.0348,
  "EffectiveEchoSpacing": 0.000690017,
  "FlipAngle": 55,
  "ImageComments": "Unaliased MB8/PE3 (remote)",
  "ImageOrientationPatientDICOM": [0.999968, -0.00301991, -0.00743668, 7.1325e-08, 0.926524, -0.376236],
  "ImageType": [
    "ORIGINAL",
    "PRIMARY",
    "M",
    "MB",
    "ND",
    "MOSAIC"
],
  "ImagingFrequency": 123.234,
  "InPlanePhaseEncodingDirectionDICOM": "COL",
  "InstitutionAddress": "Univeristy Ave. 197,Newark,North East,US,07102-1814",
  "InstitutionName": "RUBIC",
  "InstitutionalDepartmentName": "Department",
  "MRAcquisitionType": "2D",
  "MagneticFieldStrength": 3,
  "Manufacturer": "Siemens",
  "ManufacturersModelName": "TrioTim",
  "Modality": "MR",
  "MultibandAccelerationFactor": 8,
  "PartialFourier": 0.875,
  "PatientPosition": "HFS",
  "PercentPhaseFOV": 100,
  "PercentSampling": 100,
  "PhaseEncodingDirection": "j-",
  "PhaseEncodingSteps": 91,
  "PhaseResolution": 1,
  "PixelBandwidth": 1923,
  "ProcedureStepDescription": "Cole^Michael",
  "ProtocolName": "cmrr_mbep2d_bold_2mm_MB8_Task_8x",
  "PulseSequenceDetails": "%CustomerSeq%\\cmrr_mbep2d_bold",
  "ReceiveCoilName": "32Ch_Head",
  "ReconMatrixPE": 104,
  "RepetitionTime": 0.785,
  "SAR": 0.130346,
  "ScanOptions": "PFP\\FS",
  "ScanningSequence": "EP",
  "SequenceName": "epfid2d1_104",
  "SequenceVariant": "SK\\SS",
  "SeriesDescription": "cmrr_mbep2d_bold_2mm_MB8_Task_8x",
  "SeriesNumber": 21,
  "ShimSetting": [2118, -303, -7371, 461, 84, -486, -118, 86],
  "SliceThickness": 2,
  "SliceTiming": [0, 0.4375, 0.0875, 0.525, 0.175, 0.6125, 0.2625, 0.7, 0.35, 0, 0.4375, 0.0875, 0.525, 0.175, 0.6125, 0.2625, 0.7, 0.35, 0, 0.4375, 0.0875, 0.525, 0.175, 0.6125, 0.2625, 0.7, 0.35, 0, 0.4375, 0.0875, 0.525, 0.175, 0.6125, 0.2625, 0.7, 0.35, 0, 0.4375, 0.0875, 0.525, 0.175, 0.6125, 0.2625, 0.7, 0.35, 0, 0.4375, 0.0875, 0.525, 0.175, 0.6125, 0.2625, 0.7, 0.35, 0, 0.4375, 0.0875, 0.525, 0.175, 0.6125, 0.2625, 0.7, 0.35, 0, 0.4375, 0.0875, 0.525, 0.175, 0.6125, 0.2625, 0.7, 0.35],
  "SoftwareVersions": "syngo MR B19",
  "SpacingBetweenSlices": 2,
  "StationName": "MRC35450",
  "TaskName": "cpro",
  "TotalReadoutTime": 0.0710717,
  "TxRefAmp": 337.31,
  "dcmmeta_affine": [
    [-1.9999356269836426, 1.4265000913837866e-07, -0.016052914783358574, 105.20269012451172],
    [0.006039819680154324, 1.853047490119934, -0.7524482607841492, -61.792930603027344],
    [-0.014873352833092213, 0.752472460269928, 1.8529878854751587, -146.2030792236328],
    [0.0, 0.0, 0.0, 1.0]
],
  "dcmmeta_reorient_transform": [
    [0.0, -1.0, 0.0, 103.0],
    [1.0, 0.0, 0.0, 0.0],
    [0.0, 0.0, 1.0, 0.0],
    [0.0, 0.0, 0.0, 1.0]
],
  "dcmmeta_shape": [104, 104, 72, 581],
  "dcmmeta_slice_dim": 2,
  "dcmmeta_version": 0.6,
  "global": {
    "const": {
      "AcquisitionMatrix": [104, 0, 0, 104],
      "AngioFlag": "N",
      "BitsAllocated": 16,
      "BitsStored": 12,
      "Columns": 936,
      "EchoNumbers": 1,
      "EchoTime": 34.8,
      "EchoTrainLength": 1,
      "FlipAngle": 55.0,
      "HighBit": 11,
      "ImageOrientationPatient": [0.9999677874766, -0.0030199099409, -0.0074366762134, 7.1325003e-08, 0.92652377139362, -0.3762362303694],
      "ImagePositionPatient": [-937.17596396929, -897.42617987152, 250.51744535879],
      "ImageType": [
        "ORIGINAL",
        "PRIMARY",
        "M",
        "MB",
        "ND",
        "MOSAIC"
],
      "ImagedNucleus": "1H",
      "ImagingFrequency": 123.234407,
      "InPlanePhaseEncodingDirection": "COL",
      "MRAcquisitionType": "2D",
      "MagneticFieldStrength": 3.0,
      "Manufacturer": "SIEMENS",
      "ManufacturerModelName": "TrioTim",
      "Modality": "MR",
      "NumberOfAverages": 1.0,
      "NumberOfPhaseEncodingSteps": 91,
      "PercentPhaseFieldOfView": 100.0,
      "PercentSampling": 100.0,
      "PerformedProcedureStepStartTime": "115734.265000",
      "PhotometricInterpretation": "MONOCHROME2",
      "PixelBandwidth": 1923.0,
      "PixelRepresentation": 0,
      "PixelSpacing": [2.0, 2.0],
      "ProtocolName": "cmrr_mbep2d_bold_2mm_MB8_Task_8x",
      "RepetitionTime": 785.0,
      "Rows": 936,
      "SAR": 0.13034647175688,
      "SamplesPerPixel": 1,
      "ScanOptions": [
        "PFP",
        "FS"
],
      "ScanningSequence": "EP",
      "SequenceName": "epfid2d1_104",
      "SequenceVariant": [
        "SK",
        "SS"
],
      "SeriesDescription": "cmrr_mbep2d_bold_2mm_MB8_Task_8x",
      "SeriesNumber": 21,
      "SeriesTime": "133855.046000",
      "SliceLocation": -113.05267704487,
      "SliceThickness": 2.0,
      "SmallestImagePixelValue": 0,
      "SoftwareVersions": "syngo MR B19",
      "SpacingBetweenSlices": 2.0000000547758,
      "SpecificCharacterSet": "ISO_IR 100",
      "StudyID": "1",
      "StudyTime": "115734.125000",
      "TransmitCoilName": "Body",
      "VariableFlipAngleFlag": "N",
      "WindowCenterWidthExplanation": "Algo1",
      "dBdt": 0.0},
    "slices": {}
  },
  "time": {
    "samples": {
      "AcquisitionNumber": [1, 2, 3, 4, 5, 6, 7, 8, 9, 10, 11, 12, 13, 14, 15, 16, 17, 18, 19, 20, 21, 22, 23, 24, 25, 26, 27, 28, 29, 30, 31, 32, 33, 34, 35, 36, 37, 38, 39, 40, 41, 42, 43, 44, 45, 46, 47, 48, 49, 50, 51, 52, 53, 54, 55, 56, 57, 58, 59, 60, 61, 62, 63, 64, 65, 66, 67, 68, 69, 70, 71, 72, 73, 74, 75, 76, 77, 78, 79, 80, 81, 82, 83, 84, 85, 86, 87, 88, 89, 90, 91, 92, 93, 94, 95, 96, 97, 98, 99, 100, 101, 102, 103, 104, 105, 106, 107, 108, 109, 110, 111, 112, 113, 114, 115, 116, 117, 118, 119, 120, 121, 122, 123, 124, 125, 126, 127, 128, 129, 130, 131, 132, 133, 134, 135, 136, 137, 138, 139, 140, 141, 142, 143, 144, 145, 146, 147, 148, 149, 150, 151, 152, 153, 154, 155, 156, 157, 158, 159, 160, 161, 162, 163, 164, 165, 166, 167, 168, 169, 170, 171, 172, 173, 174, 175, 176, 177, 178, 179, 180, 181, 182, 183, 184, 185, 186, 187, 188, 189, 190, 191, 192, 193, 194, 195, 196, 197, 198, 199, 200, 201, 202, 203, 204, 205, 206, 207, 208, 209, 210, 211, 212, 213, 214, 215, 216, 217, 218, 219, 220, 221, 222, 223, 224, 225, 226, 227, 228, 229, 230, 231, 232, 233, 234, 235, 236, 237, 238, 239, 240, 241, 242, 243, 244, 245, 246, 247, 248, 249, 250, 251, 252, 253, 254, 255, 256, 257, 258, 259, 260, 261, 262, 263, 264, 265, 266, 267, 268, 269, 270, 271, 272, 273, 274, 275, 276, 277, 278, 279, 280, 281, 282, 283, 284, 285, 286, 287, 288, 289, 290, 291, 292, 293, 294, 295, 296, 297, 298, 299, 300, 301, 302, 303, 304, 305, 306, 307, 308, 309, 310, 311, 312, 313, 314, 315, 316, 317, 318, 319, 320, 321, 322, 323, 324, 325, 326, 327, 328, 329, 330, 331, 332, 333, 334, 335, 336, 337, 338, 339, 340, 341, 342, 343, 344, 345, 346, 347, 348, 349, 350, 351, 352, 353, 354, 355, 356, 357, 358, 359, 360, 361, 362, 363, 364, 365, 366, 367, 368, 369, 370, 371, 372, 373, 374, 375, 376, 377, 378, 379, 380, 381, 382, 383, 384, 385, 386, 387, 388, 389, 390, 391, 392, 393, 394, 395, 396, 397, 398, 399, 400, 401, 402, 403, 404, 405, 406, 407, 408, 409, 410, 411, 412, 413, 414, 415, 416, 417, 418, 419, 420, 421, 422, 423, 424, 425, 426, 427, 428, 429, 430, 431, 432, 433, 434, 435, 436, 437, 438, 439, 440, 441, 442, 443, 444, 445, 446, 447, 448, 449, 450, 451, 452, 453, 454, 455, 456, 457, 458, 459, 460, 461, 462, 463, 464, 465, 466, 467, 468, 469, 470, 471, 472, 473, 474, 475, 476, 477, 478, 479, 480, 481, 482, 483, 484, 485, 486, 487, 488, 489, 490, 491, 492, 493, 494, 495, 496, 497, 498, 499, 500, 501, 502, 503, 504, 505, 506, 507, 508, 509, 510, 511, 512, 513, 514, 515, 516, 517, 518, 519, 520, 521, 522, 523, 524, 525, 526, 527, 528, 529, 530, 531, 532, 533, 534, 535, 536, 537, 538, 539, 540, 541, 542, 543, 544, 545, 546, 547, 548, 549, 550, 551, 552, 553, 554, 555, 556, 557, 558, 559, 560, 561, 562, 563, 564, 565, 566, 567, 568, 569, 570, 571, 572, 573, 574, 575, 576, 577, 578, 579, 580, 581],
      "AcquisitionTime": ["133834.707500", "133835.495000", "133836.282500", "133837.070000", "133837.860000", "133838.647500", "133839.435000", "133840.222500", "133841.012500", "133841.800000", "133842.587500", "133843.377500", "133844.165000", "133844.952500", "133845.740000", "133846.530000", "133847.317500", "133848.105000", "133848.892500", "133849.682500", "133850.470000", "133851.257500", "133852.045000", "133852.835000", "133853.622500", "133854.410000", "133855.197500", "133855.987500", "133856.775000", "133857.562500", "133858.350000", "133859.140000", "133859.927500", "133900.715000", "133901.505000", "133902.292500", "133903.080000", "133903.867500", "133904.657500", "133905.445000", "133906.232500", "133907.020000", "133907.810000", "133908.597500", "133909.385000", "133910.172500", "133910.962500", "133911.750000", "133912.537500", "133913.325000", "133914.115000", "133914.902500", "133915.690000", "133916.477500", "133917.267500", "133918.055000", "133918.842500", "133919.632500", "133920.420000", "133921.207500", "133921.995000", "133922.785000", "133923.572500", "133924.360000", "133925.147500", "133925.937500", "133926.725000", "133927.512500", "133928.300000", "133929.090000", "133929.877500", "133930.665000", "133931.452500", "133932.242500", "133933.030000", "133933.817500", "133934.605000", "133935.395000", "133936.182500", "133936.970000", "133937.760000", "133938.547500", "133939.335000", "133940.122500", "133940.912500", "133941.700000", "133942.487500", "133943.275000", "133944.065000", "133944.852500", "133945.640000", "133946.427500", "133947.217500", "133948.005000", "133948.792500", "133949.580000", "133950.370000", "133951.157500", "133951.945000", "133952.732500", "133953.522500", "133954.310000", "133955.097500", "133955.887500", "133956.675000", "133957.462500", "133958.250000", "133959.040000", "133959.827500", "134000.615000", "134001.402500", "134002.192500", "134002.980000", "134003.767500", "134004.555000", "134005.345000", "134006.132500", "134006.920000", "134007.707500", "134008.497500", "134009.285000", "134010.072500", "134010.860000", "134011.650000", "134012.437500", "134013.225000", "134014.015000", "134014.802500", "134015.590000", "134016.377500", "134017.167500", "134017.955000", "134018.742500", "134019.530000", "134020.320000", "134021.107500", "134021.895000", "134022.682500", "134023.472500", "134024.260000", "134025.047500", "134025.835000", "134026.625000", "134027.412500", "134028.200000", "134028.990000", "134029.777500", "134030.565000", "134031.352500", "134032.142500", "134032.930000", "134033.717500", "134034.505000", "134035.295000", "134036.082500", "134036.870000", "134037.657500", "134038.447500", "134039.235000", "134040.022500", "134040.810000", "134041.600000", "134042.387500", "134043.175000", "134043.962500", "134044.752500", "134045.540000", "134046.327500", "134047.117500", "134047.905000", "134048.692500", "134049.480000", "134050.270000", "134051.057500", "134051.845000", "134052.632500", "134053.422500", "134054.210000", "134054.997500", "134055.785000", "134056.575000", "134057.362500", "134058.150000", "134058.937500", "134059.727500", "134100.515000", "134101.302500", "134102.090000", "134102.880000", "134103.667500", "134104.455000", "134105.245000", "134106.032500", "134106.820000", "134107.607500", "134108.397500", "134109.185000", "134109.972500", "134110.760000", "134111.550000", "134112.337500", "134113.125000", "134113.912500", "134114.702500", "134115.490000", "134116.277500", "134117.065000", "134117.855000", "134118.642500", "134119.430000", "134120.217500", "134121.007500", "134121.795000", "134122.582500", "134123.372500", "134124.160000", "134124.947500", "134125.735000", "134126.525000", "134127.312500", "134128.100000", "134128.887500", "134129.677500", "134130.465000", "134131.252500", "134132.040000", "134132.830000", "134133.617500", "134134.405000", "134135.192500", "134135.982500", "134136.770000", "134137.557500", "134138.345000", "134139.135000", "134139.922500", "134140.710000", "134141.500000", "134142.287500", "134143.075000", "134143.862500", "134144.652500", "134145.440000", "134146.227500", "134147.015000", "134147.805000", "134148.592500", "134149.380000", "134150.167500", "134150.957500", "134151.745000", "134152.532500", "134153.320000", "134154.110000", "134154.897500", "134155.685000", "134156.472500", "134157.262500", "134158.050000", "134158.837500", "134159.627500", "134200.415000", "134201.202500", "134201.990000", "134202.780000", "134203.567500", "134204.355000", "134205.142500", "134205.932500", "134206.720000", "134207.507500", "134208.295000", "134209.085000", "134209.872500", "134210.660000", "134211.447500", "134212.237500", "134213.025000", "134213.812500", "134214.600000", "134215.390000", "134216.177500", "134216.965000", "134217.755000", "134218.542500", "134219.330000", "134220.117500", "134220.907500", "134221.695000", "134222.482500", "134223.270000", "134224.060000", "134224.847500", "134225.635000", "134226.422500", "134227.212500", "134228.000000", "134228.787500", "134229.575000", "134230.365000", "134231.152500", "134231.940000", "134232.727500", "134233.517500", "134234.305000", "134235.092500", "134235.882500", "134236.670000", "134237.457500", "134238.245000", "134239.035000", "134239.822500", "134240.610000", "134241.397500", "134242.187500", "134242.975000", "134243.762500", "134244.550000", "134245.340000", "134246.127500", "134246.915000", "134247.702500", "134248.492500", "134249.280000", "134250.067500", "134250.855000", "134251.645000", "134252.432500", "134253.220000", "134254.010000", "134254.797500", "134255.585000", "134256.372500", "134257.162500", "134257.950000", "134258.737500", "134259.525000", "134300.315000", "134301.102500", "134301.890000", "134302.677500", "134303.467500", "134304.255000", "134305.042500", "134305.830000", "134306.620000", "134307.407500", "134308.195000", "134308.982500", "134309.772500", "134310.560000", "134311.347500", "134312.137500", "134312.925000", "134313.712500", "134314.500000", "134315.290000", "134316.077500", "134316.865000", "134317.652500", "134318.442500", "134319.230000", "134320.017500", "134320.805000", "134321.595000", "134322.382500", "134323.170000", "134323.957500", "134324.747500", "134325.535000", "134326.322500", "134327.110000", "134327.900000", "134328.687500", "134329.475000", "134330.265000", "134331.052500", "134331.840000", "134332.627500", "134333.417500", "134334.205000", "134334.992500", "134335.780000", "134336.570000", "134337.357500", "134338.145000", "134338.932500", "134339.722500", "134340.510000", "134341.297500", "134342.085000", "134342.875000", "134343.662500", "134344.450000", "134345.240000", "134346.027500", "134346.815000", "134347.602500", "134348.392500", "134349.180000", "134349.967500", "134350.755000", "134351.545000", "134352.332500", "134353.120000", "134353.907500", "134354.697500", "134355.485000", "134356.272500", "134357.060000", "134357.850000", "134358.637500", "134359.425000", "134400.212500", "134401.002500", "134401.790000", "134402.577500", "134403.367500", "134404.155000", "134404.942500", "134405.730000", "134406.520000", "134407.307500", "134408.095000", "134408.882500", "134409.672500", "134410.460000", "134411.247500", "134412.035000", "134412.825000", "134413.612500", "134414.400000", "134415.187500", "134415.977500", "134416.765000", "134417.552500", "134418.340000", "134419.130000", "134419.917500", "134420.705000", "134421.495000", "134422.282500", "134423.070000", "134423.857500", "134424.647500", "134425.435000", "134426.222500", "134427.010000", "134427.800000", "134428.587500", "134429.375000", "134430.162500", "134430.952500", "134431.740000", "134432.527500", "134433.315000", "134434.105000", "134434.892500", "134435.680000", "134436.467500", "134437.257500", "134438.045000", "134438.832500", "134439.622500", "134440.410000", "134441.197500", "134441.985000", "134442.775000", "134443.562500", "134444.350000", "134445.137500", "134445.927500", "134446.715000", "134447.502500", "134448.290000", "134449.080000", "134449.867500", "134450.655000", "134451.442500", "134452.232500", "134453.020000", "134453.807500", "134454.595000", "134455.385000", "134456.172500", "134456.960000", "134457.750000", "134458.537500", "134459.325000", "134500.112500", "134500.902500", "134501.690000", "134502.477500", "134503.265000", "134504.055000", "134504.842500", "134505.630000", "134506.417500", "134507.207500", "134507.995000", "134508.782500", "134509.570000", "134510.360000", "134511.147500", "134511.935000", "134512.722500", "134513.512500", "134514.300000", "134515.087500", "134515.877500", "134516.665000", "134517.452500", "134518.240000", "134519.030000", "134519.817500", "134520.605000", "134521.392500", "134522.182500", "134522.970000", "134523.757500", "134524.545000", "134525.335000", "134526.122500", "134526.910000", "134527.697500", "134528.487500", "134529.275000", "134530.062500", "134530.850000", "134531.640000", "134532.427500", "134533.215000", "134534.005000", "134534.792500", "134535.580000", "134536.367500", "134537.157500", "134537.945000", "134538.732500", "134539.520000", "134540.310000", "134541.097500", "134541.885000", "134542.672500", "134543.462500", "134544.250000", "134545.037500", "134545.825000", "134546.615000", "134547.402500", "134548.190000", "134548.977500", "134549.767500", "134550.555000", "134551.342500", "134552.132500", "134552.920000", "134553.707500", "134554.495000", "134555.285000", "134556.072500", "134556.860000", "134557.647500", "134558.437500", "134559.225000", "134600.012500", "134600.800000", "134601.590000", "134602.377500", "134603.165000", "134603.952500", "134604.742500", "134605.530000", "134606.317500", "134607.105000", "134607.895000", "134608.682500", "134609.470000", "134610.260000", "134611.047500", "134611.835000"],
      "ContentTime": ["133855.062000", "133855.062000", "133855.062000", "133855.062000", "133855.062000", "133855.062000", "133855.062000", "133855.078000", "133855.078000", "133855.078000", "133855.078000", "133855.078000", "133855.078000", "133855.093000", "133855.093000", "133855.093000", "133855.093000", "133855.093000", "133855.093000", "133855.093000", "133855.109000", "133855.109000", "133855.109000", "133915.031000", "133915.031000", "133915.046000", "133915.046000", "133915.046000", "133915.046000", "133915.046000", "133915.046000", "133915.046000", "133915.062000", "133915.062000", "133915.062000", "133915.062000", "133915.062000", "133915.062000", "133915.062000", "133915.078000", "133915.078000", "133915.078000", "133915.078000", "133915.078000", "133915.078000", "133915.093000", "133915.093000", "133915.093000", "133935.031000", "133935.031000", "133935.046000", "133935.046000", "133935.046000", "133935.046000", "133935.046000", "133935.046000", "133935.046000", "133935.062000", "133935.062000", "133935.062000", "133935.062000", "133935.062000", "133935.078000", "133935.078000", "133935.078000", "133935.078000", "133935.078000", "133935.078000", "133935.078000", "133935.093000", "133935.093000", "133935.093000", "133935.093000", "133935.093000", "133955.031000", "133955.031000", "133955.046000", "133955.046000", "133955.046000", "133955.046000", "133955.046000", "133955.046000", "133955.046000", "133955.062000", "133955.062000", "133955.062000", "133955.062000", "133955.078000", "133955.078000", "133955.078000", "133955.078000", "133955.078000", "133955.078000", "133955.078000", "133955.093000", "133955.093000", "133955.093000", "133955.093000", "133955.093000", "134015.031000", "134015.031000", "134015.046000", "134015.046000", "134015.046000", "134015.046000", "134015.046000", "134015.046000", "134015.046000", "134015.062000", "134015.062000", "134015.062000", "134015.062000", "134015.062000", "134015.062000", "134015.062000", "134015.078000", "134015.078000", "134015.078000", "134015.078000", "134015.078000", "134015.078000", "134015.093000", "134015.093000", "134015.093000", "134015.093000", "134035.031000", "134035.031000", "134035.046000", "134035.046000", "134035.046000", "134035.046000", "134035.046000", "134035.046000", "134035.046000", "134035.062000", "134035.062000", "134035.062000", "134035.062000", "134035.062000", "134035.062000", "134035.062000", "134035.078000", "134035.078000", "134035.078000", "134035.078000", "134035.078000", "134035.078000", "134035.093000", "134035.093000", "134035.093000", "134055.031000", "134055.031000", "134055.046000", "134055.046000", "134055.046000", "134055.046000", "134055.046000", "134055.046000", "134055.046000", "134055.062000", "134055.062000", "134055.062000", "134055.062000", "134055.062000", "134055.062000", "134055.062000", "134055.078000", "134055.078000", "134055.078000", "134055.078000", "134055.078000", "134055.078000", "134055.078000", "134055.093000", "134055.093000", "134055.093000", "134115.031000", "134115.031000", "134115.046000", "134115.046000", "134115.046000", "134115.046000", "134115.046000", "134115.046000", "134115.046000", "134115.062000", "134115.062000", "134115.062000", "134115.062000", "134115.062000", "134115.062000", "134115.062000", "134115.078000", "134115.078000", "134115.078000", "134115.078000", "134115.078000", "134115.078000", "134115.078000", "134115.093000", "134115.093000", "134135.031000", "134135.031000", "134135.046000", "134135.046000", "134135.046000", "134135.046000", "134135.046000", "134135.046000", "134135.046000", "134135.062000", "134135.062000", "134135.062000", "134135.062000", "134135.062000", "134135.062000", "134135.062000", "134135.078000", "134135.078000", "134135.078000", "134135.078000", "134135.078000", "134135.078000", "134135.078000", "134135.093000", "134135.093000", "134135.093000", "134155.031000", "134155.031000", "134155.046000", "134155.046000", "134155.046000", "134155.046000", "134155.046000", "134155.046000", "134155.046000", "134155.062000", "134155.062000", "134155.062000", "134155.062000", "134155.062000", "134155.078000", "134155.078000", "134155.078000", "134155.078000", "134155.078000", "134155.078000", "134155.093000", "134155.093000", "134155.093000", "134155.093000", "134155.093000", "134215.031000", "134215.031000", "134215.046000", "134215.046000", "134215.046000", "134215.046000", "134215.046000", "134215.046000", "134215.046000", "134215.062000", "134215.062000", "134215.062000", "134215.062000", "134215.062000", "134215.078000", "134215.078000", "134215.078000", "134215.078000", "134215.078000", "134215.078000", "134215.093000", "134215.093000", "134215.093000", "134215.093000", "134215.093000", "134215.093000", "134235.031000", "134235.031000", "134235.046000", "134235.046000", "134235.046000", "134235.046000", "134235.046000", "134235.046000", "134235.062000", "134235.062000", "134235.062000", "134235.062000", "134235.062000", "134235.062000", "134235.078000", "134235.078000", "134235.078000", "134235.078000", "134235.093000", "134235.093000", "134235.093000", "134235.093000", "134235.093000", "134235.093000", "134235.109000", "134255.031000", "134255.031000", "134255.046000", "134255.046000", "134255.046000", "134255.046000", "134255.046000", "134255.046000", "134255.046000", "134255.062000", "134255.062000", "134255.062000", "134255.062000", "134255.062000", "134255.062000", "134255.062000", "134255.078000", "134255.078000", "134255.078000", "134255.078000", "134255.078000", "134255.078000", "134255.093000", "134255.093000", "134255.093000", "134255.093000", "134315.031000", "134315.031000", "134315.046000", "134315.046000", "134315.046000", "134315.046000", "134315.046000", "134315.046000", "134315.046000", "134315.062000", "134315.062000", "134315.062000", "134315.062000", "134315.062000", "134315.062000", "134315.062000", "134315.078000", "134315.078000", "134315.078000", "134315.078000", "134315.078000", "134315.078000", "134315.093000", "134315.093000", "134315.093000", "134335.031000", "134335.031000", "134335.046000", "134335.046000", "134335.046000", "134335.046000", "134335.046000", "134335.046000", "134335.046000", "134335.062000", "134335.062000", "134335.062000", "134335.062000", "134335.062000", "134335.062000", "134335.078000", "134335.078000", "134335.078000", "134335.078000", "134335.078000", "134335.078000", "134335.078000", "134335.093000", "134335.093000", "134335.093000", "134335.093000", "134355.031000", "134355.031000", "134355.046000", "134355.046000", "134355.046000", "134355.046000", "134355.046000", "134355.062000", "134355.062000", "134355.062000", "134355.062000", "134355.062000", "134355.062000", "134355.062000", "134355.078000", "134355.078000", "134355.078000", "134355.078000", "134355.078000", "134355.078000", "134355.078000", "134355.093000", "134355.093000", "134355.093000", "134355.093000", "134415.031000", "134415.031000", "134415.046000", "134415.046000", "134415.046000", "134415.046000", "134415.046000", "134415.046000", "134415.046000", "134415.062000", "134415.062000", "134415.062000", "134415.062000", "134415.062000", "134415.062000", "134415.078000", "134415.078000", "134415.078000", "134415.078000", "134415.078000", "134415.078000", "134415.078000", "134415.093000", "134415.093000", "134415.093000", "134415.093000", "134435.031000", "134435.031000", "134435.046000", "134435.046000", "134435.046000", "134435.046000", "134435.046000", "134435.046000", "134435.046000", "134435.062000", "134435.062000", "134435.062000", "134435.062000", "134435.062000", "134435.062000", "134435.078000", "134435.078000", "134435.078000", "134435.078000", "134435.078000", "134435.078000", "134435.093000", "134435.093000", "134435.093000", "134435.093000", "134455.031000", "134455.031000", "134455.046000", "134455.046000", "134455.046000", "134455.046000", "134455.046000", "134455.062000", "134455.062000", "134455.062000", "134455.062000", "134455.062000", "134455.062000", "134455.062000", "134455.078000", "134455.078000", "134455.078000", "134455.078000", "134455.078000", "134455.078000", "134455.078000", "134455.093000", "134455.093000", "134455.093000", "134455.093000", "134455.093000", "134515.031000", "134515.031000", "134515.046000", "134515.046000", "134515.046000", "134515.046000", "134515.046000", "134515.046000", "134515.062000", "134515.062000", "134515.062000", "134515.062000", "134515.062000", "134515.062000", "134515.078000", "134515.078000", "134515.078000", "134515.078000", "134515.078000", "134515.078000", "134515.093000", "134515.093000", "134515.093000", "134515.093000", "134515.093000", "134535.031000", "134535.031000", "134535.046000", "134535.046000", "134535.046000", "134535.046000", "134535.046000", "134535.046000", "134535.046000", "134535.062000", "134535.062000", "134535.062000", "134535.062000", "134535.062000", "134535.062000", "134535.062000", "134535.078000", "134535.078000", "134535.078000", "134535.078000", "134535.078000", "134535.078000", "134535.078000", "134535.093000", "134535.093000", "134535.093000", "134555.031000", "134555.031000", "134555.046000", "134555.046000", "134555.046000", "134555.046000", "134555.046000", "134555.046000", "134555.046000", "134555.062000", "134555.062000", "134555.062000", "134555.062000", "134555.062000", "134555.062000", "134555.062000", "134555.078000", "134555.078000", "134555.078000", "134555.078000", "134555.078000", "134555.078000", "134555.078000", "134555.093000", "134555.093000", "134612.640000", "134612.640000", "134612.640000", "134612.656000", "134612.656000", "134612.656000", "134612.656000", "134612.656000", "134612.656000", "134612.656000", "134612.671000", "134612.671000", "134612.671000", "134612.671000", "134612.671000", "134612.671000", "134612.687000", "134612.687000", "134612.687000", "134612.687000", "134612.687000", "134612.703000", "134612.703000"],
      "DataSetTrailingPadding": [
        "\u0000\u0000\u0000\u0000\u0000\u0000\u0000\u0000\u0000\u0000\u0000\u0000\u0000\u0000",
        "\u0000\u0000\u0000\u0000\u0000\u0000\u0000\u0000\u0000\u0000",
        "\u0000\u0000\u0000\u0000\u0000\u0000\u0000\u0000\u0000\u0000\u0000\u0000",
        "\u0000\u0000\u0000\u0000\u0000\u0000\u0000\u0000\u0000\u0000",
        "\u0000\u0000\u0000\u0000\u0000\u0000\u0000\u0000\u0000\u0000",
        "\u0000\u0000\u0000\u0000\u0000\u0000\u0000\u0000\u0000\u0000\u0000\u0000\u0000\u0000",
        "\u0000\u0000\u0000\u0000\u0000\u0000\u0000\u0000\u0000\u0000",
        "\u0000\u0000\u0000\u0000\u0000\u0000\u0000\u0000\u0000\u0000\u0000\u0000",
        "\u0000\u0000\u0000\u0000\u0000\u0000\u0000\u0000\u0000\u0000\u0000\u0000",
        "\u0000\u0000\u0000\u0000\u0000\u0000",
        "\u0000\u0000\u0000\u0000\u0000\u0000\u0000\u0000",
        "\u0000\u0000\u0000\u0000\u0000\u0000\u0000\u0000",
        "\u0000\u0000\u0000\u0000\u0000\u0000",
        "\u0000\u0000\u0000\u0000\u0000\u0000\u0000\u0000",
        "\u0000\u0000\u0000\u0000\u0000\u0000",
        "\u0000\u0000\u0000\u0000\u0000\u0000\u0000\u0000",
        "\u0000\u0000\u0000\u0000\u0000\u0000\u0000\u0000",
        "\u0000\u0000\u0000\u0000\u0000\u0000",
        "\u0000\u0000\u0000\u0000\u0000\u0000\u0000\u0000",
        "\u0000\u0000\u0000\u0000\u0000\u0000\u0000\u0000",
        "\u0000\u0000\u0000\u0000\u0000\u0000",
        "\u0000\u0000\u0000\u0000\u0000\u0000\u0000\u0000",
        "\u0000\u0000\u0000\u0000\u0000\u0000",
        "\u0000\u0000\u0000\u0000\u0000\u0000",
        "\u0000\u0000\u0000\u0000\u0000\u0000\u0000\u0000",
        "\u0000\u0000\u0000\u0000\u0000\u0000\u0000\u0000\u0000\u0000",
        "\u0000\u0000\u0000\u0000\u0000\u0000\u0000\u0000",
        "\u0000\u0000\u0000\u0000\u0000\u0000\u0000\u0000",
        "\u0000\u0000\u0000\u0000\u0000\u0000",
        "\u0000\u0000\u0000\u0000\u0000\u0000\u0000\u0000",
        "\u0000\u0000\u0000\u0000\u0000\u0000",
