{
  "AcquisitionMatrixPE": 104,
  "AcquisitionNumber": 1,
  "AcquisitionTime": "13:05:31.757500",
  "BandwidthPerPixelPhaseEncode": 13.935,
  "BaseResolution": 104,
  "CoilString": "C:HEA;HEP",
  "ConversionSoftware": "dcm2niix",
  "ConversionSoftwareVersion": "v1.0.20210317",
  "DerivedVendorReportedEchoSpacing": 0.000690017,
  "DeviceSerialNumber": "35450",
  "DwellTime": 2.5e-06,
  "EchoTime": 0.0348,
  "EffectiveEchoSpacing": 0.000690017,
  "FlipAngle": 55,
  "ImageComments": "Unaliased MB8/PE3 (remote)",
  "ImageOrientationPatientDICOM": [0.999968, -0.00301991, -0.00743668, 7.1325e-08, 0.926524, -0.376236],
  "ImageType": [
    "ORIGINAL",
    "PRIMARY",
    "M",
    "MB",
    "ND",
    "MOSAIC"
],
  "ImagingFrequency": 123.234,
  "InPlanePhaseEncodingDirectionDICOM": "COL",
  "InstitutionAddress": "Univeristy Ave. 197,Newark,North East,US,07102-1814",
  "InstitutionName": "RUBIC",
  "InstitutionalDepartmentName": "Department",
  "MRAcquisitionType": "2D",
  "MagneticFieldStrength": 3,
  "Manufacturer": "Siemens",
  "ManufacturersModelName": "TrioTim",
  "Modality": "MR",
  "MultibandAccelerationFactor": 8,
  "PartialFourier": 0.875,
  "PatientPosition": "HFS",
  "PercentPhaseFOV": 100,
  "PercentSampling": 100,
  "PhaseEncodingDirection": "j-",
  "PhaseEncodingSteps": 91,
  "PhaseResolution": 1,
  "PixelBandwidth": 1923,
  "ProcedureStepDescription": "Cole^Michael",
  "ProtocolName": "cmrr_mbep2d_bold_2mm_MB8_Task_8x",
  "PulseSequenceDetails": "%CustomerSeq%\\cmrr_mbep2d_bold",
  "ReceiveCoilName": "32Ch_Head",
  "ReconMatrixPE": 104,
  "RepetitionTime": 0.785,
  "SAR": 0.139409,
  "ScanOptions": "PFP\\FS",
  "ScanningSequence": "EP",
  "SequenceName": "epfid2d1_104",
  "SequenceVariant": "SK\\SS",
  "SeriesDescription": "cmrr_mbep2d_bold_2mm_MB8_Task_8x",
  "SeriesNumber": 13,
  "ShimSetting": [2118, -303, -7371, 461, 84, -486, -118, 86],
  "SliceThickness": 2,
  "SliceTiming": [0, 0.4375, 0.0875, 0.525, 0.175, 0.6125, 0.2625, 0.7, 0.35, 0, 0.4375, 0.0875, 0.525, 0.175, 0.6125, 0.2625, 0.7, 0.35, 0, 0.4375, 0.0875, 0.525, 0.175, 0.6125, 0.2625, 0.7, 0.35, 0, 0.4375, 0.0875, 0.525, 0.175, 0.6125, 0.2625, 0.7, 0.35, 0, 0.4375, 0.0875, 0.525, 0.175, 0.6125, 0.2625, 0.7, 0.35, 0, 0.4375, 0.0875, 0.525, 0.175, 0.6125, 0.2625, 0.7, 0.35, 0, 0.4375, 0.0875, 0.525, 0.175, 0.6125, 0.2625, 0.7, 0.35, 0, 0.4375, 0.0875, 0.525, 0.175, 0.6125, 0.2625, 0.7, 0.35],
  "SoftwareVersions": "syngo MR B19",
  "SpacingBetweenSlices": 2,
  "StationName": "MRC35450",
  "TaskName": "cpro",
  "TotalReadoutTime": 0.0710717,
  "TxRefAmp": 337.31,
  "dcmmeta_affine": [
    [-1.9999356269836426, 1.4265000913837866e-07, -0.016052914783358574, 105.20269012451172],
    [0.006039819680154324, 1.853047490119934, -0.7524482607841492, -61.792930603027344],
    [-0.014873352833092213, 0.752472460269928, 1.8529878854751587, -146.2030792236328],
    [0.0, 0.0, 0.0, 1.0]
],
  "dcmmeta_reorient_transform": [
    [0.0, -1.0, 0.0, 103.0],
    [1.0, 0.0, 0.0, 0.0],
    [0.0, 0.0, 1.0, 0.0],
    [0.0, 0.0, 0.0, 1.0]
],
  "dcmmeta_shape": [104, 104, 72, 581],
  "dcmmeta_slice_dim": 2,
  "dcmmeta_version": 0.6,
  "global": {
    "const": {
      "AcquisitionMatrix": [104, 0, 0, 104],
      "AngioFlag": "N",
      "BitsAllocated": 16,
      "BitsStored": 12,
      "Columns": 936,
      "EchoNumbers": 1,
      "EchoTime": 34.8,
      "EchoTrainLength": 1,
      "FlipAngle": 55.0,
      "HighBit": 11,
      "ImageOrientationPatient": [0.9999677874766, -0.0030199099409, -0.0074366762134, 7.1325003e-08, 0.92652377139362, -0.3762362303694],
      "ImagePositionPatient": [-937.17596396929, -897.42617987152, 250.51744535879],
      "ImageType": [
        "ORIGINAL",
        "PRIMARY",
        "M",
        "MB",
        "ND",
        "MOSAIC"
],
      "ImagedNucleus": "1H",
      "ImagingFrequency": 123.234407,
      "InPlanePhaseEncodingDirection": "COL",
      "MRAcquisitionType": "2D",
      "MagneticFieldStrength": 3.0,
      "Manufacturer": "SIEMENS",
      "ManufacturerModelName": "TrioTim",
      "Modality": "MR",
      "NumberOfAverages": 1.0,
      "NumberOfPhaseEncodingSteps": 91,
      "PercentPhaseFieldOfView": 100.0,
      "PercentSampling": 100.0,
      "PerformedProcedureStepStartTime": "115734.265000",
      "PhotometricInterpretation": "MONOCHROME2",
      "PixelBandwidth": 1923.0,
      "PixelRepresentation": 0,
      "PixelSpacing": [2.0, 2.0],
      "ProtocolName": "cmrr_mbep2d_bold_2mm_MB8_Task_8x",
      "RepetitionTime": 785.0,
      "Rows": 936,
      "SAR": 0.13940910508563,
      "SamplesPerPixel": 1,
      "ScanOptions": [
        "PFP",
        "FS"
],
      "ScanningSequence": "EP",
      "SequenceName": "epfid2d1_104",
      "SequenceVariant": [
        "SK",
        "SS"
],
      "SeriesDescription": "cmrr_mbep2d_bold_2mm_MB8_Task_8x",
      "SeriesNumber": 13,
      "SeriesTime": "130556.125000",
      "SliceLocation": -113.05267704487,
      "SliceThickness": 2.0,
      "SmallestImagePixelValue": 0,
      "SoftwareVersions": "syngo MR B19",
      "SpacingBetweenSlices": 2.0000000547758,
      "SpecificCharacterSet": "ISO_IR 100",
      "StudyID": "1",
      "StudyTime": "115734.125000",
      "TransmitCoilName": "Body",
      "VariableFlipAngleFlag": "N",
      "WindowCenterWidthExplanation": "Algo1",
      "dBdt": 0.0},
    "slices": {}
  },
  "time": {
    "samples": {
      "AcquisitionNumber": [1, 2, 3, 4, 5, 6, 7, 8, 9, 10, 11, 12, 13, 14, 15, 16, 17, 18, 19, 20, 21, 22, 23, 24, 25, 26, 27, 28, 29, 30, 31, 32, 33, 34, 35, 36, 37, 38, 39, 40, 41, 42, 43, 44, 45, 46, 47, 48, 49, 50, 51, 52, 53, 54, 55, 56, 57, 58, 59, 60, 61, 62, 63, 64, 65, 66, 67, 68, 69, 70, 71, 72, 73, 74, 75, 76, 77, 78, 79, 80, 81, 82, 83, 84, 85, 86, 87, 88, 89, 90, 91, 92, 93, 94, 95, 96, 97, 98, 99, 100, 101, 102, 103, 104, 105, 106, 107, 108, 109, 110, 111, 112, 113, 114, 115, 116, 117, 118, 119, 120, 121, 122, 123, 124, 125, 126, 127, 128, 129, 130, 131, 132, 133, 134, 135, 136, 137, 138, 139, 140, 141, 142, 143, 144, 145, 146, 147, 148, 149, 150, 151, 152, 153, 154, 155, 156, 157, 158, 159, 160, 161, 162, 163, 164, 165, 166, 167, 168, 169, 170, 171, 172, 173, 174, 175, 176, 177, 178, 179, 180, 181, 182, 183, 184, 185, 186, 187, 188, 189, 190, 191, 192, 193, 194, 195, 196, 197, 198, 199, 200, 201, 202, 203, 204, 205, 206, 207, 208, 209, 210, 211, 212, 213, 214, 215, 216, 217, 218, 219, 220, 221, 222, 223, 224, 225, 226, 227, 228, 229, 230, 231, 232, 233, 234, 235, 236, 237, 238, 239, 240, 241, 242, 243, 244, 245, 246, 247, 248, 249, 250, 251, 252, 253, 254, 255, 256, 257, 258, 259, 260, 261, 262, 263, 264, 265, 266, 267, 268, 269, 270, 271, 272, 273, 274, 275, 276, 277, 278, 279, 280, 281, 282, 283, 284, 285, 286, 287, 288, 289, 290, 291, 292, 293, 294, 295, 296, 297, 298, 299, 300, 301, 302, 303, 304, 305, 306, 307, 308, 309, 310, 311, 312, 313, 314, 315, 316, 317, 318, 319, 320, 321, 322, 323, 324, 325, 326, 327, 328, 329, 330, 331, 332, 333, 334, 335, 336, 337, 338, 339, 340, 341, 342, 343, 344, 345, 346, 347, 348, 349, 350, 351, 352, 353, 354, 355, 356, 357, 358, 359, 360, 361, 362, 363, 364, 365, 366, 367, 368, 369, 370, 371, 372, 373, 374, 375, 376, 377, 378, 379, 380, 381, 382, 383, 384, 385, 386, 387, 388, 389, 390, 391, 392, 393, 394, 395, 396, 397, 398, 399, 400, 401, 402, 403, 404, 405, 406, 407, 408, 409, 410, 411, 412, 413, 414, 415, 416, 417, 418, 419, 420, 421, 422, 423, 424, 425, 426, 427, 428, 429, 430, 431, 432, 433, 434, 435, 436, 437, 438, 439, 440, 441, 442, 443, 444, 445, 446, 447, 448, 449, 450, 451, 452, 453, 454, 455, 456, 457, 458, 459, 460, 461, 462, 463, 464, 465, 466, 467, 468, 469, 470, 471, 472, 473, 474, 475, 476, 477, 478, 479, 480, 481, 482, 483, 484, 485, 486, 487, 488, 489, 490, 491, 492, 493, 494, 495, 496, 497, 498, 499, 500, 501, 502, 503, 504, 505, 506, 507, 508, 509, 510, 511, 512, 513, 514, 515, 516, 517, 518, 519, 520, 521, 522, 523, 524, 525, 526, 527, 528, 529, 530, 531, 532, 533, 534, 535, 536, 537, 538, 539, 540, 541, 542, 543, 544, 545, 546, 547, 548, 549, 550, 551, 552, 553, 554, 555, 556, 557, 558, 559, 560, 561, 562, 563, 564, 565, 566, 567, 568, 569, 570, 571, 572, 573, 574, 575, 576, 577, 578, 579, 580, 581],
      "AcquisitionTime": ["130531.757500", "130532.545000", "130533.335000", "130534.122500", "130534.910000", "130535.697500", "130536.487500", "130537.275000", "130538.062500", "130538.850000", "130539.640000", "130540.427500", "130541.215000", "130542.002500", "130542.792500", "130543.580000", "130544.367500", "130545.155000", "130545.945000", "130546.732500", "130547.520000", "130548.307500", "130549.097500", "130549.885000", "130550.672500", "130551.462500", "130552.250000", "130553.037500", "130553.825000", "130554.615000", "130555.402500", "130556.190000", "130556.977500", "130557.767500", "130558.555000", "130559.342500", "130600.130000", "130600.920000", "130601.707500", "130602.495000", "130603.282500", "130604.072500", "130604.860000", "130605.647500", "130606.435000", "130607.225000", "130608.012500", "130608.800000", "130609.590000", "130610.377500", "130611.165000", "130611.952500", "130612.742500", "130613.530000", "130614.317500", "130615.105000", "130615.895000", "130616.682500", "130617.470000", "130618.257500", "130619.047500", "130619.835000", "130620.622500", "130621.410000", "130622.200000", "130622.987500", "130623.775000", "130624.562500", "130625.352500", "130626.140000", "130626.927500", "130627.717500", "130628.505000", "130629.292500", "130630.080000", "130630.870000", "130631.657500", "130632.445000", "130633.232500", "130634.022500", "130634.810000", "130635.597500", "130636.385000", "130637.175000", "130637.962500", "130638.750000", "130639.537500", "130640.327500", "130641.115000", "130641.902500", "130642.690000", "130643.480000", "130644.267500", "130645.055000", "130645.845000", "130646.632500", "130647.420000", "130648.207500", "130648.997500", "130649.785000", "130650.572500", "130651.360000", "130652.150000", "130652.937500", "130653.725000", "130654.512500", "130655.302500", "130656.090000", "130656.877500", "130657.665000", "130658.455000", "130659.242500", "130700.030000", "130700.817500", "130701.607500", "130702.395000", "130703.182500", "130703.972500", "130704.760000", "130705.547500", "130706.335000", "130707.125000", "130707.912500", "130708.700000", "130709.487500", "130710.277500", "130711.065000", "130711.852500", "130712.640000", "130713.430000", "130714.217500", "130715.005000", "130715.792500", "130716.582500", "130717.370000", "130718.157500", "130718.945000", "130719.735000", "130720.522500", "130721.310000", "130722.100000", "130722.887500", "130723.675000", "130724.462500", "130725.252500", "130726.040000", "130726.827500", "130727.615000", "130728.405000", "130729.192500", "130729.980000", "130730.767500", "130731.557500", "130732.345000", "130733.132500", "130733.920000", "130734.710000", "130735.497500", "130736.285000", "130737.072500", "130737.862500", "130738.650000", "130739.437500", "130740.227500", "130741.015000", "130741.802500", "130742.590000", "130743.380000", "130744.167500", "130744.955000", "130745.742500", "130746.532500", "130747.320000", "130748.107500", "130748.895000", "130749.685000", "130750.472500", "130751.260000", "130752.047500", "130752.837500", "130753.625000", "130754.412500", "130755.200000", "130755.990000", "130756.777500", "130757.565000", "130758.355000", "130759.142500", "130759.930000", "130800.717500", "130801.507500", "130802.295000", "130803.082500", "130803.870000", "130804.660000", "130805.447500", "130806.235000", "130807.022500", "130807.812500", "130808.600000", "130809.387500", "130810.175000", "130810.965000", "130811.752500", "130812.540000", "130813.330000", "130814.117500", "130814.905000", "130815.692500", "130816.482500", "130817.270000", "130818.057500", "130818.845000", "130819.635000", "130820.422500", "130821.210000", "130821.997500", "130822.787500", "130823.575000", "130824.362500", "130825.150000", "130825.940000", "130826.727500", "130827.515000", "130828.302500", "130829.092500", "130829.880000", "130830.667500", "130831.457500", "130832.245000", "130833.032500", "130833.820000", "130834.610000", "130835.397500", "130836.185000", "130836.972500", "130837.762500", "130838.550000", "130839.337500", "130840.125000", "130840.915000", "130841.702500", "130842.490000", "130843.277500", "130844.067500", "130844.855000", "130845.642500", "130846.430000", "130847.220000", "130848.007500", "130848.795000", "130849.585000", "130850.372500", "130851.160000", "130851.947500", "130852.737500", "130853.525000", "130854.312500", "130855.100000", "130855.890000", "130856.677500", "130857.465000", "130858.252500", "130859.042500", "130859.830000", "130900.617500", "130901.405000", "130902.195000", "130902.982500", "130903.770000", "130904.557500", "130905.347500", "130906.135000", "130906.922500", "130907.712500", "130908.500000", "130909.287500", "130910.075000", "130910.865000", "130911.652500", "130912.440000", "130913.227500", "130914.017500", "130914.805000", "130915.592500", "130916.380000", "130917.170000", "130917.957500", "130918.745000", "130919.532500", "130920.322500", "130921.110000", "130921.897500", "130922.685000", "130923.475000", "130924.262500", "130925.050000", "130925.840000", "130926.627500", "130927.415000", "130928.202500", "130928.992500", "130929.780000", "130930.567500", "130931.355000", "130932.145000", "130932.932500", "130933.720000", "130934.507500", "130935.297500", "130936.085000", "130936.872500", "130937.660000", "130938.450000", "130939.237500", "130940.025000", "130940.812500", "130941.602500", "130942.390000", "130943.177500", "130943.967500", "130944.755000", "130945.542500", "130946.330000", "130947.120000", "130947.907500", "130948.695000", "130949.482500", "130950.272500", "130951.060000", "130951.847500", "130952.635000", "130953.425000", "130954.212500", "130955.000000", "130955.787500", "130956.577500", "130957.365000", "130958.152500", "130958.940000", "130959.730000", "131000.517500", "131001.305000", "131002.095000", "131002.882500", "131003.670000", "131004.457500", "131005.247500", "131006.035000", "131006.822500", "131007.610000", "131008.400000", "131009.187500", "131009.975000", "131010.762500", "131011.552500", "131012.340000", "131013.127500", "131013.915000", "131014.705000", "131015.492500", "131016.280000", "131017.067500", "131017.857500", "131018.645000", "131019.432500", "131020.222500", "131021.010000", "131021.797500", "131022.585000", "131023.375000", "131024.162500", "131024.950000", "131025.737500", "131026.527500", "131027.315000", "131028.102500", "131028.890000", "131029.680000", "131030.467500", "131031.255000", "131032.042500", "131032.832500", "131033.620000", "131034.407500", "131035.195000", "131035.985000", "131036.772500", "131037.560000", "131038.350000", "131039.137500", "131039.925000", "131040.712500", "131041.502500", "131042.290000", "131043.077500", "131043.865000", "131044.655000", "131045.442500", "131046.230000", "131047.017500", "131047.807500", "131048.595000", "131049.382500", "131050.170000", "131050.960000", "131051.747500", "131052.535000", "131053.322500", "131054.112500", "131054.900000", "131055.687500", "131056.477500", "131057.265000", "131058.052500", "131058.840000", "131059.630000", "131100.417500", "131101.205000", "131101.992500", "131102.782500", "131103.570000", "131104.357500", "131105.145000", "131105.935000", "131106.722500", "131107.510000", "131108.297500", "131109.087500", "131109.875000", "131110.662500", "131111.450000", "131112.240000", "131113.027500", "131113.815000", "131114.605000", "131115.392500", "131116.180000", "131116.967500", "131117.757500", "131118.545000", "131119.332500", "131120.120000", "131120.910000", "131121.697500", "131122.485000", "131123.272500", "131124.062500", "131124.850000", "131125.637500", "131126.425000", "131127.215000", "131128.002500", "131128.790000", "131129.580000", "131130.367500", "131131.155000", "131131.942500", "131132.732500", "131133.520000", "131134.307500", "131135.095000", "131135.885000", "131136.672500", "131137.460000", "131138.247500", "131139.037500", "131139.825000", "131140.612500", "131141.400000", "131142.190000", "131142.977500", "131143.765000", "131144.552500", "131145.342500", "131146.130000", "131146.917500", "131147.707500", "131148.495000", "131149.282500", "131150.070000", "131150.860000", "131151.647500", "131152.435000", "131153.222500", "131154.012500", "131154.800000", "131155.587500", "131156.375000", "131157.165000", "131157.952500", "131158.740000", "131159.527500", "131200.317500", "131201.105000", "131201.892500", "131202.680000", "131203.470000", "131204.257500", "131205.045000", "131205.835000", "131206.622500", "131207.410000", "131208.197500", "131208.987500", "131209.775000", "131210.562500", "131211.350000", "131212.140000", "131212.927500", "131213.715000", "131214.502500", "131215.292500", "131216.080000", "131216.867500", "131217.655000", "131218.445000", "131219.232500", "131220.020000", "131220.807500", "131221.597500", "131222.385000", "131223.172500", "131223.962500", "131224.750000", "131225.537500", "131226.325000", "131227.115000", "131227.902500", "131228.690000", "131229.477500", "131230.267500", "131231.055000", "131231.842500", "131232.630000", "131233.420000", "131234.207500", "131234.995000", "131235.782500", "131236.572500", "131237.360000", "131238.147500", "131238.935000", "131239.725000", "131240.512500", "131241.300000", "131242.090000", "131242.877500", "131243.665000", "131244.452500", "131245.242500", "131246.030000", "131246.817500", "131247.605000", "131248.395000", "131249.182500", "131249.970000", "131250.757500", "131251.547500", "131252.335000", "131253.122500", "131253.910000", "131254.700000", "131255.487500", "131256.275000", "131257.062500", "131257.852500", "131258.640000", "131259.427500", "131300.217500", "131301.005000", "131301.792500", "131302.580000", "131303.370000", "131304.157500", "131304.945000", "131305.732500", "131306.522500", "131307.310000", "131308.097500", "131308.885000"],
      "ContentTime": ["130556.125000", "130556.125000", "130556.125000", "130556.125000", "130556.125000", "130556.140000", "130556.140000", "130556.140000", "130556.140000", "130556.140000", "130556.140000", "130556.140000", "130556.156000", "130556.156000", "130556.156000", "130556.156000", "130556.156000", "130556.156000", "130556.156000", "130556.171000", "130556.171000", "130556.171000", "130556.171000", "130556.171000", "130556.187000", "130556.187000", "130556.187000", "130556.187000", "130556.187000", "130616.093000", "130616.093000", "130616.109000", "130616.109000", "130616.109000", "130616.109000", "130616.109000", "130616.109000", "130616.109000", "130616.125000", "130616.125000", "130616.125000", "130616.125000", "130616.125000", "130616.125000", "130616.125000", "130616.140000", "130616.140000", "130616.140000", "130616.140000", "130616.140000", "130616.140000", "130616.140000", "130616.156000", "130616.156000", "130636.093000", "130636.093000", "130636.109000", "130636.109000", "130636.109000", "130636.109000", "130636.109000", "130636.109000", "130636.109000", "130636.125000", "130636.125000", "130636.125000", "130636.125000", "130636.125000", "130636.125000", "130636.125000", "130636.140000", "130636.140000", "130636.140000", "130636.140000", "130636.140000", "130636.140000", "130636.140000", "130636.156000", "130636.156000", "130636.156000", "130656.093000", "130656.093000", "130656.109000", "130656.109000", "130656.109000", "130656.109000", "130656.109000", "130656.109000", "130656.109000", "130656.125000", "130656.125000", "130656.125000", "130656.125000", "130656.125000", "130656.125000", "130656.125000", "130656.140000", "130656.140000", "130656.140000", "130656.140000", "130656.140000", "130656.140000", "130656.140000", "130656.156000", "130656.156000", "130716.093000", "130716.093000", "130716.109000", "130716.109000", "130716.109000", "130716.109000", "130716.109000", "130716.109000", "130716.109000", "130716.125000", "130716.125000", "130716.125000", "130716.125000", "130716.125000", "130716.125000", "130716.140000", "130716.140000", "130716.140000", "130716.140000", "130716.140000", "130716.140000", "130716.140000", "130716.156000", "130716.156000", "130716.156000", "130716.156000", "130736.093000", "130736.093000", "130736.109000", "130736.109000", "130736.109000", "130736.109000", "130736.109000", "130736.109000", "130736.109000", "130736.125000", "130736.125000", "130736.125000", "130736.125000", "130736.125000", "130736.125000", "130736.125000", "130736.140000", "130736.140000", "130736.140000", "130736.140000", "130736.140000", "130736.140000", "130736.156000", "130736.156000", "130736.156000", "130756.093000", "130756.093000", "130756.109000", "130756.109000", "130756.109000", "130756.109000", "130756.109000", "130756.109000", "130756.109000", "130756.125000", "130756.125000", "130756.125000", "130756.125000", "130756.125000", "130756.125000", "130756.125000", "130756.140000", "130756.140000", "130756.140000", "130756.140000", "130756.140000", "130756.140000", "130756.140000", "130756.156000", "130756.156000", "130756.156000", "130816.093000", "130816.093000", "130816.109000", "130816.109000", "130816.109000", "130816.109000", "130816.109000", "130816.109000", "130816.109000", "130816.125000", "130816.125000", "130816.125000", "130816.125000", "130816.125000", "130816.125000", "130816.125000", "130816.140000", "130816.140000", "130816.140000", "130816.140000", "130816.140000", "130816.140000", "130816.140000", "130816.156000", "130816.156000", "130836.093000", "130836.093000", "130836.109000", "130836.109000", "130836.109000", "130836.109000", "130836.109000", "130836.109000", "130836.109000", "130836.125000", "130836.125000", "130836.125000", "130836.125000", "130836.125000", "130836.125000", "130836.140000", "130836.140000", "130836.140000", "130836.140000", "130836.140000", "130836.156000", "130836.156000", "130836.156000", "130836.156000", "130836.156000", "130836.156000", "130856.093000", "130856.093000", "130856.109000", "130856.109000", "130856.109000", "130856.109000", "130856.109000", "130856.109000", "130856.125000", "130856.125000", "130856.125000", "130856.125000", "130856.125000", "130856.125000", "130856.125000", "130856.140000", "130856.140000", "130856.140000", "130856.140000", "130856.140000", "130856.140000", "130856.140000", "130856.156000", "130856.156000", "130856.156000", "130916.093000", "130916.093000", "130916.109000", "130916.109000", "130916.109000", "130916.109000", "130916.109000", "130916.109000", "130916.109000", "130916.125000", "130916.125000", "130916.125000", "130916.125000", "130916.125000", "130916.125000", "130916.125000", "130916.140000", "130916.140000", "130916.140000", "130916.140000", "130916.156000", "130916.156000", "130916.156000", "130916.156000", "130916.156000", "130916.156000", "130936.093000", "130936.093000", "130936.109000", "130936.109000", "130936.109000", "130936.109000", "130936.109000", "130936.109000", "130936.109000", "130936.125000", "130936.125000", "130936.125000", "130936.125000", "130936.125000", "130936.125000", "130936.125000", "130936.140000", "130936.140000", "130936.140000", "130936.140000", "130936.140000", "130936.140000", "130936.140000", "130936.156000", "130936.156000", "130956.093000", "130956.093000", "130956.109000", "130956.109000", "130956.109000", "130956.109000", "130956.109000", "130956.109000", "130956.109000", "130956.125000", "130956.125000", "130956.125000", "130956.125000", "130956.125000", "130956.125000", "130956.125000", "130956.140000", "130956.140000", "130956.140000", "130956.140000", "130956.140000", "130956.140000", "130956.156000", "130956.156000", "130956.156000", "130956.156000", "131016.093000", "131016.093000", "131016.109000", "131016.109000", "131016.109000", "131016.109000", "131016.109000", "131016.109000", "131016.109000", "131016.125000", "131016.125000", "131016.125000", "131016.125000", "131016.125000", "131016.125000", "131016.140000", "131016.140000", "131016.140000", "131016.140000", "131016.140000", "131016.156000", "131016.156000", "131016.156000", "131016.156000", "131016.156000", "131036.093000", "131036.093000", "131036.109000", "131036.109000", "131036.109000", "131036.109000", "131036.109000", "131036.109000", "131036.109000", "131036.125000", "131036.125000", "131036.125000", "131036.125000", "131036.125000", "131036.125000", "131036.125000", "131036.140000", "131036.140000", "131036.140000", "131036.140000", "131036.140000", "131036.140000", "131036.140000", "131036.156000", "131036.156000", "131036.156000", "131056.093000", "131056.093000", "131056.109000", "131056.109000", "131056.109000", "131056.109000", "131056.109000", "131056.109000", "131056.109000", "131056.125000", "131056.125000", "131056.125000", "131056.125000", "131056.125000", "131056.125000", "131056.140000", "131056.140000", "131056.140000", "131056.140000", "131056.140000", "131056.140000", "131056.140000", "131056.156000", "131056.156000", "131056.156000", "131116.093000", "131116.109000", "131116.109000", "131116.109000", "131116.109000", "131116.109000", "131116.109000", "131116.109000", "131116.125000", "131116.125000", "131116.125000", "131116.125000", "131116.125000", "131116.125000", "131116.140000", "131116.140000", "131116.140000", "131116.140000", "131116.140000", "131116.140000", "131116.140000", "131116.156000", "131116.156000", "131116.156000", "131116.156000", "131136.093000", "131136.093000", "131136.109000", "131136.109000", "131136.109000", "131136.109000", "131136.109000", "131136.125000", "131136.125000", "131136.125000", "131136.125000", "131136.125000", "131136.125000", "131136.125000", "131136.140000", "131136.140000", "131136.140000", "131136.140000", "131136.140000", "131136.140000", "131136.140000", "131136.156000", "131136.156000", "131136.156000", "131136.156000", "131136.156000", "131156.093000", "131156.093000", "131156.109000", "131156.109000", "131156.109000", "131156.125000", "131156.125000", "131156.125000", "131156.125000", "131156.125000", "131156.125000", "131156.140000", "131156.140000", "131156.140000", "131156.140000", "131156.140000", "131156.156000", "131156.156000", "131156.156000", "131156.156000", "131156.156000", "131156.156000", "131156.156000", "131156.171000", "131156.171000", "131216.093000", "131216.093000", "131216.109000", "131216.109000", "131216.109000", "131216.109000", "131216.109000", "131216.109000", "131216.109000", "131216.125000", "131216.125000", "131216.125000", "131216.125000", "131216.140000", "131216.140000", "131216.140000", "131216.140000", "131216.140000", "131216.140000", "131216.156000", "131216.156000", "131216.156000", "131216.156000", "131216.156000", "131216.156000", "131216.156000", "131236.093000", "131236.093000", "131236.109000", "131236.109000", "131236.109000", "131236.109000", "131236.109000", "131236.109000", "131236.125000", "131236.125000", "131236.125000", "131236.125000", "131236.125000", "131236.125000", "131236.125000", "131236.140000", "131236.140000", "131236.140000", "131236.140000", "131236.140000", "131236.140000", "131236.156000", "131236.156000", "131236.156000", "131236.156000", "131256.093000", "131256.093000", "131256.109000", "131256.109000", "131256.109000", "131256.109000", "131256.109000", "131256.109000", "131256.109000", "131256.125000", "131256.125000", "131256.125000", "131256.125000", "131256.125000", "131256.125000", "131256.125000", "131256.140000", "131256.140000", "131256.140000", "131256.140000", "131256.140000", "131256.140000", "131256.140000", "131256.156000", "131256.156000", "131256.156000", "131309.171000", "131309.187000", "131309.187000", "131309.187000", "131309.187000", "131309.187000", "131309.187000", "131309.187000", "131309.203000", "131309.203000", "131309.203000", "131309.203000", "131309.203000", "131309.203000", "131309.203000", "131309.218000", "131309.218000"],
      "DataSetTrailingPadding": [
        "\u0000\u0000\u0000\u0000\u0000\u0000\u0000\u0000\u0000\u0000\u0000\u0000",
        "\u0000\u0000\u0000\u0000\u0000\u0000\u0000\u0000\u0000\u0000\u0000\u0000",
        "\u0000\u0000\u0000\u0000\u0000\u0000\u0000\u0000\u0000\u0000\u0000\u0000",
        "\u0000\u0000\u0000\u0000\u0000\u0000\u0000\u0000\u0000\u0000",
        "\u0000\u0000\u0000\u0000\u0000\u0000\u0000\u0000\u0000\u0000\u0000\u0000",
        "\u0000\u0000\u0000\u0000\u0000\u0000\u0000\u0000\u0000\u0000",
        "\u0000\u0000\u0000\u0000\u0000\u0000\u0000\u0000\u0000\u0000\u0000\u0000\u0000\u0000",
        "\u0000\u0000\u0000\u0000\u0000\u0000\u0000\u0000\u0000\u0000\u0000\u0000",
        "\u0000\u0000\u0000\u0000\u0000\u0000\u0000\u0000\u0000\u0000",
        "\u0000\u0000\u0000\u0000\u0000\u0000\u0000\u0000",
        "\u0000\u0000\u0000\u0000\u0000\u0000\u0000\u0000",
        "\u0000\u0000\u0000\u0000\u0000\u0000",
        "\u0000\u0000\u0000\u0000\u0000\u0000\u0000\u0000",
        "\u0000\u0000\u0000\u0000\u0000\u0000",
        "\u0000\u0000\u0000\u0000\u0000\u0000",
        "\u0000\u0000\u0000\u0000\u0000\u0000\u0000\u0000",
        "\u0000\u0000\u0000\u0000\u0000\u0000",
        "\u0000\u0000\u0000\u0000\u0000\u0000\u0000\u0000",
        "\u0000\u0000\u0000\u0000\u0000\u0000\u0000\u0000",
        "\u0000\u0000\u0000\u0000\u0000\u0000",
        "\u0000\u0000\u0000\u0000\u0000\u0000\u0000\u0000",
        "\u0000\u0000\u0000\u0000\u0000\u0000",
        "\u0000\u0000\u0000\u0000\u0000\u0000",
        "\u0000\u0000\u0000\u0000\u0000\u0000\u0000\u0000",
        "\u0000\u0000\u0000\u0000\u0000\u0000",
        "\u0000\u0000\u0000\u0000\u0000\u0000\u0000\u0000\u0000\u0000",
        "\u0000\u0000\u0000\u0000\u0000\u0000\u0000\u0000",
        "\u0000\u0000\u0000\u0000\u0000\u0000",
        "\u0000\u0000\u0000\u0000\u0000\u0000\u0000\u0000",
        "\u0000\u0000\u0000\u0000\u0000\u0000\u0000\u0000",
        "\u0000\u0000\u0000\u0000\u0000\u0000",
