{
  "AcquisitionMatrixPE": 104,
  "AcquisitionNumber": 1,
  "AcquisitionTime": "13:21:50.740000",
  "BandwidthPerPixelPhaseEncode": 13.935,
  "BaseResolution": 104,
  "CoilString": "C:HEA;HEP",
  "ConversionSoftware": "dcm2niix",
  "ConversionSoftwareVersion": "v1.0.20210317",
  "DerivedVendorReportedEchoSpacing": 0.000690017,
  "DeviceSerialNumber": "35450",
  "DwellTime": 2.5e-06,
  "EchoTime": 0.0348,
  "EffectiveEchoSpacing": 0.000690017,
  "FlipAngle": 55,
  "ImageComments": "Unaliased MB8/PE3 (remote)",
  "ImageOrientationPatientDICOM": [0.999968, -0.00301991, -0.00743668, 7.1325e-08, 0.926524, -0.376236],
  "ImageType": [
    "ORIGINAL",
    "PRIMARY",
    "M",
    "MB",
    "ND",
    "MOSAIC"
],
  "ImagingFrequency": 123.234,
  "InPlanePhaseEncodingDirectionDICOM": "COL",
  "InstitutionAddress": "Univeristy Ave. 197,Newark,North East,US,07102-1814",
  "InstitutionName": "RUBIC",
  "InstitutionalDepartmentName": "Department",
  "MRAcquisitionType": "2D",
  "MagneticFieldStrength": 3,
  "Manufacturer": "Siemens",
  "ManufacturersModelName": "TrioTim",
  "Modality": "MR",
  "MultibandAccelerationFactor": 8,
  "PartialFourier": 0.875,
  "PatientPosition": "HFS",
  "PercentPhaseFOV": 100,
  "PercentSampling": 100,
  "PhaseEncodingDirection": "j-",
  "PhaseEncodingSteps": 91,
  "PhaseResolution": 1,
  "PixelBandwidth": 1923,
  "ProcedureStepDescription": "Cole^Michael",
  "ProtocolName": "cmrr_mbep2d_bold_2mm_MB8_Task_8x",
  "PulseSequenceDetails": "%CustomerSeq%\\cmrr_mbep2d_bold",
  "ReceiveCoilName": "32Ch_Head",
  "ReconMatrixPE": 104,
  "RepetitionTime": 0.785,
  "SAR": 0.130346,
  "ScanOptions": "PFP\\FS",
  "ScanningSequence": "EP",
  "SequenceName": "epfid2d1_104",
  "SequenceVariant": "SK\\SS",
  "SeriesDescription": "cmrr_mbep2d_bold_2mm_MB8_Task_8x",
  "SeriesNumber": 17,
  "ShimSetting": [2118, -303, -7371, 461, 84, -486, -118, 86],
  "SliceThickness": 2,
  "SliceTiming": [0, 0.4375, 0.0875, 0.525, 0.175, 0.6125, 0.2625, 0.7, 0.35, 0, 0.4375, 0.0875, 0.525, 0.175, 0.6125, 0.2625, 0.7, 0.35, 0, 0.4375, 0.0875, 0.525, 0.175, 0.6125, 0.2625, 0.7, 0.35, 0, 0.4375, 0.0875, 0.525, 0.175, 0.6125, 0.2625, 0.7, 0.35, 0, 0.4375, 0.0875, 0.525, 0.175, 0.6125, 0.2625, 0.7, 0.35, 0, 0.4375, 0.0875, 0.525, 0.175, 0.6125, 0.2625, 0.7, 0.35, 0, 0.4375, 0.0875, 0.525, 0.175, 0.6125, 0.2625, 0.7, 0.35, 0, 0.4375, 0.0875, 0.525, 0.175, 0.6125, 0.2625, 0.7, 0.35],
  "SoftwareVersions": "syngo MR B19",
  "SpacingBetweenSlices": 2,
  "StationName": "MRC35450",
  "TaskName": "cpro",
  "TotalReadoutTime": 0.0710717,
  "TxRefAmp": 337.31,
  "dcmmeta_affine": [
    [-1.9999356269836426, 1.4265000913837866e-07, -0.016052914783358574, 105.20269012451172],
    [0.006039819680154324, 1.853047490119934, -0.7524482607841492, -61.792930603027344],
    [-0.014873352833092213, 0.752472460269928, 1.8529878854751587, -146.2030792236328],
    [0.0, 0.0, 0.0, 1.0]
],
  "dcmmeta_reorient_transform": [
    [0.0, -1.0, 0.0, 103.0],
    [1.0, 0.0, 0.0, 0.0],
    [0.0, 0.0, 1.0, 0.0],
    [0.0, 0.0, 0.0, 1.0]
],
  "dcmmeta_shape": [104, 104, 72, 581],
  "dcmmeta_slice_dim": 2,
  "dcmmeta_version": 0.6,
  "global": {
    "const": {
      "AcquisitionMatrix": [104, 0, 0, 104],
      "AngioFlag": "N",
      "BitsAllocated": 16,
      "BitsStored": 12,
      "Columns": 936,
      "EchoNumbers": 1,
      "EchoTime": 34.8,
      "EchoTrainLength": 1,
      "FlipAngle": 55.0,
      "HighBit": 11,
      "ImageOrientationPatient": [0.9999677874766, -0.0030199099409, -0.0074366762134, 7.1325003e-08, 0.92652377139362, -0.3762362303694],
      "ImagePositionPatient": [-937.17596396929, -897.42617987152, 250.51744535879],
      "ImageType": [
        "ORIGINAL",
        "PRIMARY",
        "M",
        "MB",
        "ND",
        "MOSAIC"
],
      "ImagedNucleus": "1H",
      "ImagingFrequency": 123.234407,
      "InPlanePhaseEncodingDirection": "COL",
      "MRAcquisitionType": "2D",
      "MagneticFieldStrength": 3.0,
      "Manufacturer": "SIEMENS",
      "ManufacturerModelName": "TrioTim",
      "Modality": "MR",
      "NumberOfAverages": 1.0,
      "NumberOfPhaseEncodingSteps": 91,
      "PercentPhaseFieldOfView": 100.0,
      "PercentSampling": 100.0,
      "PerformedProcedureStepStartTime": "115734.265000",
      "PhotometricInterpretation": "MONOCHROME2",
      "PixelBandwidth": 1923.0,
      "PixelRepresentation": 0,
      "PixelSpacing": [2.0, 2.0],
      "ProtocolName": "cmrr_mbep2d_bold_2mm_MB8_Task_8x",
      "RepetitionTime": 785.0,
      "Rows": 936,
      "SAR": 0.13034647175688,
      "SamplesPerPixel": 1,
      "ScanOptions": [
        "PFP",
        "FS"
],
      "ScanningSequence": "EP",
      "SequenceName": "epfid2d1_104",
      "SequenceVariant": [
        "SK",
        "SS"
],
      "SeriesDescription": "cmrr_mbep2d_bold_2mm_MB8_Task_8x",
      "SeriesNumber": 17,
      "SeriesTime": "132215.031000",
      "SliceLocation": -113.05267704487,
      "SliceThickness": 2.0,
      "SmallestImagePixelValue": 0,
      "SoftwareVersions": "syngo MR B19",
      "SpacingBetweenSlices": 2.0000000547758,
      "SpecificCharacterSet": "ISO_IR 100",
      "StudyID": "1",
      "StudyTime": "115734.125000",
      "TransmitCoilName": "Body",
      "VariableFlipAngleFlag": "N",
      "WindowCenterWidthExplanation": "Algo1",
      "dBdt": 0.0},
    "slices": {}
  },
  "time": {
    "samples": {
      "AcquisitionNumber": [1, 2, 3, 4, 5, 6, 7, 8, 9, 10, 11, 12, 13, 14, 15, 16, 17, 18, 19, 20, 21, 22, 23, 24, 25, 26, 27, 28, 29, 30, 31, 32, 33, 34, 35, 36, 37, 38, 39, 40, 41, 42, 43, 44, 45, 46, 47, 48, 49, 50, 51, 52, 53, 54, 55, 56, 57, 58, 59, 60, 61, 62, 63, 64, 65, 66, 67, 68, 69, 70, 71, 72, 73, 74, 75, 76, 77, 78, 79, 80, 81, 82, 83, 84, 85, 86, 87, 88, 89, 90, 91, 92, 93, 94, 95, 96, 97, 98, 99, 100, 101, 102, 103, 104, 105, 106, 107, 108, 109, 110, 111, 112, 113, 114, 115, 116, 117, 118, 119, 120, 121, 122, 123, 124, 125, 126, 127, 128, 129, 130, 131, 132, 133, 134, 135, 136, 137, 138, 139, 140, 141, 142, 143, 144, 145, 146, 147, 148, 149, 150, 151, 152, 153, 154, 155, 156, 157, 158, 159, 160, 161, 162, 163, 164, 165, 166, 167, 168, 169, 170, 171, 172, 173, 174, 175, 176, 177, 178, 179, 180, 181, 182, 183, 184, 185, 186, 187, 188, 189, 190, 191, 192, 193, 194, 195, 196, 197, 198, 199, 200, 201, 202, 203, 204, 205, 206, 207, 208, 209, 210, 211, 212, 213, 214, 215, 216, 217, 218, 219, 220, 221, 222, 223, 224, 225, 226, 227, 228, 229, 230, 231, 232, 233, 234, 235, 236, 237, 238, 239, 240, 241, 242, 243, 244, 245, 246, 247, 248, 249, 250, 251, 252, 253, 254, 255, 256, 257, 258, 259, 260, 261, 262, 263, 264, 265, 266, 267, 268, 269, 270, 271, 272, 273, 274, 275, 276, 277, 278, 279, 280, 281, 282, 283, 284, 285, 286, 287, 288, 289, 290, 291, 292, 293, 294, 295, 296, 297, 298, 299, 300, 301, 302, 303, 304, 305, 306, 307, 308, 309, 310, 311, 312, 313, 314, 315, 316, 317, 318, 319, 320, 321, 322, 323, 324, 325, 326, 327, 328, 329, 330, 331, 332, 333, 334, 335, 336, 337, 338, 339, 340, 341, 342, 343, 344, 345, 346, 347, 348, 349, 350, 351, 352, 353, 354, 355, 356, 357, 358, 359, 360, 361, 362, 363, 364, 365, 366, 367, 368, 369, 370, 371, 372, 373, 374, 375, 376, 377, 378, 379, 380, 381, 382, 383, 384, 385, 386, 387, 388, 389, 390, 391, 392, 393, 394, 395, 396, 397, 398, 399, 400, 401, 402, 403, 404, 405, 406, 407, 408, 409, 410, 411, 412, 413, 414, 415, 416, 417, 418, 419, 420, 421, 422, 423, 424, 425, 426, 427, 428, 429, 430, 431, 432, 433, 434, 435, 436, 437, 438, 439, 440, 441, 442, 443, 444, 445, 446, 447, 448, 449, 450, 451, 452, 453, 454, 455, 456, 457, 458, 459, 460, 461, 462, 463, 464, 465, 466, 467, 468, 469, 470, 471, 472, 473, 474, 475, 476, 477, 478, 479, 480, 481, 482, 483, 484, 485, 486, 487, 488, 489, 490, 491, 492, 493, 494, 495, 496, 497, 498, 499, 500, 501, 502, 503, 504, 505, 506, 507, 508, 509, 510, 511, 512, 513, 514, 515, 516, 517, 518, 519, 520, 521, 522, 523, 524, 525, 526, 527, 528, 529, 530, 531, 532, 533, 534, 535, 536, 537, 538, 539, 540, 541, 542, 543, 544, 545, 546, 547, 548, 549, 550, 551, 552, 553, 554, 555, 556, 557, 558, 559, 560, 561, 562, 563, 564, 565, 566, 567, 568, 569, 570, 571, 572, 573, 574, 575, 576, 577, 578, 579, 580, 581],
      "AcquisitionTime": ["132150.740000", "132151.527500", "132152.317500", "132153.105000", "132153.892500", "132154.680000", "132155.470000", "132156.257500", "132157.045000", "132157.832500", "132158.622500", "132159.410000", "132200.197500", "132200.985000", "132201.775000", "132202.562500", "132203.350000", "132204.137500", "132204.927500", "132205.715000", "132206.502500", "132207.292500", "132208.080000", "132208.867500", "132209.655000", "132210.445000", "132211.232500", "132212.020000", "132212.807500", "132213.597500", "132214.385000", "132215.172500", "132215.960000", "132216.750000", "132217.537500", "132218.325000", "132219.112500", "132219.902500", "132220.690000", "132221.477500", "132222.267500", "132223.055000", "132223.842500", "132224.630000", "132225.420000", "132226.207500", "132226.995000", "132227.782500", "132228.572500", "132229.360000", "132230.147500", "132230.935000", "132231.725000", "132232.512500", "132233.300000", "132234.087500", "132234.877500", "132235.665000", "132236.452500", "132237.240000", "132238.030000", "132238.817500", "132239.605000", "132240.395000", "132241.182500", "132241.970000", "132242.757500", "132243.547500", "132244.335000", "132245.122500", "132245.910000", "132246.700000", "132247.487500", "132248.275000", "132249.062500", "132249.852500", "132250.640000", "132251.427500", "132252.215000", "132253.005000", "132253.792500", "132254.580000", "132255.367500", "132256.157500", "132256.945000", "132257.732500", "132258.522500", "132259.310000", "132300.097500", "132300.885000", "132301.675000", "132302.462500", "132303.250000", "132304.037500", "132304.827500", "132305.615000", "132306.402500", "132307.190000", "132307.980000", "132308.767500", "132309.555000", "132310.342500", "132311.132500", "132311.920000", "132312.707500", "132313.495000", "132314.285000", "132315.072500", "132315.860000", "132316.650000", "132317.437500", "132318.225000", "132319.012500", "132319.802500", "132320.590000", "132321.377500", "132322.165000", "132322.955000", "132323.742500", "132324.530000", "132325.317500", "132326.107500", "132326.895000", "132327.682500", "132328.470000", "132329.260000", "132330.047500", "132330.835000", "132331.622500", "132332.412500", "132333.200000", "132333.987500", "132334.777500", "132335.565000", "132336.352500", "132337.140000", "132337.930000", "132338.717500", "132339.505000", "132340.292500", "132341.082500", "132341.870000", "132342.657500", "132343.445000", "132344.235000", "132345.022500", "132345.810000", "132346.597500", "132347.387500", "132348.175000", "132348.962500", "132349.750000", "132350.540000", "132351.327500", "132352.115000", "132352.905000", "132353.692500", "132354.480000", "132355.267500", "132356.057500", "132356.845000", "132357.632500", "132358.420000", "132359.210000", "132359.997500", "132400.785000", "132401.572500", "132402.362500", "132403.150000", "132403.937500", "132404.725000", "132405.515000", "132406.302500", "132407.090000", "132407.877500", "132408.667500", "132409.455000", "132410.242500", "132411.032500", "132411.820000", "132412.607500", "132413.395000", "132414.185000", "132414.972500", "132415.760000", "132416.547500", "132417.337500", "132418.125000", "132418.912500", "132419.700000", "132420.490000", "132421.277500", "132422.065000", "132422.852500", "132423.642500", "132424.430000", "132425.217500", "132426.005000", "132426.795000", "132427.582500", "132428.370000", "132429.160000", "132429.947500", "132430.735000", "132431.522500", "132432.312500", "132433.100000", "132433.887500", "132434.675000", "132435.465000", "132436.252500", "132437.040000", "132437.827500", "132438.617500", "132439.405000", "132440.192500", "132440.980000", "132441.770000", "132442.557500", "132443.345000", "132444.132500", "132444.922500", "132445.710000", "132446.497500", "132447.287500", "132448.075000", "132448.862500", "132449.650000", "132450.440000", "132451.227500", "132452.015000", "132452.802500", "132453.592500", "132454.380000", "132455.167500", "132455.955000", "132456.745000", "132457.532500", "132458.320000", "132459.107500", "132459.897500", "132500.685000", "132501.472500", "132502.260000", "132503.050000", "132503.837500", "132504.625000", "132505.415000", "132506.202500", "132506.990000", "132507.777500", "132508.567500", "132509.355000", "132510.142500", "132510.930000", "132511.720000", "132512.507500", "132513.295000", "132514.082500", "132514.872500", "132515.660000", "132516.447500", "132517.235000", "132518.025000", "132518.812500", "132519.600000", "132520.387500", "132521.177500", "132521.965000", "132522.752500", "132523.542500", "132524.330000", "132525.117500", "132525.905000", "132526.695000", "132527.482500", "132528.270000", "132529.057500", "132529.847500", "132530.635000", "132531.422500", "132532.210000", "132533.000000", "132533.787500", "132534.575000", "132535.362500", "132536.152500", "132536.940000", "132537.727500", "132538.517500", "132539.305000", "132540.092500", "132540.880000", "132541.670000", "132542.457500", "132543.245000", "132544.032500", "132544.822500", "132545.610000", "132546.397500", "132547.185000", "132547.975000", "132548.762500", "132549.550000", "132550.337500", "132551.127500", "132551.915000", "132552.702500", "132553.490000", "132554.280000", "132555.067500", "132555.855000", "132556.645000", "132557.432500", "132558.220000", "132559.007500", "132559.797500", "132600.585000", "132601.372500", "132602.160000", "132602.950000", "132603.737500", "132604.525000", "132605.312500", "132606.102500", "132606.890000", "132607.677500", "132608.465000", "132609.255000", "132610.042500", "132610.830000", "132611.617500", "132612.407500", "132613.195000", "132613.982500", "132614.772500", "132615.560000", "132616.347500", "132617.135000", "132617.925000", "132618.712500", "132619.500000", "132620.287500", "132621.077500", "132621.865000", "132622.652500", "132623.440000", "132624.230000", "132625.017500", "132625.805000", "132626.592500", "132627.382500", "132628.170000", "132628.957500", "132629.745000", "132630.535000", "132631.322500", "132632.110000", "132632.900000", "132633.687500", "132634.475000", "132635.262500", "132636.052500", "132636.840000", "132637.627500", "132638.415000", "132639.205000", "132639.992500", "132640.780000", "132641.567500", "132642.357500", "132643.145000", "132643.932500", "132644.720000", "132645.510000", "132646.297500", "132647.085000", "132647.872500", "132648.662500", "132649.450000", "132650.237500", "132651.027500", "132651.815000", "132652.602500", "132653.390000", "132654.180000", "132654.967500", "132655.755000", "132656.542500", "132657.332500", "132658.120000", "132658.907500", "132659.695000", "132700.485000", "132701.272500", "132702.060000", "132702.847500", "132703.637500", "132704.425000", "132705.212500", "132706.000000", "132706.790000", "132707.577500", "132708.365000", "132709.155000", "132709.942500", "132710.730000", "132711.517500", "132712.307500", "132713.095000", "132713.882500", "132714.670000", "132715.460000", "132716.247500", "132717.035000", "132717.822500", "132718.612500", "132719.400000", "132720.187500", "132720.975000", "132721.765000", "132722.552500", "132723.340000", "132724.127500", "132724.917500", "132725.705000", "132726.492500", "132727.282500", "132728.070000", "132728.857500", "132729.645000", "132730.435000", "132731.222500", "132732.010000", "132732.797500", "132733.587500", "132734.375000", "132735.162500", "132735.950000", "132736.740000", "132737.527500", "132738.315000", "132739.102500", "132739.892500", "132740.680000", "132741.467500", "132742.255000", "132743.045000", "132743.832500", "132744.620000", "132745.410000", "132746.197500", "132746.985000", "132747.772500", "132748.562500", "132749.350000", "132750.137500", "132750.925000", "132751.715000", "132752.502500", "132753.290000", "132754.077500", "132754.867500", "132755.655000", "132756.442500", "132757.230000", "132758.020000", "132758.807500", "132759.595000", "132800.382500", "132801.172500", "132801.960000", "132802.747500", "132803.537500", "132804.325000", "132805.112500", "132805.900000", "132806.690000", "132807.477500", "132808.265000", "132809.052500", "132809.842500", "132810.630000", "132811.417500", "132812.205000", "132812.995000", "132813.782500", "132814.570000", "132815.357500", "132816.147500", "132816.935000", "132817.722500", "132818.510000", "132819.300000", "132820.087500", "132820.875000", "132821.665000", "132822.452500", "132823.240000", "132824.027500", "132824.817500", "132825.605000", "132826.392500", "132827.180000", "132827.970000", "132828.757500", "132829.545000", "132830.332500", "132831.122500", "132831.910000", "132832.697500", "132833.485000", "132834.275000", "132835.062500", "132835.850000", "132836.637500", "132837.427500", "132838.215000", "132839.002500", "132839.792500", "132840.580000", "132841.367500", "132842.155000", "132842.945000", "132843.732500", "132844.520000", "132845.307500", "132846.097500", "132846.885000", "132847.672500", "132848.460000", "132849.250000", "132850.037500", "132850.825000", "132851.612500", "132852.402500", "132853.190000", "132853.977500", "132854.767500", "132855.555000", "132856.342500", "132857.130000", "132857.920000", "132858.707500", "132859.495000", "132900.282500", "132901.072500", "132901.860000", "132902.647500", "132903.435000", "132904.225000", "132905.012500", "132905.800000", "132906.587500", "132907.377500", "132908.165000", "132908.952500", "132909.740000", "132910.530000", "132911.317500", "132912.105000", "132912.895000", "132913.682500", "132914.470000", "132915.257500", "132916.047500", "132916.835000", "132917.622500", "132918.410000", "132919.200000", "132919.987500", "132920.775000", "132921.562500", "132922.352500", "132923.140000", "132923.927500", "132924.715000", "132925.505000", "132926.292500", "132927.080000", "132927.867500"],
      "ContentTime": ["132215.031000", "132215.031000", "132215.031000", "132215.031000", "132215.031000", "132215.046000", "132215.046000", "132215.046000", "132215.046000", "132215.046000", "132215.062000", "132215.062000", "132215.062000", "132215.062000", "132215.062000", "132215.062000", "132215.078000", "132215.078000", "132215.078000", "132215.078000", "132215.078000", "132215.078000", "132215.078000", "132215.093000", "132215.093000", "132215.093000", "132215.093000", "132215.093000", "132235.000000", "132235.000000", "132235.015000", "132235.015000", "132235.015000", "132235.015000", "132235.015000", "132235.015000", "132235.015000", "132235.031000", "132235.031000", "132235.031000", "132235.031000", "132235.031000", "132235.031000", "132235.031000", "132235.046000", "132235.046000", "132235.046000", "132235.046000", "132235.046000", "132235.046000", "132235.046000", "132235.062000", "132235.062000", "132235.062000", "132255.000000", "132255.000000", "132255.015000", "132255.015000", "132255.015000", "132255.015000", "132255.015000", "132255.015000", "132255.015000", "132255.015000", "132255.031000", "132255.031000", "132255.031000", "132255.031000", "132255.031000", "132255.031000", "132255.031000", "132255.046000", "132255.046000", "132255.046000", "132255.046000", "132255.062000", "132255.062000", "132255.062000", "132255.062000", "132315.000000", "132315.000000", "132315.015000", "132315.015000", "132315.015000", "132315.015000", "132315.015000", "132315.015000", "132315.031000", "132315.031000", "132315.031000", "132315.031000", "132315.031000", "132315.031000", "132315.046000", "132315.046000", "132315.046000", "132315.046000", "132315.046000", "132315.046000", "132315.046000", "132315.062000", "132315.062000", "132315.062000", "132315.062000", "132335.000000", "132335.000000", "132335.015000", "132335.015000", "132335.015000", "132335.015000", "132335.015000", "132335.015000", "132335.015000", "132335.031000", "132335.031000", "132335.031000", "132335.031000", "132335.031000", "132335.031000", "132335.031000", "132335.046000", "132335.046000", "132335.046000", "132335.046000", "132335.046000", "132335.046000", "132335.062000", "132335.062000", "132335.062000", "132335.062000", "132355.000000", "132355.000000", "132355.015000", "132355.015000", "132355.015000", "132355.015000", "132355.031000", "132355.031000", "132355.031000", "132355.031000", "132355.031000", "132355.046000", "132355.046000", "132355.046000", "132355.046000", "132355.046000", "132355.046000", "132355.046000", "132355.062000", "132355.062000", "132355.062000", "132355.062000", "132355.062000", "132355.062000", "132355.062000", "132415.000000", "132415.000000", "132415.015000", "132415.015000", "132415.015000", "132415.015000", "132415.015000", "132415.015000", "132415.031000", "132415.031000", "132415.031000", "132415.031000", "132415.031000", "132415.031000", "132415.046000", "132415.046000", "132415.046000", "132415.046000", "132415.046000", "132415.046000", "132415.062000", "132415.062000", "132415.062000", "132415.062000", "132415.062000", "132415.062000", "132435.000000", "132435.000000", "132435.015000", "132435.015000", "132435.015000", "132435.015000", "132435.015000", "132435.015000", "132435.015000", "132435.031000", "132435.031000", "132435.031000", "132435.031000", "132435.031000", "132435.046000", "132435.046000", "132435.046000", "132435.046000", "132435.046000", "132435.046000", "132435.062000", "132435.062000", "132435.062000", "132435.062000", "132435.062000", "132455.000000", "132455.000000", "132455.015000", "132455.015000", "132455.015000", "132455.015000", "132455.015000", "132455.015000", "132455.015000", "132455.031000", "132455.031000", "132455.031000", "132455.031000", "132455.031000", "132455.031000", "132455.031000", "132455.046000", "132455.046000", "132455.062000", "132455.062000", "132455.062000", "132455.062000", "132455.062000", "132455.062000", "132455.078000", "132455.078000", "132515.000000", "132515.000000", "132515.015000", "132515.015000", "132515.015000", "132515.015000", "132515.015000", "132515.015000", "132515.015000", "132515.031000", "132515.031000", "132515.031000", "132515.031000", "132515.031000", "132515.031000", "132515.031000", "132515.046000", "132515.046000", "132515.046000", "132515.046000", "132515.046000", "132515.046000", "132515.046000", "132515.062000", "132515.062000", "132515.062000", "132535.000000", "132535.000000", "132535.015000", "132535.015000", "132535.015000", "132535.015000", "132535.015000", "132535.015000", "132535.015000", "132535.031000", "132535.031000", "132535.031000", "132535.031000", "132535.031000", "132535.031000", "132535.031000", "132535.046000", "132535.046000", "132535.046000", "132535.046000", "132535.046000", "132535.046000", "132535.062000", "132535.062000", "132535.062000", "132555.000000", "132555.000000", "132555.015000", "132555.015000", "132555.015000", "132555.015000", "132555.015000", "132555.015000", "132555.015000", "132555.031000", "132555.031000", "132555.031000", "132555.031000", "132555.031000", "132555.031000", "132555.046000", "132555.046000", "132555.046000", "132555.046000", "132555.046000", "132555.046000", "132555.046000", "132555.062000", "132555.062000", "132555.062000", "132615.000000", "132615.000000", "132615.015000", "132615.015000", "132615.015000", "132615.015000", "132615.015000", "132615.015000", "132615.015000", "132615.031000", "132615.031000", "132615.031000", "132615.031000", "132615.031000", "132615.031000", "132615.046000", "132615.046000", "132615.046000", "132615.046000", "132615.046000", "132615.046000", "132615.046000", "132615.062000", "132615.062000", "132615.062000", "132615.062000", "132635.000000", "132635.000000", "132635.015000", "132635.015000", "132635.015000", "132635.015000", "132635.015000", "132635.015000", "132635.031000", "132635.031000", "132635.031000", "132635.031000", "132635.031000", "132635.031000", "132635.046000", "132635.046000", "132635.046000", "132635.046000", "132635.046000", "132635.062000", "132635.062000", "132635.062000", "132635.062000", "132635.062000", "132635.062000", "132655.000000", "132655.000000", "132655.015000", "132655.015000", "132655.015000", "132655.015000", "132655.015000", "132655.015000", "132655.031000", "132655.031000", "132655.031000", "132655.031000", "132655.031000", "132655.031000", "132655.046000", "132655.046000", "132655.046000", "132655.046000", "132655.046000", "132655.062000", "132655.062000", "132655.062000", "132655.062000", "132655.062000", "132655.062000", "132655.078000", "132715.000000", "132715.000000", "132715.015000", "132715.015000", "132715.015000", "132715.015000", "132715.015000", "132715.015000", "132715.015000", "132715.031000", "132715.031000", "132715.031000", "132715.031000", "132715.031000", "132715.031000", "132715.031000", "132715.046000", "132715.046000", "132715.046000", "132715.046000", "132715.046000", "132715.046000", "132715.046000", "132715.062000", "132715.062000", "132735.000000", "132735.000000", "132735.015000", "132735.015000", "132735.015000", "132735.015000", "132735.015000", "132735.015000", "132735.015000", "132735.031000", "132735.031000", "132735.031000", "132735.031000", "132735.031000", "132735.031000", "132735.031000", "132735.046000", "132735.046000", "132735.046000", "132735.046000", "132735.046000", "132735.046000", "132735.046000", "132735.062000", "132735.062000", "132735.062000", "132755.000000", "132755.000000", "132755.015000", "132755.015000", "132755.015000", "132755.015000", "132755.015000", "132755.015000", "132755.015000", "132755.031000", "132755.031000", "132755.031000", "132755.031000", "132755.031000", "132755.046000", "132755.046000", "132755.046000", "132755.046000", "132755.046000", "132755.062000", "132755.062000", "132755.062000", "132755.062000", "132755.062000", "132755.062000", "132815.000000", "132815.000000", "132815.015000", "132815.015000", "132815.015000", "132815.015000", "132815.015000", "132815.015000", "132815.015000", "132815.031000", "132815.031000", "132815.031000", "132815.031000", "132815.031000", "132815.031000", "132815.031000", "132815.046000", "132815.046000", "132815.046000", "132815.046000", "132815.046000", "132815.046000", "132815.046000", "132815.062000", "132815.062000", "132815.062000", "132835.000000", "132835.000000", "132835.015000", "132835.015000", "132835.015000", "132835.015000", "132835.015000", "132835.015000", "132835.015000", "132835.031000", "132835.031000", "132835.031000", "132835.031000", "132835.031000", "132835.031000", "132835.031000", "132835.046000", "132835.046000", "132835.046000", "132835.046000", "132835.046000", "132835.046000", "132835.046000", "132835.062000", "132835.062000", "132855.000000", "132855.000000", "132855.015000", "132855.015000", "132855.015000", "132855.015000", "132855.015000", "132855.031000", "132855.031000", "132855.031000", "132855.031000", "132855.031000", "132855.031000", "132855.031000", "132855.046000", "132855.046000", "132855.046000", "132855.046000", "132855.046000", "132855.046000", "132855.046000", "132855.062000", "132855.062000", "132855.062000", "132855.062000", "132855.062000", "132915.000000", "132915.000000", "132915.015000", "132915.015000", "132915.015000", "132915.015000", "132915.015000", "132915.015000", "132915.015000", "132915.031000", "132915.031000", "132915.031000", "132915.031000", "132915.031000", "132915.031000", "132915.031000", "132915.046000", "132915.046000", "132915.046000", "132915.046000", "132915.046000", "132915.046000", "132915.046000", "132915.062000", "132915.062000", "132928.609000", "132928.609000", "132928.609000", "132928.609000", "132928.625000", "132928.625000", "132928.625000", "132928.625000", "132928.625000", "132928.625000", "132928.625000", "132928.640000", "132928.640000", "132928.640000", "132928.640000", "132928.640000", "132928.640000", "132928.656000"],
      "DataSetTrailingPadding": [
        "\u0000\u0000\u0000\u0000\u0000\u0000\u0000\u0000\u0000\u0000\u0000\u0000",
        "\u0000\u0000\u0000\u0000\u0000\u0000\u0000\u0000\u0000\u0000\u0000\u0000",
        "\u0000\u0000\u0000\u0000\u0000\u0000\u0000\u0000\u0000\u0000\u0000\u0000",
        "\u0000\u0000\u0000\u0000\u0000\u0000\u0000\u0000\u0000\u0000",
        "\u0000\u0000\u0000\u0000\u0000\u0000\u0000\u0000\u0000\u0000\u0000\u0000",
        "\u0000\u0000\u0000\u0000\u0000\u0000\u0000\u0000\u0000\u0000",
        "\u0000\u0000\u0000\u0000\u0000\u0000\u0000\u0000\u0000\u0000",
        "\u0000\u0000\u0000\u0000\u0000\u0000\u0000\u0000\u0000\u0000\u0000\u0000",
        "\u0000\u0000\u0000\u0000\u0000\u0000\u0000\u0000\u0000\u0000",
        "\u0000\u0000\u0000\u0000\u0000\u0000\u0000\u0000",
        "\u0000\u0000\u0000\u0000\u0000\u0000\u0000\u0000",
        "\u0000\u0000\u0000\u0000\u0000\u0000",
        "\u0000\u0000\u0000\u0000\u0000\u0000\u0000\u0000",
        "\u0000\u0000\u0000\u0000\u0000\u0000",
        "\u0000\u0000\u0000\u0000\u0000\u0000",
        "\u0000\u0000\u0000\u0000\u0000\u0000\u0000\u0000",
        "\u0000\u0000\u0000\u0000\u0000\u0000",
        "\u0000\u0000\u0000\u0000\u0000\u0000\u0000\u0000",
        "\u0000\u0000\u0000\u0000\u0000\u0000\u0000\u0000",
        "\u0000\u0000\u0000\u0000\u0000\u0000",
        "\u0000\u0000\u0000\u0000\u0000\u0000\u0000\u0000",
        "\u0000\u0000\u0000\u0000\u0000\u0000\u0000\u0000",
        "\u0000\u0000\u0000\u0000\u0000\u0000",
        "\u0000\u0000\u0000\u0000\u0000\u0000\u0000\u0000",
        "\u0000\u0000\u0000\u0000\u0000\u0000",
        "\u0000\u0000\u0000\u0000\u0000\u0000",
        "\u0000\u0000\u0000\u0000\u0000\u0000\u0000\u0000",
        "\u0000\u0000\u0000\u0000\u0000\u0000",
        "\u0000\u0000\u0000\u0000\u0000\u0000\u0000\u0000",
        "\u0000\u0000\u0000\u0000\u0000\u0000\u0000\u0000",
        "\u0000\u0000\u0000\u0000\u0000\u0000",
        "\u0000\u0000\u0000\u0000\u0000\u0000\u0000\u0000",
