{
  "AcquisitionMatrixPE": 104,
  "AcquisitionNumber": 1,
  "AcquisitionTime": "13:13:33.740000",
  "BandwidthPerPixelPhaseEncode": 13.935,
  "BaseResolution": 104,
  "CoilString": "C:HEA;HEP",
  "ConversionSoftware": "dcm2niix",
  "ConversionSoftwareVersion": "v1.0.20210317",
  "DerivedVendorReportedEchoSpacing": 0.000690017,
  "DeviceSerialNumber": "35450",
  "DwellTime": 2.5e-06,
  "EchoTime": 0.0348,
  "EffectiveEchoSpacing": 0.000690017,
  "FlipAngle": 55,
  "ImageComments": "Unaliased MB8/PE3 (remote)",
  "ImageOrientationPatientDICOM": [0.999968, -0.00301991, -0.00743668, 7.1325e-08, 0.926524, -0.376236],
  "ImageType": [
    "ORIGINAL",
    "PRIMARY",
    "M",
    "MB",
    "ND",
    "MOSAIC"
],
  "ImagingFrequency": 123.234,
  "InPlanePhaseEncodingDirectionDICOM": "COL",
  "InstitutionAddress": "Univeristy Ave. 197,Newark,North East,US,07102-1814",
  "InstitutionName": "RUBIC",
  "InstitutionalDepartmentName": "Department",
  "MRAcquisitionType": "2D",
  "MagneticFieldStrength": 3,
  "Manufacturer": "Siemens",
  "ManufacturersModelName": "TrioTim",
  "Modality": "MR",
  "MultibandAccelerationFactor": 8,
  "PartialFourier": 0.875,
  "PatientPosition": "HFS",
  "PercentPhaseFOV": 100,
  "PercentSampling": 100,
  "PhaseEncodingDirection": "j-",
  "PhaseEncodingSteps": 91,
  "PhaseResolution": 1,
  "PixelBandwidth": 1923,
  "ProcedureStepDescription": "Cole^Michael",
  "ProtocolName": "cmrr_mbep2d_bold_2mm_MB8_Task_8x",
  "PulseSequenceDetails": "%CustomerSeq%\\cmrr_mbep2d_bold",
  "ReceiveCoilName": "32Ch_Head",
  "ReconMatrixPE": 104,
  "RepetitionTime": 0.785,
  "SAR": 0.130346,
  "ScanOptions": "PFP\\FS",
  "ScanningSequence": "EP",
  "SequenceName": "epfid2d1_104",
  "SequenceVariant": "SK\\SS",
  "SeriesDescription": "cmrr_mbep2d_bold_2mm_MB8_Task_8x",
  "SeriesNumber": 15,
  "ShimSetting": [2118, -303, -7371, 461, 84, -486, -118, 86],
  "SliceThickness": 2,
  "SliceTiming": [0, 0.4375, 0.0875, 0.525, 0.175, 0.6125, 0.2625, 0.7, 0.35, 0, 0.4375, 0.0875, 0.525, 0.175, 0.6125, 0.2625, 0.7, 0.35, 0, 0.4375, 0.0875, 0.525, 0.175, 0.6125, 0.2625, 0.7, 0.35, 0, 0.4375, 0.0875, 0.525, 0.175, 0.6125, 0.2625, 0.7, 0.35, 0, 0.4375, 0.0875, 0.525, 0.175, 0.6125, 0.2625, 0.7, 0.35, 0, 0.4375, 0.0875, 0.525, 0.175, 0.6125, 0.2625, 0.7, 0.35, 0, 0.4375, 0.0875, 0.525, 0.175, 0.6125, 0.2625, 0.7, 0.35, 0, 0.4375, 0.0875, 0.525, 0.175, 0.6125, 0.2625, 0.7, 0.35],
  "SoftwareVersions": "syngo MR B19",
  "SpacingBetweenSlices": 2,
  "StationName": "MRC35450",
  "TaskName": "cpro",
  "TotalReadoutTime": 0.0710717,
  "TxRefAmp": 337.31,
  "dcmmeta_affine": [
    [-1.9999356269836426, 1.4265000913837866e-07, -0.016052914783358574, 105.20269012451172],
    [0.006039819680154324, 1.853047490119934, -0.7524482607841492, -61.792930603027344],
    [-0.014873352833092213, 0.752472460269928, 1.8529878854751587, -146.2030792236328],
    [0.0, 0.0, 0.0, 1.0]
],
  "dcmmeta_reorient_transform": [
    [0.0, -1.0, 0.0, 103.0],
    [1.0, 0.0, 0.0, 0.0],
    [0.0, 0.0, 1.0, 0.0],
    [0.0, 0.0, 0.0, 1.0]
],
  "dcmmeta_shape": [104, 104, 72, 581],
  "dcmmeta_slice_dim": 2,
  "dcmmeta_version": 0.6,
  "global": {
    "const": {
      "AcquisitionMatrix": [104, 0, 0, 104],
      "AngioFlag": "N",
      "BitsAllocated": 16,
      "BitsStored": 12,
      "Columns": 936,
      "EchoNumbers": 1,
      "EchoTime": 34.8,
      "EchoTrainLength": 1,
      "FlipAngle": 55.0,
      "HighBit": 11,
      "ImageOrientationPatient": [0.9999677874766, -0.0030199099409, -0.0074366762134, 7.1325003e-08, 0.92652377139362, -0.3762362303694],
      "ImagePositionPatient": [-937.17596396929, -897.42617987152, 250.51744535879],
      "ImageType": [
        "ORIGINAL",
        "PRIMARY",
        "M",
        "MB",
        "ND",
        "MOSAIC"
],
      "ImagedNucleus": "1H",
      "ImagingFrequency": 123.234407,
      "InPlanePhaseEncodingDirection": "COL",
      "MRAcquisitionType": "2D",
      "MagneticFieldStrength": 3.0,
      "Manufacturer": "SIEMENS",
      "ManufacturerModelName": "TrioTim",
      "Modality": "MR",
      "NumberOfAverages": 1.0,
      "NumberOfPhaseEncodingSteps": 91,
      "PercentPhaseFieldOfView": 100.0,
      "PercentSampling": 100.0,
      "PerformedProcedureStepStartTime": "115734.265000",
      "PhotometricInterpretation": "MONOCHROME2",
      "PixelBandwidth": 1923.0,
      "PixelRepresentation": 0,
      "PixelSpacing": [2.0, 2.0],
      "ProtocolName": "cmrr_mbep2d_bold_2mm_MB8_Task_8x",
      "RepetitionTime": 785.0,
      "Rows": 936,
      "SAR": 0.13034647175688,
      "SamplesPerPixel": 1,
      "ScanOptions": [
        "PFP",
        "FS"
],
      "ScanningSequence": "EP",
      "SequenceName": "epfid2d1_104",
      "SequenceVariant": [
        "SK",
        "SS"
],
      "SeriesDescription": "cmrr_mbep2d_bold_2mm_MB8_Task_8x",
      "SeriesNumber": 15,
      "SeriesTime": "131355.062000",
      "SliceLocation": -113.05267704487,
      "SliceThickness": 2.0,
      "SmallestImagePixelValue": 0,
      "SoftwareVersions": "syngo MR B19",
      "SpacingBetweenSlices": 2.0000000547758,
      "SpecificCharacterSet": "ISO_IR 100",
      "StudyID": "1",
      "StudyTime": "115734.125000",
      "TransmitCoilName": "Body",
      "VariableFlipAngleFlag": "N",
      "WindowCenterWidthExplanation": "Algo1",
      "dBdt": 0.0},
    "slices": {}
  },
  "time": {
    "samples": {
      "AcquisitionNumber": [1, 2, 3, 4, 5, 6, 7, 8, 9, 10, 11, 12, 13, 14, 15, 16, 17, 18, 19, 20, 21, 22, 23, 24, 25, 26, 27, 28, 29, 30, 31, 32, 33, 34, 35, 36, 37, 38, 39, 40, 41, 42, 43, 44, 45, 46, 47, 48, 49, 50, 51, 52, 53, 54, 55, 56, 57, 58, 59, 60, 61, 62, 63, 64, 65, 66, 67, 68, 69, 70, 71, 72, 73, 74, 75, 76, 77, 78, 79, 80, 81, 82, 83, 84, 85, 86, 87, 88, 89, 90, 91, 92, 93, 94, 95, 96, 97, 98, 99, 100, 101, 102, 103, 104, 105, 106, 107, 108, 109, 110, 111, 112, 113, 114, 115, 116, 117, 118, 119, 120, 121, 122, 123, 124, 125, 126, 127, 128, 129, 130, 131, 132, 133, 134, 135, 136, 137, 138, 139, 140, 141, 142, 143, 144, 145, 146, 147, 148, 149, 150, 151, 152, 153, 154, 155, 156, 157, 158, 159, 160, 161, 162, 163, 164, 165, 166, 167, 168, 169, 170, 171, 172, 173, 174, 175, 176, 177, 178, 179, 180, 181, 182, 183, 184, 185, 186, 187, 188, 189, 190, 191, 192, 193, 194, 195, 196, 197, 198, 199, 200, 201, 202, 203, 204, 205, 206, 207, 208, 209, 210, 211, 212, 213, 214, 215, 216, 217, 218, 219, 220, 221, 222, 223, 224, 225, 226, 227, 228, 229, 230, 231, 232, 233, 234, 235, 236, 237, 238, 239, 240, 241, 242, 243, 244, 245, 246, 247, 248, 249, 250, 251, 252, 253, 254, 255, 256, 257, 258, 259, 260, 261, 262, 263, 264, 265, 266, 267, 268, 269, 270, 271, 272, 273, 274, 275, 276, 277, 278, 279, 280, 281, 282, 283, 284, 285, 286, 287, 288, 289, 290, 291, 292, 293, 294, 295, 296, 297, 298, 299, 300, 301, 302, 303, 304, 305, 306, 307, 308, 309, 310, 311, 312, 313, 314, 315, 316, 317, 318, 319, 320, 321, 322, 323, 324, 325, 326, 327, 328, 329, 330, 331, 332, 333, 334, 335, 336, 337, 338, 339, 340, 341, 342, 343, 344, 345, 346, 347, 348, 349, 350, 351, 352, 353, 354, 355, 356, 357, 358, 359, 360, 361, 362, 363, 364, 365, 366, 367, 368, 369, 370, 371, 372, 373, 374, 375, 376, 377, 378, 379, 380, 381, 382, 383, 384, 385, 386, 387, 388, 389, 390, 391, 392, 393, 394, 395, 396, 397, 398, 399, 400, 401, 402, 403, 404, 405, 406, 407, 408, 409, 410, 411, 412, 413, 414, 415, 416, 417, 418, 419, 420, 421, 422, 423, 424, 425, 426, 427, 428, 429, 430, 431, 432, 433, 434, 435, 436, 437, 438, 439, 440, 441, 442, 443, 444, 445, 446, 447, 448, 449, 450, 451, 452, 453, 454, 455, 456, 457, 458, 459, 460, 461, 462, 463, 464, 465, 466, 467, 468, 469, 470, 471, 472, 473, 474, 475, 476, 477, 478, 479, 480, 481, 482, 483, 484, 485, 486, 487, 488, 489, 490, 491, 492, 493, 494, 495, 496, 497, 498, 499, 500, 501, 502, 503, 504, 505, 506, 507, 508, 509, 510, 511, 512, 513, 514, 515, 516, 517, 518, 519, 520, 521, 522, 523, 524, 525, 526, 527, 528, 529, 530, 531, 532, 533, 534, 535, 536, 537, 538, 539, 540, 541, 542, 543, 544, 545, 546, 547, 548, 549, 550, 551, 552, 553, 554, 555, 556, 557, 558, 559, 560, 561, 562, 563, 564, 565, 566, 567, 568, 569, 570, 571, 572, 573, 574, 575, 576, 577, 578, 579, 580, 581],
      "AcquisitionTime": ["131333.740000", "131334.530000", "131335.317500", "131336.105000", "131336.892500", "131337.682500", "131338.470000", "131339.257500", "131340.045000", "131340.835000", "131341.622500", "131342.410000", "131343.197500", "131343.987500", "131344.775000", "131345.562500", "131346.352500", "131347.140000", "131347.927500", "131348.715000", "131349.505000", "131350.292500", "131351.080000", "131351.867500", "131352.657500", "131353.445000", "131354.232500", "131355.020000", "131355.810000", "131356.597500", "131357.385000", "131358.172500", "131358.962500", "131359.750000", "131400.537500", "131401.325000", "131402.115000", "131402.902500", "131403.690000", "131404.480000", "131405.267500", "131406.055000", "131406.842500", "131407.632500", "131408.420000", "131409.207500", "131409.995000", "131410.785000", "131411.572500", "131412.360000", "131413.147500", "131413.937500", "131414.725000", "131415.512500", "131416.300000", "131417.090000", "131417.877500", "131418.665000", "131419.452500", "131420.242500", "131421.030000", "131421.817500", "131422.607500", "131423.395000", "131424.182500", "131424.970000", "131425.760000", "131426.547500", "131427.335000", "131428.122500", "131428.912500", "131429.700000", "131430.487500", "131431.275000", "131432.065000", "131432.852500", "131433.640000", "131434.427500", "131435.217500", "131436.005000", "131436.792500", "131437.580000", "131438.370000", "131439.157500", "131439.945000", "131440.735000", "131441.522500", "131442.310000", "131443.097500", "131443.887500", "131444.675000", "131445.462500", "131446.250000", "131447.040000", "131447.827500", "131448.615000", "131449.402500", "131450.192500", "131450.980000", "131451.767500", "131452.555000", "131453.345000", "131454.132500", "131454.920000", "131455.707500", "131456.497500", "131457.285000", "131458.072500", "131458.862500", "131459.650000", "131500.437500", "131501.225000", "131502.015000", "131502.802500", "131503.590000", "131504.377500", "131505.167500", "131505.955000", "131506.742500", "131507.530000", "131508.320000", "131509.107500", "131509.895000", "131510.682500", "131511.472500", "131512.260000", "131513.047500", "131513.835000", "131514.625000", "131515.412500", "131516.200000", "131516.990000", "131517.777500", "131518.565000", "131519.352500", "131520.142500", "131520.930000", "131521.717500", "131522.505000", "131523.295000", "131524.082500", "131524.870000", "131525.657500", "131526.447500", "131527.235000", "131528.022500", "131528.810000", "131529.600000", "131530.387500", "131531.175000", "131531.962500", "131532.752500", "131533.540000", "131534.327500", "131535.117500", "131535.905000", "131536.692500", "131537.480000", "131538.270000", "131539.057500", "131539.845000", "131540.632500", "131541.422500", "131542.210000", "131542.997500", "131543.785000", "131544.575000", "131545.362500", "131546.150000", "131546.937500", "131547.727500", "131548.515000", "131549.302500", "131550.090000", "131550.880000", "131551.667500", "131552.455000", "131553.245000", "131554.032500", "131554.820000", "131555.607500", "131556.397500", "131557.185000", "131557.972500", "131558.760000", "131559.550000", "131600.337500", "131601.125000", "131601.912500", "131602.702500", "131603.490000", "131604.277500", "131605.065000", "131605.855000", "131606.642500", "131607.430000", "131608.220000", "131609.007500", "131609.795000", "131610.582500", "131611.372500", "131612.160000", "131612.947500", "131613.735000", "131614.525000", "131615.312500", "131616.100000", "131616.887500", "131617.677500", "131618.465000", "131619.252500", "131620.040000", "131620.830000", "131621.617500", "131622.405000", "131623.192500", "131623.982500", "131624.770000", "131625.557500", "131626.347500", "131627.135000", "131627.922500", "131628.710000", "131629.500000", "131630.287500", "131631.075000", "131631.862500", "131632.652500", "131633.440000", "131634.227500", "131635.015000", "131635.805000", "131636.592500", "131637.380000", "131638.167500", "131638.957500", "131639.745000", "131640.532500", "131641.320000", "131642.110000", "131642.897500", "131643.685000", "131644.475000", "131645.262500", "131646.050000", "131646.837500", "131647.627500", "131648.415000", "131649.202500", "131649.990000", "131650.780000", "131651.567500", "131652.355000", "131653.142500", "131653.932500", "131654.720000", "131655.507500", "131656.295000", "131657.085000", "131657.872500", "131658.660000", "131659.447500", "131700.237500", "131701.025000", "131701.812500", "131702.602500", "131703.390000", "131704.177500", "131704.965000", "131705.755000", "131706.542500", "131707.330000", "131708.117500", "131708.907500", "131709.695000", "131710.482500", "131711.270000", "131712.060000", "131712.847500", "131713.635000", "131714.422500", "131715.212500", "131716.000000", "131716.787500", "131717.575000", "131718.365000", "131719.152500", "131719.940000", "131720.730000", "131721.517500", "131722.305000", "131723.092500", "131723.882500", "131724.670000", "131725.457500", "131726.245000", "131727.035000", "131727.822500", "131728.610000", "131729.397500", "131730.187500", "131730.975000", "131731.762500", "131732.550000", "131733.340000", "131734.127500", "131734.915000", "131735.702500", "131736.492500", "131737.280000", "131738.067500", "131738.857500", "131739.645000", "131740.432500", "131741.220000", "131742.010000", "131742.797500", "131743.585000", "131744.372500", "131745.162500", "131745.950000", "131746.737500", "131747.525000", "131748.315000", "131749.102500", "131749.890000", "131750.677500", "131751.467500", "131752.255000", "131753.042500", "131753.830000", "131754.620000", "131755.407500", "131756.195000", "131756.985000", "131757.772500", "131758.560000", "131759.347500", "131800.137500", "131800.925000", "131801.712500", "131802.500000", "131803.290000", "131804.077500", "131804.865000", "131805.652500", "131806.442500", "131807.230000", "131808.017500", "131808.805000", "131809.595000", "131810.382500", "131811.170000", "131811.957500", "131812.747500", "131813.535000", "131814.322500", "131815.112500", "131815.900000", "131816.687500", "131817.475000", "131818.265000", "131819.052500", "131819.840000", "131820.627500", "131821.417500", "131822.205000", "131822.992500", "131823.780000", "131824.570000", "131825.357500", "131826.145000", "131826.932500", "131827.722500", "131828.510000", "131829.297500", "131830.085000", "131830.875000", "131831.662500", "131832.450000", "131833.240000", "131834.027500", "131834.815000", "131835.602500", "131836.392500", "131837.180000", "131837.967500", "131838.755000", "131839.545000", "131840.332500", "131841.120000", "131841.907500", "131842.697500", "131843.485000", "131844.272500", "131845.060000", "131845.850000", "131846.637500", "131847.425000", "131848.212500", "131849.002500", "131849.790000", "131850.577500", "131851.367500", "131852.155000", "131852.942500", "131853.730000", "131854.520000", "131855.307500", "131856.095000", "131856.882500", "131857.672500", "131858.460000", "131859.247500", "131900.035000", "131900.825000", "131901.612500", "131902.400000", "131903.187500", "131903.977500", "131904.765000", "131905.552500", "131906.340000", "131907.130000", "131907.917500", "131908.705000", "131909.495000", "131910.282500", "131911.070000", "131911.857500", "131912.647500", "131913.435000", "131914.222500", "131915.010000", "131915.800000", "131916.587500", "131917.375000", "131918.162500", "131918.952500", "131919.740000", "131920.527500", "131921.315000", "131922.105000", "131922.892500", "131923.680000", "131924.470000", "131925.257500", "131926.045000", "131926.832500", "131927.622500", "131928.410000", "131929.197500", "131929.985000", "131930.775000", "131931.562500", "131932.350000", "131933.137500", "131933.927500", "131934.715000", "131935.502500", "131936.290000", "131937.080000", "131937.867500", "131938.655000", "131939.442500", "131940.232500", "131941.020000", "131941.807500", "131942.597500", "131943.385000", "131944.172500", "131944.960000", "131945.750000", "131946.537500", "131947.325000", "131948.112500", "131948.902500", "131949.690000", "131950.477500", "131951.265000", "131952.055000", "131952.842500", "131953.630000", "131954.417500", "131955.207500", "131955.995000", "131956.782500", "131957.570000", "131958.360000", "131959.147500", "131959.935000", "132000.725000", "132001.512500", "132002.300000", "132003.087500", "132003.877500", "132004.665000", "132005.452500", "132006.240000", "132007.030000", "132007.817500", "132008.605000", "132009.392500", "132010.182500", "132010.970000", "132011.757500", "132012.545000", "132013.335000", "132014.122500", "132014.910000", "132015.697500", "132016.487500", "132017.275000", "132018.062500", "132018.852500", "132019.640000", "132020.427500", "132021.215000", "132022.005000", "132022.792500", "132023.580000", "132024.367500", "132025.157500", "132025.945000", "132026.732500", "132027.520000", "132028.310000", "132029.097500", "132029.885000", "132030.672500", "132031.462500", "132032.250000", "132033.037500", "132033.825000", "132034.615000", "132035.402500", "132036.190000", "132036.980000", "132037.767500", "132038.555000", "132039.342500", "132040.132500", "132040.920000", "132041.707500", "132042.495000", "132043.285000", "132044.072500", "132044.860000", "132045.647500", "132046.437500", "132047.225000", "132048.012500", "132048.800000", "132049.590000", "132050.377500", "132051.165000", "132051.952500", "132052.742500", "132053.530000", "132054.317500", "132055.107500", "132055.895000", "132056.682500", "132057.470000", "132058.260000", "132059.047500", "132059.835000", "132100.622500", "132101.412500", "132102.200000", "132102.987500", "132103.775000", "132104.565000", "132105.352500", "132106.140000", "132106.927500", "132107.717500", "132108.505000", "132109.292500", "132110.080000", "132110.870000"],
      "ContentTime": ["131355.062000", "131355.062000", "131355.062000", "131355.062000", "131355.078000", "131355.078000", "131355.078000", "131355.078000", "131355.078000", "131355.078000", "131355.093000", "131355.093000", "131355.093000", "131355.093000", "131355.093000", "131355.093000", "131355.093000", "131355.109000", "131355.109000", "131355.109000", "131355.109000", "131355.109000", "131355.109000", "131355.109000", "131415.031000", "131415.031000", "131415.046000", "131415.046000", "131415.046000", "131415.046000", "131415.046000", "131415.046000", "131415.046000", "131415.062000", "131415.062000", "131415.062000", "131415.062000", "131415.062000", "131415.062000", "131415.062000", "131415.078000", "131415.078000", "131415.078000", "131415.078000", "131415.078000", "131415.078000", "131415.078000", "131415.093000", "131415.093000", "131435.031000", "131435.031000", "131435.046000", "131435.046000", "131435.046000", "131435.046000", "131435.046000", "131435.046000", "131435.046000", "131435.062000", "131435.062000", "131435.062000", "131435.062000", "131435.062000", "131435.062000", "131435.062000", "131435.078000", "131435.078000", "131435.078000", "131435.078000", "131435.078000", "131435.078000", "131435.078000", "131435.093000", "131435.093000", "131435.093000", "131455.031000", "131455.031000", "131455.046000", "131455.046000", "131455.046000", "131455.046000", "131455.046000", "131455.046000", "131455.046000", "131455.062000", "131455.062000", "131455.062000", "131455.062000", "131455.062000", "131455.062000", "131455.062000", "131455.078000", "131455.078000", "131455.078000", "131455.078000", "131455.078000", "131455.078000", "131455.078000", "131455.093000", "131455.093000", "131515.031000", "131515.031000", "131515.046000", "131515.046000", "131515.046000", "131515.046000", "131515.046000", "131515.062000", "131515.062000", "131515.062000", "131515.062000", "131515.062000", "131515.062000", "131515.062000", "131515.078000", "131515.078000", "131515.078000", "131515.078000", "131515.078000", "131515.078000", "131515.078000", "131515.093000", "131515.093000", "131515.093000", "131515.093000", "131515.093000", "131535.031000", "131535.031000", "131535.046000", "131535.046000", "131535.046000", "131535.046000", "131535.046000", "131535.046000", "131535.046000", "131535.062000", "131535.062000", "131535.062000", "131535.062000", "131535.062000", "131535.062000", "131535.062000", "131535.078000", "131535.078000", "131535.078000", "131535.078000", "131535.078000", "131535.078000", "131535.078000", "131535.093000", "131535.093000", "131555.031000", "131555.031000", "131555.046000", "131555.046000", "131555.046000", "131555.046000", "131555.046000", "131555.046000", "131555.046000", "131555.062000", "131555.062000", "131555.062000", "131555.062000", "131555.062000", "131555.078000", "131555.078000", "131555.078000", "131555.078000", "131555.078000", "131555.078000", "131555.078000", "131555.093000", "131555.093000", "131555.093000", "131555.093000", "131555.093000", "131615.031000", "131615.031000", "131615.046000", "131615.046000", "131615.046000", "131615.046000", "131615.046000", "131615.046000", "131615.046000", "131615.062000", "131615.062000", "131615.062000", "131615.062000", "131615.062000", "131615.062000", "131615.062000", "131615.078000", "131615.078000", "131615.078000", "131615.078000", "131615.078000", "131615.078000", "131615.093000", "131615.093000", "131615.093000", "131635.031000", "131635.031000", "131635.046000", "131635.046000", "131635.046000", "131635.046000", "131635.046000", "131635.046000", "131635.046000", "131635.062000", "131635.062000", "131635.062000", "131635.062000", "131635.062000", "131635.062000", "131635.062000", "131635.078000", "131635.078000", "131635.078000", "131635.078000", "131635.078000", "131635.093000", "131635.093000", "131635.093000", "131635.093000", "131635.093000", "131655.031000", "131655.031000", "131655.046000", "131655.046000", "131655.046000", "131655.046000", "131655.046000", "131655.046000", "131655.046000", "131655.062000", "131655.062000", "131655.062000", "131655.062000", "131655.062000", "131655.062000", "131655.062000", "131655.078000", "131655.078000", "131655.078000", "131655.078000", "131655.078000", "131655.093000", "131655.093000", "131655.093000", "131655.093000", "131715.031000", "131715.031000", "131715.046000", "131715.046000", "131715.046000", "131715.046000", "131715.046000", "131715.046000", "131715.046000", "131715.062000", "131715.062000", "131715.062000", "131715.062000", "131715.062000", "131715.062000", "131715.062000", "131715.078000", "131715.078000", "131715.078000", "131715.078000", "131715.078000", "131715.078000", "131715.078000", "131715.093000", "131715.093000", "131715.093000", "131735.031000", "131735.031000", "131735.046000", "131735.046000", "131735.046000", "131735.046000", "131735.046000", "131735.046000", "131735.046000", "131735.062000", "131735.062000", "131735.062000", "131735.062000", "131735.062000", "131735.062000", "131735.062000", "131735.078000", "131735.078000", "131735.078000", "131735.078000", "131735.078000", "131735.093000", "131735.093000", "131735.093000", "131735.093000", "131755.031000", "131755.046000", "131755.046000", "131755.046000", "131755.046000", "131755.046000", "131755.046000", "131755.046000", "131755.062000", "131755.062000", "131755.062000", "131755.062000", "131755.062000", "131755.062000", "131755.078000", "131755.078000", "131755.078000", "131755.078000", "131755.078000", "131755.078000", "131755.078000", "131755.093000", "131755.093000", "131755.093000", "131755.093000", "131815.031000", "131815.031000", "131815.046000", "131815.046000", "131815.046000", "131815.046000", "131815.046000", "131815.062000", "131815.062000", "131815.062000", "131815.062000", "131815.062000", "131815.062000", "131815.062000", "131815.078000", "131815.078000", "131815.078000", "131815.078000", "131815.078000", "131815.078000", "131815.078000", "131815.093000", "131815.093000", "131815.093000", "131815.093000", "131815.093000", "131835.031000", "131835.031000", "131835.046000", "131835.046000", "131835.046000", "131835.046000", "131835.046000", "131835.046000", "131835.046000", "131835.062000", "131835.062000", "131835.062000", "131835.062000", "131835.062000", "131835.062000", "131835.062000", "131835.078000", "131835.078000", "131835.078000", "131835.078000", "131835.078000", "131835.078000", "131835.078000", "131835.093000", "131835.093000", "131835.093000", "131855.031000", "131855.031000", "131855.046000", "131855.046000", "131855.046000", "131855.046000", "131855.046000", "131855.046000", "131855.046000", "131855.062000", "131855.062000", "131855.062000", "131855.062000", "131855.062000", "131855.062000", "131855.062000", "131855.078000", "131855.078000", "131855.078000", "131855.078000", "131855.078000", "131855.078000", "131855.078000", "131855.093000", "131855.093000", "131915.031000", "131915.031000", "131915.046000", "131915.046000", "131915.046000", "131915.046000", "131915.046000", "131915.062000", "131915.062000", "131915.062000", "131915.062000", "131915.078000", "131915.078000", "131915.078000", "131915.078000", "131915.078000", "131915.078000", "131915.093000", "131915.093000", "131915.093000", "131915.093000", "131915.093000", "131915.093000", "131915.109000", "131915.109000", "131935.031000", "131935.031000", "131935.046000", "131935.046000", "131935.046000", "131935.046000", "131935.046000", "131935.046000", "131935.062000", "131935.062000", "131935.062000", "131935.062000", "131935.078000", "131935.078000", "131935.078000", "131935.078000", "131935.078000", "131935.093000", "131935.093000", "131935.093000", "131935.093000", "131935.093000", "131935.109000", "131935.109000", "131935.109000", "131935.109000", "131955.031000", "131955.031000", "131955.046000", "131955.046000", "131955.046000", "131955.046000", "131955.046000", "131955.062000", "131955.062000", "131955.062000", "131955.062000", "131955.062000", "131955.062000", "131955.078000", "131955.078000", "131955.078000", "131955.078000", "131955.078000", "131955.078000", "131955.093000", "131955.093000", "131955.093000", "131955.093000", "131955.093000", "131955.109000", "132015.031000", "132015.031000", "132015.046000", "132015.046000", "132015.046000", "132015.046000", "132015.046000", "132015.046000", "132015.046000", "132015.062000", "132015.062000", "132015.062000", "132015.062000", "132015.062000", "132015.062000", "132015.062000", "132015.078000", "132015.078000", "132015.078000", "132015.078000", "132015.078000", "132015.078000", "132015.078000", "132015.093000", "132015.093000", "132015.093000", "132035.031000", "132035.031000", "132035.046000", "132035.046000", "132035.046000", "132035.046000", "132035.046000", "132035.046000", "132035.046000", "132035.062000", "132035.062000", "132035.062000", "132035.062000", "132035.062000", "132035.062000", "132035.062000", "132035.078000", "132035.078000", "132035.078000", "132035.078000", "132035.078000", "132035.078000", "132035.093000", "132035.093000", "132035.093000", "132055.031000", "132055.031000", "132055.046000", "132055.046000", "132055.046000", "132055.046000", "132055.046000", "132055.046000", "132055.046000", "132055.062000", "132055.062000", "132055.062000", "132055.062000", "132055.062000", "132055.062000", "132055.062000", "132055.078000", "132055.078000", "132055.078000", "132055.078000", "132055.078000", "132055.078000", "132055.078000", "132055.093000", "132055.093000", "132055.093000", "132112.109000", "132112.109000", "132112.109000", "132112.109000", "132112.109000", "132112.109000", "132112.109000", "132112.125000", "132112.125000", "132112.125000", "132112.125000", "132112.125000", "132112.140000", "132112.140000", "132112.140000", "132112.140000", "132112.140000", "132112.140000", "132112.140000", "132112.156000", "132112.156000", "132112.156000"],
      "DataSetTrailingPadding": [
        "\u0000\u0000\u0000\u0000\u0000\u0000\u0000\u0000\u0000\u0000\u0000\u0000",
        "\u0000\u0000\u0000\u0000\u0000\u0000\u0000\u0000\u0000\u0000",
        "\u0000\u0000\u0000\u0000\u0000\u0000\u0000\u0000\u0000\u0000\u0000\u0000",
        "\u0000\u0000\u0000\u0000\u0000\u0000\u0000\u0000\u0000\u0000",
        "\u0000\u0000\u0000\u0000\u0000\u0000\u0000\u0000\u0000\u0000\u0000\u0000",
        "\u0000\u0000\u0000\u0000\u0000\u0000\u0000\u0000\u0000\u0000\u0000\u0000\u0000\u0000",
        "\u0000\u0000\u0000\u0000\u0000\u0000\u0000\u0000\u0000\u0000",
        "\u0000\u0000\u0000\u0000\u0000\u0000\u0000\u0000\u0000\u0000\u0000\u0000",
        "\u0000\u0000\u0000\u0000\u0000\u0000\u0000\u0000\u0000\u0000",
        "\u0000\u0000\u0000\u0000\u0000\u0000",
        "\u0000\u0000\u0000\u0000\u0000\u0000\u0000\u0000",
        "\u0000\u0000\u0000\u0000\u0000\u0000",
        "\u0000\u0000\u0000\u0000\u0000\u0000\u0000\u0000",
        "\u0000\u0000\u0000\u0000\u0000\u0000\u0000\u0000",
        "\u0000\u0000\u0000\u0000\u0000\u0000",
        "\u0000\u0000\u0000\u0000\u0000\u0000\u0000\u0000",
        "\u0000\u0000\u0000\u0000\u0000\u0000\u0000\u0000",
        "\u0000\u0000\u0000\u0000\u0000\u0000",
        "\u0000\u0000\u0000\u0000\u0000\u0000\u0000\u0000",
        "\u0000\u0000\u0000\u0000\u0000\u0000",
        "\u0000\u0000\u0000\u0000\u0000\u0000\u0000\u0000\u0000\u0000",
        "\u0000\u0000\u0000\u0000\u0000\u0000\u0000\u0000",
        "\u0000\u0000\u0000\u0000\u0000\u0000",
        "\u0000\u0000\u0000\u0000\u0000\u0000\u0000\u0000",
        "\u0000\u0000\u0000\u0000\u0000\u0000\u0000\u0000",
        "\u0000\u0000\u0000\u0000\u0000\u0000",
        "\u0000\u0000\u0000\u0000\u0000\u0000\u0000\u0000",
        "\u0000\u0000\u0000\u0000\u0000\u0000",
        "\u0000\u0000\u0000\u0000\u0000\u0000",
        "\u0000\u0000\u0000\u0000\u0000\u0000\u0000\u0000",
        "\u0000\u0000\u0000\u0000\u0000\u0000",
