{
  "AcquisitionMatrixPE": 104,
  "AcquisitionNumber": 1,
  "AcquisitionTime": "13:29:55.725000",
  "BandwidthPerPixelPhaseEncode": 13.935,
  "BaseResolution": 104,
  "CoilString": "C:HEA;HEP",
  "ConversionSoftware": "dcm2niix",
  "ConversionSoftwareVersion": "v1.0.20210317",
  "DerivedVendorReportedEchoSpacing": 0.000690017,
  "DeviceSerialNumber": "35450",
  "DwellTime": 2.5e-06,
  "EchoTime": 0.0348,
  "EffectiveEchoSpacing": 0.000690017,
  "FlipAngle": 55,
  "ImageComments": "Unaliased MB8/PE3 (remote)",
  "ImageOrientationPatientDICOM": [0.999968, -0.00301991, -0.00743668, 7.1325e-08, 0.926524, -0.376236],
  "ImageType": [
    "ORIGINAL",
    "PRIMARY",
    "M",
    "MB",
    "ND",
    "MOSAIC"
],
  "ImagingFrequency": 123.234,
  "InPlanePhaseEncodingDirectionDICOM": "COL",
  "InstitutionAddress": "Univeristy Ave. 197,Newark,North East,US,07102-1814",
  "InstitutionName": "RUBIC",
  "InstitutionalDepartmentName": "Department",
  "MRAcquisitionType": "2D",
  "MagneticFieldStrength": 3,
  "Manufacturer": "Siemens",
  "ManufacturersModelName": "TrioTim",
  "Modality": "MR",
  "MultibandAccelerationFactor": 8,
  "PartialFourier": 0.875,
  "PatientPosition": "HFS",
  "PercentPhaseFOV": 100,
  "PercentSampling": 100,
  "PhaseEncodingDirection": "j-",
  "PhaseEncodingSteps": 91,
  "PhaseResolution": 1,
  "PixelBandwidth": 1923,
  "ProcedureStepDescription": "Cole^Michael",
  "ProtocolName": "cmrr_mbep2d_bold_2mm_MB8_Task_8x",
  "PulseSequenceDetails": "%CustomerSeq%\\cmrr_mbep2d_bold",
  "ReceiveCoilName": "32Ch_Head",
  "ReconMatrixPE": 104,
  "RepetitionTime": 0.785,
  "SAR": 0.130346,
  "ScanOptions": "PFP\\FS",
  "ScanningSequence": "EP",
  "SequenceName": "epfid2d1_104",
  "SequenceVariant": "SK\\SS",
  "SeriesDescription": "cmrr_mbep2d_bold_2mm_MB8_Task_8x",
  "SeriesNumber": 19,
  "ShimSetting": [2118, -303, -7371, 461, 84, -486, -118, 86],
  "SliceThickness": 2,
  "SliceTiming": [0, 0.4375, 0.0875, 0.525, 0.175, 0.6125, 0.2625, 0.7, 0.35, 0, 0.4375, 0.0875, 0.525, 0.175, 0.6125, 0.2625, 0.7, 0.35, 0, 0.4375, 0.0875, 0.525, 0.175, 0.6125, 0.2625, 0.7, 0.35, 0, 0.4375, 0.0875, 0.525, 0.175, 0.6125, 0.2625, 0.7, 0.35, 0, 0.4375, 0.0875, 0.525, 0.175, 0.6125, 0.2625, 0.7, 0.35, 0, 0.4375, 0.0875, 0.525, 0.175, 0.6125, 0.2625, 0.7, 0.35, 0, 0.4375, 0.0875, 0.525, 0.175, 0.6125, 0.2625, 0.7, 0.35, 0, 0.4375, 0.0875, 0.525, 0.175, 0.6125, 0.2625, 0.7, 0.35],
  "SoftwareVersions": "syngo MR B19",
  "SpacingBetweenSlices": 2,
  "StationName": "MRC35450",
  "TaskName": "cpro",
  "TotalReadoutTime": 0.0710717,
  "TxRefAmp": 337.31,
  "dcmmeta_affine": [
    [-1.9999356269836426, 1.4265000913837866e-07, -0.016052914783358574, 105.20269012451172],
    [0.006039819680154324, 1.853047490119934, -0.7524482607841492, -61.792930603027344],
    [-0.014873352833092213, 0.752472460269928, 1.8529878854751587, -146.2030792236328],
    [0.0, 0.0, 0.0, 1.0]
],
  "dcmmeta_reorient_transform": [
    [0.0, -1.0, 0.0, 103.0],
    [1.0, 0.0, 0.0, 0.0],
    [0.0, 0.0, 1.0, 0.0],
    [0.0, 0.0, 0.0, 1.0]
],
  "dcmmeta_shape": [104, 104, 72, 581],
  "dcmmeta_slice_dim": 2,
  "dcmmeta_version": 0.6,
  "global": {
    "const": {
      "AcquisitionMatrix": [104, 0, 0, 104],
      "AngioFlag": "N",
      "BitsAllocated": 16,
      "BitsStored": 12,
      "Columns": 936,
      "EchoNumbers": 1,
      "EchoTime": 34.8,
      "EchoTrainLength": 1,
      "FlipAngle": 55.0,
      "HighBit": 11,
      "ImageOrientationPatient": [0.9999677874766, -0.0030199099409, -0.0074366762134, 7.1325003e-08, 0.92652377139362, -0.3762362303694],
      "ImagePositionPatient": [-937.17596396929, -897.42617987152, 250.51744535879],
      "ImageType": [
        "ORIGINAL",
        "PRIMARY",
        "M",
        "MB",
        "ND",
        "MOSAIC"
],
      "ImagedNucleus": "1H",
      "ImagingFrequency": 123.234407,
      "InPlanePhaseEncodingDirection": "COL",
      "MRAcquisitionType": "2D",
      "MagneticFieldStrength": 3.0,
      "Manufacturer": "SIEMENS",
      "ManufacturerModelName": "TrioTim",
      "Modality": "MR",
      "NumberOfAverages": 1.0,
      "NumberOfPhaseEncodingSteps": 91,
      "PercentPhaseFieldOfView": 100.0,
      "PercentSampling": 100.0,
      "PerformedProcedureStepStartTime": "115734.265000",
      "PhotometricInterpretation": "MONOCHROME2",
      "PixelBandwidth": 1923.0,
      "PixelRepresentation": 0,
      "PixelSpacing": [2.0, 2.0],
      "ProtocolName": "cmrr_mbep2d_bold_2mm_MB8_Task_8x",
      "RepetitionTime": 785.0,
      "Rows": 936,
      "SAR": 0.13034647175688,
      "SamplesPerPixel": 1,
      "ScanOptions": [
        "PFP",
        "FS"
],
      "ScanningSequence": "EP",
      "SequenceName": "epfid2d1_104",
      "SequenceVariant": [
        "SK",
        "SS"
],
      "SeriesDescription": "cmrr_mbep2d_bold_2mm_MB8_Task_8x",
      "SeriesNumber": 19,
      "SeriesTime": "133016.125000",
      "SliceLocation": -113.05267704487,
      "SliceThickness": 2.0,
      "SmallestImagePixelValue": 0,
      "SoftwareVersions": "syngo MR B19",
      "SpacingBetweenSlices": 2.0000000547758,
      "SpecificCharacterSet": "ISO_IR 100",
      "StudyID": "1",
      "StudyTime": "115734.125000",
      "TransmitCoilName": "Body",
      "VariableFlipAngleFlag": "N",
      "WindowCenterWidthExplanation": "Algo1",
      "dBdt": 0.0},
    "slices": {}
  },
  "time": {
    "samples": {
      "AcquisitionNumber": [1, 2, 3, 4, 5, 6, 7, 8, 9, 10, 11, 12, 13, 14, 15, 16, 17, 18, 19, 20, 21, 22, 23, 24, 25, 26, 27, 28, 29, 30, 31, 32, 33, 34, 35, 36, 37, 38, 39, 40, 41, 42, 43, 44, 45, 46, 47, 48, 49, 50, 51, 52, 53, 54, 55, 56, 57, 58, 59, 60, 61, 62, 63, 64, 65, 66, 67, 68, 69, 70, 71, 72, 73, 74, 75, 76, 77, 78, 79, 80, 81, 82, 83, 84, 85, 86, 87, 88, 89, 90, 91, 92, 93, 94, 95, 96, 97, 98, 99, 100, 101, 102, 103, 104, 105, 106, 107, 108, 109, 110, 111, 112, 113, 114, 115, 116, 117, 118, 119, 120, 121, 122, 123, 124, 125, 126, 127, 128, 129, 130, 131, 132, 133, 134, 135, 136, 137, 138, 139, 140, 141, 142, 143, 144, 145, 146, 147, 148, 149, 150, 151, 152, 153, 154, 155, 156, 157, 158, 159, 160, 161, 162, 163, 164, 165, 166, 167, 168, 169, 170, 171, 172, 173, 174, 175, 176, 177, 178, 179, 180, 181, 182, 183, 184, 185, 186, 187, 188, 189, 190, 191, 192, 193, 194, 195, 196, 197, 198, 199, 200, 201, 202, 203, 204, 205, 206, 207, 208, 209, 210, 211, 212, 213, 214, 215, 216, 217, 218, 219, 220, 221, 222, 223, 224, 225, 226, 227, 228, 229, 230, 231, 232, 233, 234, 235, 236, 237, 238, 239, 240, 241, 242, 243, 244, 245, 246, 247, 248, 249, 250, 251, 252, 253, 254, 255, 256, 257, 258, 259, 260, 261, 262, 263, 264, 265, 266, 267, 268, 269, 270, 271, 272, 273, 274, 275, 276, 277, 278, 279, 280, 281, 282, 283, 284, 285, 286, 287, 288, 289, 290, 291, 292, 293, 294, 295, 296, 297, 298, 299, 300, 301, 302, 303, 304, 305, 306, 307, 308, 309, 310, 311, 312, 313, 314, 315, 316, 317, 318, 319, 320, 321, 322, 323, 324, 325, 326, 327, 328, 329, 330, 331, 332, 333, 334, 335, 336, 337, 338, 339, 340, 341, 342, 343, 344, 345, 346, 347, 348, 349, 350, 351, 352, 353, 354, 355, 356, 357, 358, 359, 360, 361, 362, 363, 364, 365, 366, 367, 368, 369, 370, 371, 372, 373, 374, 375, 376, 377, 378, 379, 380, 381, 382, 383, 384, 385, 386, 387, 388, 389, 390, 391, 392, 393, 394, 395, 396, 397, 398, 399, 400, 401, 402, 403, 404, 405, 406, 407, 408, 409, 410, 411, 412, 413, 414, 415, 416, 417, 418, 419, 420, 421, 422, 423, 424, 425, 426, 427, 428, 429, 430, 431, 432, 433, 434, 435, 436, 437, 438, 439, 440, 441, 442, 443, 444, 445, 446, 447, 448, 449, 450, 451, 452, 453, 454, 455, 456, 457, 458, 459, 460, 461, 462, 463, 464, 465, 466, 467, 468, 469, 470, 471, 472, 473, 474, 475, 476, 477, 478, 479, 480, 481, 482, 483, 484, 485, 486, 487, 488, 489, 490, 491, 492, 493, 494, 495, 496, 497, 498, 499, 500, 501, 502, 503, 504, 505, 506, 507, 508, 509, 510, 511, 512, 513, 514, 515, 516, 517, 518, 519, 520, 521, 522, 523, 524, 525, 526, 527, 528, 529, 530, 531, 532, 533, 534, 535, 536, 537, 538, 539, 540, 541, 542, 543, 544, 545, 546, 547, 548, 549, 550, 551, 552, 553, 554, 555, 556, 557, 558, 559, 560, 561, 562, 563, 564, 565, 566, 567, 568, 569, 570, 571, 572, 573, 574, 575, 576, 577, 578, 579, 580, 581],
      "AcquisitionTime": ["132955.725000", "132956.512500", "132957.300000", "132958.087500", "132958.877500", "132959.665000", "133000.452500", "133001.240000", "133002.030000", "133002.817500", "133003.605000", "133004.392500", "133005.182500", "133005.970000", "133006.757500", "133007.545000", "133008.335000", "133009.122500", "133009.910000", "133010.697500", "133011.487500", "133012.275000", "133013.062500", "133013.852500", "133014.640000", "133015.427500", "133016.215000", "133017.005000", "133017.792500", "133018.580000", "133019.367500", "133020.157500", "133020.945000", "133021.732500", "133022.520000", "133023.310000", "133024.097500", "133024.885000", "133025.672500", "133026.462500", "133027.250000", "133028.037500", "133028.825000", "133029.615000", "133030.402500", "133031.190000", "133031.980000", "133032.767500", "133033.555000", "133034.342500", "133035.132500", "133035.920000", "133036.707500", "133037.495000", "133038.285000", "133039.072500", "133039.860000", "133040.647500", "133041.437500", "133042.225000", "133043.012500", "133043.800000", "133044.590000", "133045.377500", "133046.165000", "133046.952500", "133047.742500", "133048.530000", "133049.317500", "133050.107500", "133050.895000", "133051.682500", "133052.470000", "133053.260000", "133054.047500", "133054.835000", "133055.622500", "133056.412500", "133057.200000", "133057.987500", "133058.775000", "133059.565000", "133100.352500", "133101.140000", "133101.927500", "133102.717500", "133103.505000", "133104.292500", "133105.080000", "133105.870000", "133106.657500", "133107.445000", "133108.235000", "133109.022500", "133109.810000", "133110.597500", "133111.387500", "133112.175000", "133112.962500", "133113.750000", "133114.540000", "133115.327500", "133116.115000", "133116.902500", "133117.692500", "133118.480000", "133119.267500", "133120.055000", "133120.845000", "133121.632500", "133122.420000", "133123.207500", "133123.997500", "133124.785000", "133125.572500", "133126.362500", "133127.150000", "133127.937500", "133128.725000", "133129.515000", "133130.302500", "133131.090000", "133131.877500", "133132.667500", "133133.455000", "133134.242500", "133135.030000", "133135.820000", "133136.607500", "133137.395000", "133138.182500", "133138.972500", "133139.760000", "133140.547500", "133141.335000", "133142.125000", "133142.912500", "133143.700000", "133144.490000", "133145.277500", "133146.065000", "133146.852500", "133147.642500", "133148.430000", "133149.217500", "133150.005000", "133150.795000", "133151.582500", "133152.370000", "133153.157500", "133153.947500", "133154.735000", "133155.522500", "133156.310000", "133157.100000", "133157.887500", "133158.675000", "133159.462500", "133200.252500", "133201.040000", "133201.827500", "133202.617500", "133203.405000", "133204.192500", "133204.980000", "133205.770000", "133206.557500", "133207.345000", "133208.132500", "133208.922500", "133209.710000", "133210.497500", "133211.285000", "133212.075000", "133212.862500", "133213.650000", "133214.437500", "133215.227500", "133216.015000", "133216.802500", "133217.590000", "133218.380000", "133219.167500", "133219.955000", "133220.745000", "133221.532500", "133222.320000", "133223.107500", "133223.897500", "133224.685000", "133225.472500", "133226.260000", "133227.050000", "133227.837500", "133228.625000", "133229.412500", "133230.202500", "133230.990000", "133231.777500", "133232.565000", "133233.355000", "133234.142500", "133234.930000", "133235.717500", "133236.507500", "133237.295000", "133238.082500", "133238.872500", "133239.660000", "133240.447500", "133241.235000", "133242.025000", "133242.812500", "133243.600000", "133244.387500", "133245.177500", "133245.965000", "133246.752500", "133247.540000", "133248.330000", "133249.117500", "133249.905000", "133250.692500", "133251.482500", "133252.270000", "133253.057500", "133253.847500", "133254.635000", "133255.422500", "133256.210000", "133257.000000", "133257.787500", "133258.575000", "133259.362500", "133300.152500", "133300.940000", "133301.727500", "133302.515000", "133303.305000", "133304.092500", "133304.880000", "133305.667500", "133306.457500", "133307.245000", "133308.032500", "133308.820000", "133309.610000", "133310.397500", "133311.185000", "133311.975000", "133312.762500", "133313.550000", "133314.337500", "133315.127500", "133315.915000", "133316.702500", "133317.490000", "133318.280000", "133319.067500", "133319.855000", "133320.642500", "133321.432500", "133322.220000", "133323.007500", "133323.795000", "133324.585000", "133325.372500", "133326.160000", "133326.947500", "133327.737500", "133328.525000", "133329.312500", "133330.102500", "133330.890000", "133331.677500", "133332.465000", "133333.255000", "133334.042500", "133334.830000", "133335.617500", "133336.407500", "133337.195000", "133337.982500", "133338.770000", "133339.560000", "133340.347500", "133341.135000", "133341.922500", "133342.712500", "133343.500000", "133344.287500", "133345.075000", "133345.865000", "133346.652500", "133347.440000", "133348.230000", "133349.017500", "133349.805000", "133350.592500", "133351.382500", "133352.170000", "133352.957500", "133353.745000", "133354.535000", "133355.322500", "133356.110000", "133356.897500", "133357.687500", "133358.475000", "133359.262500", "133400.050000", "133400.840000", "133401.627500", "133402.415000", "133403.202500", "133403.992500", "133404.780000", "133405.567500", "133406.357500", "133407.145000", "133407.932500", "133408.720000", "133409.510000", "133410.297500", "133411.085000", "133411.872500", "133412.662500", "133413.450000", "133414.237500", "133415.025000", "133415.815000", "133416.602500", "133417.390000", "133418.177500", "133418.967500", "133419.755000", "133420.542500", "133421.330000", "133422.120000", "133422.907500", "133423.695000", "133424.485000", "133425.272500", "133426.060000", "133426.847500", "133427.637500", "133428.425000", "133429.212500", "133430.000000", "133430.790000", "133431.577500", "133432.365000", "133433.152500", "133433.942500", "133434.730000", "133435.517500", "133436.305000", "133437.095000", "133437.882500", "133438.670000", "133439.457500", "133440.247500", "133441.035000", "133441.822500", "133442.612500", "133443.400000", "133444.187500", "133444.975000", "133445.765000", "133446.552500", "133447.340000", "133448.127500", "133448.917500", "133449.705000", "133450.492500", "133451.280000", "133452.070000", "133452.857500", "133453.645000", "133454.432500", "133455.222500", "133456.010000", "133456.797500", "133457.585000", "133458.375000", "133459.162500", "133459.950000", "133500.740000", "133501.527500", "133502.315000", "133503.102500", "133503.892500", "133504.680000", "133505.467500", "133506.255000", "133507.045000", "133507.832500", "133508.620000", "133509.407500", "133510.197500", "133510.985000", "133511.772500", "133512.560000", "133513.350000", "133514.137500", "133514.925000", "133515.712500", "133516.502500", "133517.290000", "133518.077500", "133518.867500", "133519.655000", "133520.442500", "133521.230000", "133522.020000", "133522.807500", "133523.595000", "133524.382500", "133525.172500", "133525.960000", "133526.747500", "133527.535000", "133528.325000", "133529.112500", "133529.900000", "133530.687500", "133531.477500", "133532.265000", "133533.052500", "133533.840000", "133534.630000", "133535.417500", "133536.205000", "133536.995000", "133537.782500", "133538.570000", "133539.357500", "133540.147500", "133540.935000", "133541.722500", "133542.510000", "133543.300000", "133544.087500", "133544.875000", "133545.662500", "133546.452500", "133547.240000", "133548.027500", "133548.815000", "133549.605000", "133550.392500", "133551.180000", "133551.967500", "133552.757500", "133553.545000", "133554.332500", "133555.122500", "133555.910000", "133556.697500", "133557.485000", "133558.275000", "133559.062500", "133559.850000", "133600.637500", "133601.427500", "133602.215000", "133603.002500", "133603.790000", "133604.580000", "133605.367500", "133606.155000", "133606.942500", "133607.732500", "133608.520000", "133609.307500", "133610.097500", "133610.885000", "133611.672500", "133612.460000", "133613.250000", "133614.037500", "133614.825000", "133615.612500", "133616.402500", "133617.190000", "133617.977500", "133618.765000", "133619.555000", "133620.342500", "133621.130000", "133621.917500", "133622.707500", "133623.495000", "133624.282500", "133625.070000", "133625.860000", "133626.647500", "133627.435000", "133628.225000", "133629.012500", "133629.800000", "133630.587500", "133631.377500", "133632.165000", "133632.952500", "133633.740000", "133634.530000", "133635.317500", "133636.105000", "133636.892500", "133637.682500", "133638.470000", "133639.257500", "133640.045000", "133640.835000", "133641.622500", "133642.410000", "133643.197500", "133643.987500", "133644.775000", "133645.562500", "133646.352500", "133647.140000", "133647.927500", "133648.715000", "133649.505000", "133650.292500", "133651.080000", "133651.867500", "133652.657500", "133653.445000", "133654.232500", "133655.020000", "133655.810000", "133656.597500", "133657.385000", "133658.172500", "133658.962500", "133659.750000", "133700.537500", "133701.325000", "133702.115000", "133702.902500", "133703.690000", "133704.480000", "133705.267500", "133706.055000", "133706.842500", "133707.632500", "133708.420000", "133709.207500", "133709.995000", "133710.785000", "133711.572500", "133712.360000", "133713.147500", "133713.937500", "133714.725000", "133715.512500", "133716.300000", "133717.090000", "133717.877500", "133718.665000", "133719.452500", "133720.242500", "133721.030000", "133721.817500", "133722.607500", "133723.395000", "133724.182500", "133724.970000", "133725.760000", "133726.547500", "133727.335000", "133728.122500", "133728.912500", "133729.700000", "133730.487500", "133731.275000", "133732.065000", "133732.852500"],
      "ContentTime": ["133016.125000", "133016.125000", "133016.125000", "133016.125000", "133016.125000", "133016.125000", "133016.140000", "133016.140000", "133016.140000", "133016.140000", "133016.140000", "133016.140000", "133016.156000", "133016.156000", "133016.156000", "133016.156000", "133016.156000", "133016.156000", "133016.156000", "133016.171000", "133016.171000", "133016.171000", "133036.093000", "133036.093000", "133036.109000", "133036.109000", "133036.109000", "133036.109000", "133036.109000", "133036.109000", "133036.109000", "133036.125000", "133036.125000", "133036.125000", "133036.125000", "133036.125000", "133036.125000", "133036.125000", "133036.140000", "133036.140000", "133036.140000", "133036.140000", "133036.140000", "133036.140000", "133036.140000", "133036.156000", "133036.156000", "133036.156000", "133056.093000", "133056.093000", "133056.109000", "133056.109000", "133056.109000", "133056.109000", "133056.109000", "133056.109000", "133056.109000", "133056.125000", "133056.125000", "133056.125000", "133056.125000", "133056.125000", "133056.125000", "133056.125000", "133056.140000", "133056.140000", "133056.140000", "133056.140000", "133056.140000", "133056.140000", "133056.140000", "133056.156000", "133056.156000", "133116.093000", "133116.093000", "133116.109000", "133116.109000", "133116.109000", "133116.109000", "133116.109000", "133116.109000", "133116.109000", "133116.125000", "133116.125000", "133116.125000", "133116.125000", "133116.125000", "133116.125000", "133116.125000", "133116.140000", "133116.140000", "133116.140000", "133116.140000", "133116.156000", "133116.156000", "133116.156000", "133116.156000", "133116.156000", "133116.156000", "133136.093000", "133136.093000", "133136.109000", "133136.109000", "133136.109000", "133136.109000", "133136.109000", "133136.109000", "133136.109000", "133136.125000", "133136.125000", "133136.125000", "133136.125000", "133136.125000", "133136.125000", "133136.125000", "133136.140000", "133136.140000", "133136.140000", "133136.140000", "133136.140000", "133136.140000", "133136.140000", "133136.156000", "133136.156000", "133156.093000", "133156.093000", "133156.109000", "133156.109000", "133156.109000", "133156.109000", "133156.109000", "133156.109000", "133156.109000", "133156.125000", "133156.125000", "133156.125000", "133156.125000", "133156.125000", "133156.125000", "133156.125000", "133156.140000", "133156.140000", "133156.140000", "133156.140000", "133156.140000", "133156.140000", "133156.140000", "133156.156000", "133156.156000", "133156.156000", "133216.093000", "133216.093000", "133216.109000", "133216.109000", "133216.109000", "133216.109000", "133216.109000", "133216.109000", "133216.109000", "133216.125000", "133216.125000", "133216.125000", "133216.125000", "133216.125000", "133216.125000", "133216.125000", "133216.140000", "133216.140000", "133216.140000", "133216.140000", "133216.140000", "133216.140000", "133216.156000", "133216.156000", "133216.156000", "133236.093000", "133236.093000", "133236.109000", "133236.109000", "133236.109000", "133236.109000", "133236.109000", "133236.109000", "133236.109000", "133236.125000", "133236.125000", "133236.125000", "133236.125000", "133236.125000", "133236.125000", "133236.125000", "133236.140000", "133236.140000", "133236.140000", "133236.140000", "133236.140000", "133236.140000", "133236.140000", "133236.156000", "133236.156000", "133236.156000", "133256.093000", "133256.109000", "133256.109000", "133256.109000", "133256.109000", "133256.109000", "133256.109000", "133256.109000", "133256.125000", "133256.125000", "133256.125000", "133256.125000", "133256.125000", "133256.125000", "133256.125000", "133256.140000", "133256.140000", "133256.140000", "133256.140000", "133256.140000", "133256.140000", "133256.156000", "133256.156000", "133256.156000", "133256.156000", "133316.093000", "133316.093000", "133316.109000", "133316.109000", "133316.109000", "133316.109000", "133316.109000", "133316.109000", "133316.109000", "133316.125000", "133316.125000", "133316.125000", "133316.125000", "133316.125000", "133316.125000", "133316.125000", "133316.140000", "133316.140000", "133316.140000", "133316.140000", "133316.140000", "133316.140000", "133316.140000", "133316.156000", "133316.156000", "133316.156000", "133336.093000", "133336.093000", "133336.109000", "133336.109000", "133336.109000", "133336.109000", "133336.109000", "133336.109000", "133336.109000", "133336.125000", "133336.125000", "133336.125000", "133336.125000", "133336.125000", "133336.125000", "133336.125000", "133336.140000", "133336.140000", "133336.140000", "133336.140000", "133336.140000", "133336.140000", "133336.156000", "133336.156000", "133336.156000", "133356.093000", "133356.093000", "133356.109000", "133356.109000", "133356.109000", "133356.109000", "133356.109000", "133356.109000", "133356.109000", "133356.125000", "133356.125000", "133356.125000", "133356.125000", "133356.125000", "133356.125000", "133356.125000", "133356.140000", "133356.140000", "133356.140000", "133356.140000", "133356.140000", "133356.140000", "133356.140000", "133356.156000", "133356.156000", "133356.156000", "133416.093000", "133416.093000", "133416.109000", "133416.109000", "133416.109000", "133416.109000", "133416.109000", "133416.109000", "133416.109000", "133416.125000", "133416.125000", "133416.125000", "133416.125000", "133416.125000", "133416.125000", "133416.125000", "133416.140000", "133416.140000", "133416.140000", "133416.140000", "133416.140000", "133416.140000", "133416.140000", "133416.156000", "133416.156000", "133436.093000", "133436.093000", "133436.109000", "133436.109000", "133436.109000", "133436.109000", "133436.109000", "133436.109000", "133436.109000", "133436.125000", "133436.125000", "133436.125000", "133436.125000", "133436.125000", "133436.125000", "133436.125000", "133436.140000", "133436.140000", "133436.140000", "133436.140000", "133436.140000", "133436.140000", "133436.156000", "133436.156000", "133436.156000", "133436.156000", "133456.093000", "133456.093000", "133456.109000", "133456.109000", "133456.109000", "133456.109000", "133456.109000", "133456.109000", "133456.109000", "133456.125000", "133456.125000", "133456.125000", "133456.125000", "133456.125000", "133456.125000", "133456.125000", "133456.140000", "133456.140000", "133456.140000", "133456.140000", "133456.140000", "133456.140000", "133456.156000", "133456.156000", "133456.156000", "133516.093000", "133516.093000", "133516.109000", "133516.109000", "133516.109000", "133516.109000", "133516.109000", "133516.109000", "133516.109000", "133516.125000", "133516.125000", "133516.125000", "133516.125000", "133516.125000", "133516.125000", "133516.125000", "133516.140000", "133516.140000", "133516.140000", "133516.140000", "133516.140000", "133516.156000", "133516.156000", "133516.156000", "133516.156000", "133516.156000", "133536.093000", "133536.093000", "133536.109000", "133536.109000", "133536.109000", "133536.109000", "133536.109000", "133536.109000", "133536.109000", "133536.125000", "133536.125000", "133536.125000", "133536.125000", "133536.125000", "133536.125000", "133536.125000", "133536.140000", "133536.140000", "133536.140000", "133536.140000", "133536.140000", "133536.140000", "133536.156000", "133536.156000", "133536.156000", "133556.093000", "133556.093000", "133556.109000", "133556.109000", "133556.109000", "133556.109000", "133556.109000", "133556.109000", "133556.109000", "133556.125000", "133556.125000", "133556.125000", "133556.125000", "133556.125000", "133556.125000", "133556.125000", "133556.140000", "133556.140000", "133556.140000", "133556.140000", "133556.140000", "133556.140000", "133556.140000", "133556.156000", "133556.156000", "133616.093000", "133616.093000", "133616.109000", "133616.109000", "133616.109000", "133616.109000", "133616.109000", "133616.109000", "133616.109000", "133616.125000", "133616.125000", "133616.125000", "133616.125000", "133616.125000", "133616.125000", "133616.125000", "133616.140000", "133616.140000", "133616.140000", "133616.140000", "133616.140000", "133616.140000", "133616.156000", "133616.156000", "133616.156000", "133616.156000", "133636.093000", "133636.093000", "133636.109000", "133636.109000", "133636.109000", "133636.109000", "133636.109000", "133636.109000", "133636.109000", "133636.125000", "133636.125000", "133636.125000", "133636.125000", "133636.125000", "133636.125000", "133636.125000", "133636.140000", "133636.140000", "133636.140000", "133636.140000", "133636.140000", "133636.140000", "133636.156000", "133636.156000", "133636.156000", "133656.093000", "133656.093000", "133656.109000", "133656.109000", "133656.109000", "133656.109000", "133656.109000", "133656.109000", "133656.109000", "133656.125000", "133656.125000", "133656.125000", "133656.125000", "133656.125000", "133656.125000", "133656.125000", "133656.140000", "133656.140000", "133656.140000", "133656.140000", "133656.140000", "133656.140000", "133656.156000", "133656.156000", "133656.156000", "133656.156000", "133716.093000", "133716.093000", "133716.109000", "133716.109000", "133716.109000", "133716.109000", "133716.109000", "133716.109000", "133716.109000", "133716.125000", "133716.125000", "133716.125000", "133716.125000", "133716.125000", "133716.125000", "133716.125000", "133716.140000", "133716.140000", "133716.140000", "133716.140000", "133716.140000", "133716.140000", "133716.156000", "133716.156000", "133716.156000", "133734.312000", "133734.312000", "133734.328000", "133734.328000", "133734.328000", "133734.328000", "133734.343000", "133734.343000", "133734.343000", "133734.343000", "133734.343000", "133734.343000", "133734.343000", "133734.359000", "133734.359000", "133734.359000", "133734.359000", "133734.359000", "133734.359000", "133734.359000", "133734.375000", "133734.375000", "133734.375000", "133734.375000"],
      "DataSetTrailingPadding": [
        "\u0000\u0000\u0000\u0000\u0000\u0000\u0000\u0000\u0000\u0000\u0000\u0000\u0000\u0000",
        "\u0000\u0000\u0000\u0000\u0000\u0000\u0000\u0000\u0000\u0000",
        "\u0000\u0000\u0000\u0000\u0000\u0000\u0000\u0000\u0000\u0000\u0000\u0000",
        "\u0000\u0000\u0000\u0000\u0000\u0000\u0000\u0000\u0000\u0000",
        "\u0000\u0000\u0000\u0000\u0000\u0000\u0000\u0000\u0000\u0000\u0000\u0000\u0000\u0000",
        "\u0000\u0000\u0000\u0000\u0000\u0000\u0000\u0000\u0000\u0000\u0000\u0000\u0000\u0000\u0000\u0000\u0000\u0000",
        "\u0000\u0000\u0000\u0000\u0000\u0000\u0000\u0000\u0000\u0000",
        "\u0000\u0000\u0000\u0000\u0000\u0000\u0000\u0000\u0000\u0000\u0000\u0000",
        "\u0000\u0000\u0000\u0000\u0000\u0000\u0000\u0000\u0000\u0000\u0000\u0000",
        "\u0000\u0000\u0000\u0000\u0000\u0000",
        "\u0000\u0000\u0000\u0000\u0000\u0000\u0000\u0000",
        "\u0000\u0000\u0000\u0000\u0000\u0000",
        "\u0000\u0000\u0000\u0000\u0000\u0000",
        "\u0000\u0000\u0000\u0000\u0000\u0000\u0000\u0000",
        "\u0000\u0000\u0000\u0000\u0000\u0000",
        "\u0000\u0000\u0000\u0000\u0000\u0000\u0000\u0000",
        "\u0000\u0000\u0000\u0000\u0000\u0000\u0000\u0000",
        "\u0000\u0000\u0000\u0000\u0000\u0000",
        "\u0000\u0000\u0000\u0000\u0000\u0000\u0000\u0000",
        "\u0000\u0000\u0000\u0000\u0000\u0000",
        "\u0000\u0000\u0000\u0000\u0000\u0000",
        "\u0000\u0000\u0000\u0000\u0000\u0000\u0000\u0000",
        "\u0000\u0000\u0000\u0000\u0000\u0000",
        "\u0000\u0000\u0000\u0000\u0000\u0000\u0000\u0000\u0000\u0000",
        "\u0000\u0000\u0000\u0000\u0000\u0000\u0000\u0000",
        "\u0000\u0000\u0000\u0000\u0000\u0000",
        "\u0000\u0000\u0000\u0000\u0000\u0000\u0000\u0000",
        "\u0000\u0000\u0000\u0000\u0000\u0000\u0000\u0000",
        "\u0000\u0000\u0000\u0000\u0000\u0000",
        "\u0000\u0000\u0000\u0000\u0000\u0000\u0000\u0000",
