{
  "AcquisitionMatrixPE": 104,
  "AcquisitionNumber": 1,
  "AcquisitionTime": "16:25:4.715000",
  "BandwidthPerPixelPhaseEncode": 13.935,
  "BaseResolution": 104,
  "CoilString": "C:HEA;HEP",
  "ConversionSoftware": "dcm2niix",
  "ConversionSoftwareVersion": "v1.0.20210317",
  "DerivedVendorReportedEchoSpacing": 0.000690017,
  "DeviceSerialNumber": "35450",
  "DwellTime": 2.5e-06,
  "EchoTime": 0.0348,
  "EffectiveEchoSpacing": 0.000690017,
  "FlipAngle": 55,
  "ImageComments": "Unaliased MB8/PE3",
  "ImageOrientationPatientDICOM": [1, 0, 0, 0, 0.997441, -0.0714974],
  "ImageType": [
    "ORIGINAL",
    "PRIMARY",
    "M",
    "MB",
    "ND",
    "MOSAIC"
],
  "ImagingFrequency": 123.234,
  "InPlanePhaseEncodingDirectionDICOM": "COL",
  "InstitutionAddress": "Univeristy Ave. 197,Newark,North East,US,07102-1814",
  "InstitutionName": "RUBIC",
  "InstitutionalDepartmentName": "Department",
  "MRAcquisitionType": "2D",
  "MagneticFieldStrength": 3,
  "Manufacturer": "Siemens",
  "ManufacturersModelName": "TrioTim",
  "Modality": "MR",
  "MultibandAccelerationFactor": 8,
  "PartialFourier": 0.875,
  "PatientPosition": "HFS",
  "PercentPhaseFOV": 100,
  "PercentSampling": 100,
  "PhaseEncodingDirection": "j-",
  "PhaseEncodingSteps": 91,
  "PhaseResolution": 1,
  "PixelBandwidth": 1923,
  "ProcedureStepDescription": "Cole^Michael",
  "ProtocolName": "cmrr_mbep2d_bold_2mm_MB8_Task_8x",
  "PulseSequenceDetails": "%CustomerSeq%\\cmrr_mbep2d_bold",
  "ReceiveCoilName": "32Ch_Head",
  "ReconMatrixPE": 104,
  "RepetitionTime": 0.785,
  "SAR": 0.125115,
  "ScanOptions": "PFP\\FS",
  "ScanningSequence": "EP",
  "SequenceName": "epfid2d1_104",
  "SequenceVariant": "SK\\SS",
  "SeriesDescription": "cmrr_mbep2d_bold_2mm_MB8_Task_8x",
  "SeriesNumber": 21,
  "ShimSetting": [2108, -443, -7205, 544, -101, 33, 116, 58],
  "SliceThickness": 2,
  "SliceTiming": [0, 0.4375, 0.0875, 0.525, 0.175, 0.6125, 0.2625, 0.7025, 0.35, 0, 0.4375, 0.0875, 0.525, 0.175, 0.6125, 0.2625, 0.7025, 0.35, 0, 0.4375, 0.0875, 0.525, 0.175, 0.6125, 0.2625, 0.7025, 0.35, 0, 0.4375, 0.0875, 0.525, 0.175, 0.6125, 0.2625, 0.7025, 0.35, 0, 0.4375, 0.0875, 0.525, 0.175, 0.6125, 0.2625, 0.7025, 0.35, 0, 0.4375, 0.0875, 0.525, 0.175, 0.6125, 0.2625, 0.7025, 0.35, 0, 0.4375, 0.0875, 0.525, 0.175, 0.6125, 0.2625, 0.7025, 0.35, 0, 0.4375, 0.0875, 0.525, 0.175, 0.6125, 0.2625, 0.7025, 0.35],
  "SoftwareVersions": "syngo MR B19",
  "SpacingBetweenSlices": 2,
  "StationName": "MRC35450",
  "TaskName": "cpro",
  "TotalReadoutTime": 0.0710717,
  "TxRefAmp": 330.454,
  "dcmmeta_affine": [
    [-2.0, 0.0, 0.0, 104.67796325683594],
    [0.0, 1.994881510734558, -0.14299488067626953, -79.09363555908203],
    [0.0, 0.14299488067626953, 1.994881510734558, -105.79141998291016],
    [0.0, 0.0, 0.0, 1.0]
],
  "dcmmeta_reorient_transform": [
    [0.0, -1.0, 0.0, 103.0],
    [1.0, 0.0, 0.0, 0.0],
    [0.0, 0.0, 1.0, 0.0],
    [0.0, 0.0, 0.0, 1.0]
],
  "dcmmeta_shape": [104, 104, 72, 581],
  "dcmmeta_slice_dim": 2,
  "dcmmeta_version": 0.6,
  "global": {
    "const": {
      "AcquisitionMatrix": [104, 0, 0, 104],
      "AngioFlag": "N",
      "BitsAllocated": 16,
      "BitsStored": 12,
      "Columns": 936,
      "EchoNumbers": 1,
      "EchoTime": 34.8,
      "EchoTrainLength": 1,
      "FlipAngle": 55.0,
      "HighBit": 11,
      "ImageOrientationPatient": [1.0, 0.0, 0.0, 0.0, 0.99744078313723, -0.0714974414548],
      "ImagePositionPatient": [-936.67796611786, -956.24989963083, -31.577074913028],
      "ImageType": [
        "ORIGINAL",
        "PRIMARY",
        "M",
        "MB",
        "ND",
        "MOSAIC"
],
      "ImagedNucleus": "1H",
      "ImagingFrequency": 123.234412,
      "InPlanePhaseEncodingDirection": "COL",
      "MRAcquisitionType": "2D",
      "MagneticFieldStrength": 3.0,
      "Manufacturer": "SIEMENS",
      "ManufacturerModelName": "TrioTim",
      "Modality": "MR",
      "NumberOfAverages": 1.0,
      "NumberOfPhaseEncodingSteps": 91,
      "PercentPhaseFieldOfView": 100.0,
      "PercentSampling": 100.0,
      "PerformedProcedureStepStartTime": "144407.328000",
      "PhotometricInterpretation": "MONOCHROME2",
      "PixelBandwidth": 1923.0,
      "PixelRepresentation": 0,
      "PixelSpacing": [2.0, 2.0],
      "ProtocolName": "cmrr_mbep2d_bold_2mm_MB8_Task_8x",
      "RepetitionTime": 785.0,
      "Rows": 936,
      "SAR": 0.12511488449852,
      "SamplesPerPixel": 1,
      "ScanOptions": [
        "PFP",
        "FS"
],
      "ScanningSequence": "EP",
      "SequenceName": "epfid2d1_104",
      "SequenceVariant": [
        "SK",
        "SS"
],
      "SeriesDescription": "cmrr_mbep2d_bold_2mm_MB8_Task_8x",
      "SeriesNumber": 21,
      "SeriesTime": "174740.625000",
      "SliceLocation": -99.865683545473,
      "SliceThickness": 2.0,
      "SmallestImagePixelValue": 0,
      "SoftwareVersions": "syngo MR B19",
      "SpacingBetweenSlices": 1.9999999705235,
      "SpecificCharacterSet": "ISO_IR 100",
      "StudyID": "1",
      "StudyTime": "144407.265000",
      "TransmitCoilName": "Body",
      "VariableFlipAngleFlag": "N",
      "WindowCenterWidthExplanation": "Algo1",
      "dBdt": 0.0},
    "slices": {}
  },
  "time": {
    "samples": {
      "AcquisitionNumber": [1, 2, 3, 4, 5, 6, 7, 8, 9, 10, 11, 12, 13, 14, 15, 16, 17, 18, 19, 20, 21, 22, 23, 24, 25, 26, 27, 28, 29, 30, 31, 32, 33, 34, 35, 36, 37, 38, 39, 40, 41, 42, 43, 44, 45, 46, 47, 48, 49, 50, 51, 52, 53, 54, 55, 56, 57, 58, 59, 60, 61, 62, 63, 64, 65, 66, 67, 68, 69, 70, 71, 72, 73, 74, 75, 76, 77, 78, 79, 80, 81, 82, 83, 84, 85, 86, 87, 88, 89, 90, 91, 92, 93, 94, 95, 96, 97, 98, 99, 100, 101, 102, 103, 104, 105, 106, 107, 108, 109, 110, 111, 112, 113, 114, 115, 116, 117, 118, 119, 120, 121, 122, 123, 124, 125, 126, 127, 128, 129, 130, 131, 132, 133, 134, 135, 136, 137, 138, 139, 140, 141, 142, 143, 144, 145, 146, 147, 148, 149, 150, 151, 152, 153, 154, 155, 156, 157, 158, 159, 160, 161, 162, 163, 164, 165, 166, 167, 168, 169, 170, 171, 172, 173, 174, 175, 176, 177, 178, 179, 180, 181, 182, 183, 184, 185, 186, 187, 188, 189, 190, 191, 192, 193, 194, 195, 196, 197, 198, 199, 200, 201, 202, 203, 204, 205, 206, 207, 208, 209, 210, 211, 212, 213, 214, 215, 216, 217, 218, 219, 220, 221, 222, 223, 224, 225, 226, 227, 228, 229, 230, 231, 232, 233, 234, 235, 236, 237, 238, 239, 240, 241, 242, 243, 244, 245, 246, 247, 248, 249, 250, 251, 252, 253, 254, 255, 256, 257, 258, 259, 260, 261, 262, 263, 264, 265, 266, 267, 268, 269, 270, 271, 272, 273, 274, 275, 276, 277, 278, 279, 280, 281, 282, 283, 284, 285, 286, 287, 288, 289, 290, 291, 292, 293, 294, 295, 296, 297, 298, 299, 300, 301, 302, 303, 304, 305, 306, 307, 308, 309, 310, 311, 312, 313, 314, 315, 316, 317, 318, 319, 320, 321, 322, 323, 324, 325, 326, 327, 328, 329, 330, 331, 332, 333, 334, 335, 336, 337, 338, 339, 340, 341, 342, 343, 344, 345, 346, 347, 348, 349, 350, 351, 352, 353, 354, 355, 356, 357, 358, 359, 360, 361, 362, 363, 364, 365, 366, 367, 368, 369, 370, 371, 372, 373, 374, 375, 376, 377, 378, 379, 380, 381, 382, 383, 384, 385, 386, 387, 388, 389, 390, 391, 392, 393, 394, 395, 396, 397, 398, 399, 400, 401, 402, 403, 404, 405, 406, 407, 408, 409, 410, 411, 412, 413, 414, 415, 416, 417, 418, 419, 420, 421, 422, 423, 424, 425, 426, 427, 428, 429, 430, 431, 432, 433, 434, 435, 436, 437, 438, 439, 440, 441, 442, 443, 444, 445, 446, 447, 448, 449, 450, 451, 452, 453, 454, 455, 456, 457, 458, 459, 460, 461, 462, 463, 464, 465, 466, 467, 468, 469, 470, 471, 472, 473, 474, 475, 476, 477, 478, 479, 480, 481, 482, 483, 484, 485, 486, 487, 488, 489, 490, 491, 492, 493, 494, 495, 496, 497, 498, 499, 500, 501, 502, 503, 504, 505, 506, 507, 508, 509, 510, 511, 512, 513, 514, 515, 516, 517, 518, 519, 520, 521, 522, 523, 524, 525, 526, 527, 528, 529, 530, 531, 532, 533, 534, 535, 536, 537, 538, 539, 540, 541, 542, 543, 544, 545, 546, 547, 548, 549, 550, 551, 552, 553, 554, 555, 556, 557, 558, 559, 560, 561, 562, 563, 564, 565, 566, 567, 568, 569, 570, 571, 572, 573, 574, 575, 576, 577, 578, 579, 580, 581],
      "AcquisitionTime": ["162504.715000", "162505.505000", "162506.292500", "162507.080000", "162507.867500", "162508.657500", "162509.445000", "162510.232500", "162511.020000", "162511.810000", "162512.597500", "162513.385000", "162514.175000", "162514.962500", "162515.750000", "162516.537500", "162517.327500", "162518.115000", "162518.902500", "162519.690000", "162520.480000", "162521.267500", "162522.055000", "162522.842500", "162523.632500", "162524.420000", "162525.207500", "162525.995000", "162526.785000", "162527.572500", "162528.360000", "162529.147500", "162529.937500", "162530.725000", "162531.512500", "162532.302500", "162533.090000", "162533.877500", "162534.665000", "162535.455000", "162536.242500", "162537.030000", "162537.817500", "162538.607500", "162539.395000", "162540.182500", "162540.970000", "162541.760000", "162542.547500", "162543.335000", "162544.122500", "162544.912500", "162545.700000", "162546.487500", "162547.277500", "162548.065000", "162548.852500", "162549.640000", "162550.430000", "162551.217500", "162552.005000", "162552.792500", "162553.582500", "162554.370000", "162555.157500", "162555.945000", "162556.735000", "162557.522500", "162558.310000", "162559.097500", "162559.887500", "162600.675000", "162601.462500", "162602.250000", "162603.040000", "162603.827500", "162604.615000", "162605.405000", "162606.192500", "162606.980000", "162607.767500", "162608.557500", "162609.345000", "162610.132500", "162610.920000", "162611.710000", "162612.497500", "162613.285000", "162614.072500", "162614.862500", "162615.650000", "162616.437500", "162617.225000", "162618.015000", "162618.802500", "162619.590000", "162620.377500", "162621.167500", "162621.955000", "162622.742500", "162623.532500", "162624.320000", "162625.107500", "162625.895000", "162626.685000", "162627.472500", "162628.260000", "162629.047500", "162629.837500", "162630.625000", "162631.412500", "162632.200000", "162632.990000", "162633.777500", "162634.565000", "162635.352500", "162636.142500", "162636.930000", "162637.717500", "162638.505000", "162639.295000", "162640.082500", "162640.870000", "162641.660000", "162642.447500", "162643.235000", "162644.022500", "162644.812500", "162645.600000", "162646.387500", "162647.175000", "162647.965000", "162648.752500", "162649.540000", "162650.327500", "162651.117500", "162651.905000", "162652.692500", "162653.480000", "162654.270000", "162655.057500", "162655.845000", "162656.632500", "162657.422500", "162658.210000", "162658.997500", "162659.787500", "162700.575000", "162701.362500", "162702.150000", "162702.940000", "162703.727500", "162704.515000", "162705.302500", "162706.092500", "162706.880000", "162707.667500", "162708.455000", "162709.245000", "162710.032500", "162710.820000", "162711.607500", "162712.397500", "162713.185000", "162713.972500", "162714.760000", "162715.550000", "162716.337500", "162717.125000", "162717.915000", "162718.702500", "162719.490000", "162720.277500", "162721.067500", "162721.855000", "162722.642500", "162723.430000", "162724.220000", "162725.007500", "162725.795000", "162726.582500", "162727.372500", "162728.160000", "162728.947500", "162729.735000", "162730.525000", "162731.312500", "162732.100000", "162732.887500", "162733.677500", "162734.465000", "162735.252500", "162736.042500", "162736.830000", "162737.617500", "162738.405000", "162739.195000", "162739.982500", "162740.770000", "162741.557500", "162742.347500", "162743.135000", "162743.922500", "162744.710000", "162745.500000", "162746.287500", "162747.075000", "162747.862500", "162748.652500", "162749.440000", "162750.227500", "162751.015000", "162751.805000", "162752.592500", "162753.380000", "162754.170000", "162754.957500", "162755.745000", "162756.532500", "162757.322500", "162758.110000", "162758.897500", "162759.685000", "162800.475000", "162801.262500", "162802.050000", "162802.837500", "162803.627500", "162804.415000", "162805.202500", "162805.990000", "162806.780000", "162807.567500", "162808.355000", "162809.142500", "162809.932500", "162810.720000", "162811.507500", "162812.297500", "162813.085000", "162813.872500", "162814.660000", "162815.450000", "162816.237500", "162817.025000", "162817.812500", "162818.602500", "162819.390000", "162820.177500", "162820.965000", "162821.755000", "162822.542500", "162823.330000", "162824.117500", "162824.907500", "162825.695000", "162826.482500", "162827.270000", "162828.060000", "162828.847500", "162829.635000", "162830.425000", "162831.212500", "162832.000000", "162832.787500", "162833.577500", "162834.365000", "162835.152500", "162835.940000", "162836.730000", "162837.517500", "162838.305000", "162839.092500", "162839.882500", "162840.670000", "162841.457500", "162842.245000", "162843.035000", "162843.822500", "162844.610000", "162845.397500", "162846.187500", "162846.975000", "162847.762500", "162848.552500", "162849.340000", "162850.127500", "162850.915000", "162851.705000", "162852.492500", "162853.280000", "162854.067500", "162854.857500", "162855.645000", "162856.432500", "162857.220000", "162858.010000", "162858.797500", "162859.585000", "162900.372500", "162901.162500", "162901.950000", "162902.737500", "162903.527500", "162904.315000", "162905.102500", "162905.890000", "162906.680000", "162907.467500", "162908.255000", "162909.042500", "162909.832500", "162910.620000", "162911.407500", "162912.195000", "162912.985000", "162913.772500", "162914.560000", "162915.347500", "162916.137500", "162916.925000", "162917.712500", "162918.500000", "162919.290000", "162920.077500", "162920.865000", "162921.655000", "162922.442500", "162923.230000", "162924.017500", "162924.807500", "162925.595000", "162926.382500", "162927.170000", "162927.960000", "162928.747500", "162929.535000", "162930.322500", "162931.112500", "162931.900000", "162932.687500", "162933.475000", "162934.265000", "162935.052500", "162935.840000", "162936.627500", "162937.417500", "162938.205000", "162938.992500", "162939.782500", "162940.570000", "162941.357500", "162942.145000", "162942.935000", "162943.722500", "162944.510000", "162945.297500", "162946.087500", "162946.875000", "162947.662500", "162948.450000", "162949.240000", "162950.027500", "162950.815000", "162951.602500", "162952.392500", "162953.180000", "162953.967500", "162954.755000", "162955.545000", "162956.332500", "162957.120000", "162957.910000", "162958.697500", "162959.485000", "163000.272500", "163001.062500", "163001.850000", "163002.637500", "163003.425000", "163004.215000", "163005.002500", "163005.790000", "163006.577500", "163007.367500", "163008.155000", "163008.942500", "163009.730000", "163010.520000", "163011.307500", "163012.095000", "163012.882500", "163013.672500", "163014.460000", "163015.247500", "163016.037500", "163016.825000", "163017.612500", "163018.400000", "163019.190000", "163019.977500", "163020.765000", "163021.552500", "163022.342500", "163023.130000", "163023.917500", "163024.705000", "163025.495000", "163026.282500", "163027.070000", "163027.857500", "163028.647500", "163029.435000", "163030.222500", "163031.010000", "163031.800000", "163032.587500", "163033.375000", "163034.165000", "163034.952500", "163035.740000", "163036.527500", "163037.317500", "163038.105000", "163038.892500", "163039.680000", "163040.470000", "163041.257500", "163042.045000", "163042.832500", "163043.622500", "163044.410000", "163045.197500", "163045.985000", "163046.775000", "163047.562500", "163048.350000", "163049.137500", "163049.927500", "163050.715000", "163051.502500", "163052.292500", "163053.080000", "163053.867500", "163054.655000", "163055.445000", "163056.232500", "163057.020000", "163057.807500", "163058.597500", "163059.385000", "163100.172500", "163100.960000", "163101.750000", "163102.537500", "163103.325000", "163104.112500", "163104.902500", "163105.690000", "163106.477500", "163107.265000", "163108.055000", "163108.842500", "163109.630000", "163110.420000", "163111.207500", "163111.995000", "163112.782500", "163113.572500", "163114.360000", "163115.147500", "163115.935000", "163116.725000", "163117.512500", "163118.300000", "163119.087500", "163119.877500", "163120.665000", "163121.452500", "163122.240000", "163123.030000", "163123.817500", "163124.605000", "163125.392500", "163126.182500", "163126.970000", "163127.757500", "163128.547500", "163129.335000", "163130.122500", "163130.910000", "163131.700000", "163132.487500", "163133.275000", "163134.062500", "163134.852500", "163135.640000", "163136.427500", "163137.215000", "163138.005000", "163138.792500", "163139.580000", "163140.367500", "163141.157500", "163141.945000", "163142.732500", "163143.520000", "163144.310000", "163145.097500", "163145.885000", "163146.675000", "163147.462500", "163148.250000", "163149.037500", "163149.827500", "163150.615000", "163151.402500", "163152.190000", "163152.980000", "163153.767500", "163154.555000", "163155.342500", "163156.132500", "163156.920000", "163157.707500", "163158.495000", "163159.285000", "163200.072500", "163200.860000", "163201.647500", "163202.437500", "163203.225000", "163204.012500", "163204.802500", "163205.590000", "163206.377500", "163207.165000", "163207.955000", "163208.742500", "163209.530000", "163210.317500", "163211.107500", "163211.895000", "163212.682500", "163213.470000", "163214.260000", "163215.047500", "163215.835000", "163216.622500", "163217.412500", "163218.200000", "163218.987500", "163219.777500", "163220.565000", "163221.352500", "163222.140000", "163222.930000", "163223.717500", "163224.505000", "163225.292500", "163226.082500", "163226.870000", "163227.657500", "163228.445000", "163229.235000", "163230.022500", "163230.810000", "163231.597500", "163232.387500", "163233.175000", "163233.962500", "163234.750000", "163235.540000", "163236.327500", "163237.115000", "163237.905000", "163238.692500", "163239.480000", "163240.267500", "163241.057500", "163241.845000"],
      "ContentTime": ["174740.625000", "174740.625000", "174740.625000", "174740.625000", "174740.625000", "174740.640000", "174740.640000", "174740.640000", "174740.640000", "174840.593000", "174840.593000", "174840.593000", "174840.609000", "174840.609000", "174840.609000", "174840.609000", "174840.609000", "174840.609000", "174840.625000", "174840.625000", "174840.625000", "174840.625000", "174840.625000", "174840.625000", "174840.625000", "174840.640000", "174840.640000", "174840.640000", "174840.640000", "174840.640000", "174840.640000", "174840.640000", "174840.656000", "174840.656000", "174840.656000", "174840.656000", "174840.656000", "174940.593000", "174940.593000", "174940.593000", "174940.593000", "174940.609000", "174940.609000", "174940.609000", "174940.609000", "174940.609000", "174940.609000", "174940.609000", "174940.625000", "174940.625000", "174940.625000", "174940.625000", "174940.625000", "174940.625000", "174940.625000", "174940.640000", "174940.640000", "174940.640000", "174940.640000", "174940.640000", "174940.656000", "174940.656000", "174940.656000", "174940.656000", "174940.656000", "175040.593000", "175040.593000", "175040.593000", "175040.593000", "175040.609000", "175040.609000", "175040.609000", "175040.609000", "175040.609000", "175040.609000", "175040.609000", "175040.625000", "175040.625000", "175040.625000", "175040.625000", "175040.625000", "175040.625000", "175040.625000", "175040.640000", "175040.640000", "175040.640000", "175040.640000", "175040.640000", "175040.640000", "175040.640000", "175040.656000", "175040.656000", "175040.656000", "175040.656000", "175140.593000", "175140.593000", "175140.593000", "175140.593000", "175140.609000", "175140.609000", "175140.609000", "175140.609000", "175140.609000", "175140.625000", "175140.625000", "175140.625000", "175140.625000", "175140.625000", "175140.625000", "175140.625000", "175140.640000", "175140.640000", "175140.640000", "175140.640000", "175140.640000", "175140.640000", "175140.640000", "175140.656000", "175140.656000", "175140.656000", "175140.656000", "175140.671000", "175240.593000", "175240.593000", "175240.593000", "175240.593000", "175240.609000", "175240.609000", "175240.609000", "175240.609000", "175240.609000", "175240.609000", "175240.609000", "175240.625000", "175240.625000", "175240.625000", "175240.625000", "175240.625000", "175240.625000", "175240.640000", "175240.640000", "175240.640000", "175240.640000", "175240.640000", "175240.640000", "175240.640000", "175240.656000", "175240.656000", "175240.656000", "175240.656000", "175340.593000", "175340.593000", "175340.593000", "175340.593000", "175340.609000", "175340.609000", "175340.609000", "175340.609000", "175340.609000", "175340.609000", "175340.609000", "175340.625000", "175340.625000", "175340.625000", "175340.625000", "175340.625000", "175340.625000", "175340.625000", "175340.640000", "175340.640000", "175340.640000", "175340.640000", "175340.640000", "175340.640000", "175340.656000", "175340.656000", "175340.656000", "175340.656000", "175440.593000", "175440.593000", "175440.593000", "175440.593000", "175440.609000", "175440.609000", "175440.609000", "175440.625000", "175440.625000", "175440.625000", "175440.625000", "175440.625000", "175440.625000", "175440.625000", "175440.640000", "175440.640000", "175440.640000", "175440.640000", "175440.640000", "175440.656000", "175440.656000", "175440.656000", "175440.656000", "175440.656000", "175440.656000", "175440.656000", "175440.671000", "175440.671000", "175540.593000", "175540.593000", "175540.593000", "175540.593000", "175540.609000", "175540.609000", "175540.609000", "175540.609000", "175540.609000", "175540.609000", "175540.609000", "175540.625000", "175540.625000", "175540.625000", "175540.625000", "175540.625000", "175540.625000", "175540.625000", "175540.640000", "175540.640000", "175540.640000", "175540.640000", "175540.640000", "175540.640000", "175540.656000", "175540.656000", "175540.656000", "175540.656000", "175540.656000", "175640.593000", "175640.593000", "175640.593000", "175640.593000", "175640.609000", "175640.609000", "175640.609000", "175640.609000", "175640.609000", "175640.609000", "175640.609000", "175640.625000", "175640.625000", "175640.625000", "175640.625000", "175640.625000", "175640.625000", "175640.640000", "175640.640000", "175640.640000", "175640.640000", "175640.640000", "175640.640000", "175640.640000", "175640.656000", "175640.656000", "175640.656000", "175640.656000", "175740.593000", "175740.593000", "175740.593000", "175740.593000", "175740.609000", "175740.609000", "175740.609000", "175740.609000", "175740.609000", "175740.609000", "175740.609000", "175740.625000", "175740.625000", "175740.625000", "175740.625000", "175740.625000", "175740.625000", "175740.625000", "175740.640000", "175740.640000", "175740.640000", "175740.640000", "175740.656000", "175740.656000", "175740.656000", "175740.656000", "175740.656000", "175740.656000", "175840.593000", "175840.593000", "175840.609000", "175840.609000", "175840.609000", "175840.609000", "175840.609000", "175840.609000", "175840.609000", "175840.625000", "175840.625000", "175840.625000", "175840.625000", "175840.625000", "175840.625000", "175840.625000", "175840.640000", "175840.640000", "175840.640000", "175840.640000", "175840.640000", "175840.640000", "175840.640000", "175840.656000", "175840.656000", "175840.656000", "175840.656000", "175840.656000", "175940.593000", "175940.593000", "175940.593000", "175940.593000", "175940.609000", "175940.609000", "175940.609000", "175940.609000", "175940.609000", "175940.609000", "175940.609000", "175940.625000", "175940.625000", "175940.625000", "175940.625000", "175940.625000", "175940.625000", "175940.625000", "175940.640000", "175940.640000", "175940.640000", "175940.640000", "175940.640000", "175940.640000", "175940.656000", "175940.656000", "175940.656000", "175940.656000", "180040.593000", "180040.593000", "180040.593000", "180040.593000", "180040.609000", "180040.609000", "180040.609000", "180040.609000", "180040.609000", "180040.609000", "180040.609000", "180040.625000", "180040.625000", "180040.625000", "180040.625000", "180040.625000", "180040.625000", "180040.640000", "180040.640000", "180040.640000", "180040.640000", "180040.640000", "180040.640000", "180040.640000", "180040.656000", "180040.656000", "180040.656000", "180040.656000", "180040.656000", "180140.593000", "180140.593000", "180140.593000", "180140.593000", "180140.609000", "180140.609000", "180140.609000", "180140.609000", "180140.609000", "180140.609000", "180140.609000", "180140.625000", "180140.625000", "180140.625000", "180140.625000", "180140.625000", "180140.625000", "180140.625000", "180140.640000", "180140.640000", "180140.640000", "180140.640000", "180140.640000", "180140.640000", "180140.656000", "180140.656000", "180140.656000", "180140.656000", "180240.593000", "180240.593000", "180240.593000", "180240.593000", "180240.609000", "180240.609000", "180240.609000", "180240.609000", "180240.609000", "180240.609000", "180240.609000", "180240.625000", "180240.625000", "180240.625000", "180240.625000", "180240.625000", "180240.625000", "180240.625000", "180240.640000", "180240.640000", "180240.640000", "180240.640000", "180240.640000", "180240.640000", "180240.640000", "180240.656000", "180240.656000", "180240.656000", "180340.593000", "180340.609000", "180340.609000", "180340.609000", "180340.609000", "180340.609000", "180340.609000", "180340.609000", "180340.625000", "180340.625000", "180340.625000", "180340.625000", "180340.625000", "180340.625000", "180340.640000", "180340.640000", "180340.640000", "180340.640000", "180340.656000", "180340.656000", "180340.656000", "180340.656000", "180340.656000", "180340.671000", "180340.671000", "180340.671000", "180340.671000", "180340.671000", "180440.593000", "180440.593000", "180440.593000", "180440.593000", "180440.609000", "180440.609000", "180440.609000", "180440.609000", "180440.609000", "180440.609000", "180440.609000", "180440.625000", "180440.625000", "180440.625000", "180440.625000", "180440.625000", "180440.625000", "180440.625000", "180440.640000", "180440.640000", "180440.640000", "180440.640000", "180440.640000", "180440.640000", "180440.656000", "180440.656000", "180440.656000", "180440.656000", "180440.656000", "180540.593000", "180540.593000", "180540.609000", "180540.609000", "180540.609000", "180540.609000", "180540.609000", "180540.609000", "180540.609000", "180540.625000", "180540.625000", "180540.625000", "180540.625000", "180540.625000", "180540.640000", "180540.640000", "180540.640000", "180540.640000", "180540.640000", "180540.656000", "180540.656000", "180540.656000", "180540.656000", "180540.656000", "180540.671000", "180540.671000", "180540.671000", "180540.671000", "180640.593000", "180640.593000", "180640.593000", "180640.593000", "180640.609000", "180640.609000", "180640.609000", "180640.609000", "180640.609000", "180640.609000", "180640.609000", "180640.625000", "180640.625000", "180640.625000", "180640.625000", "180640.625000", "180640.625000", "180640.625000", "180640.640000", "180640.640000", "180640.640000", "180640.640000", "180640.640000", "180640.640000", "180640.656000", "180640.656000", "180640.656000", "180640.656000", "180740.593000", "180740.593000", "180740.593000", "180740.593000", "180740.609000", "180740.609000", "180740.609000", "180740.609000", "180740.609000", "180740.609000", "180740.609000", "180740.625000", "180740.625000", "180740.625000", "180740.625000", "180740.625000", "180740.625000", "180740.625000", "180740.640000", "180740.640000", "180740.640000", "180740.640000", "180740.640000", "180740.640000", "180740.656000", "180740.656000", "180740.656000", "180740.656000", "180755.312000", "180755.312000", "180755.312000", "180755.312000", "180755.328000", "180755.328000", "180755.328000", "180755.328000"],
      "DataSetTrailingPadding": [
        "\u0000\u0000\u0000\u0000\u0000\u0000\u0000\u0000\u0000\u0000\u0000\u0000\u0000\u0000\u0000\u0000\u0000\u0000\u0000\u0000\u0000\u0000\u0000\u0000\u0000\u0000\u0000\u0000\u0000\u0000\u0000\u0000\u0000\u0000\u0000\u0000\u0000\u0000\u0000\u0000\u0000\u0000\u0000\u0000\u0000\u0000\u0000\u0000\u0000\u0000\u0000\u0000\u0000\u0000\u0000\u0000\u0000\u0000\u0000\u0000\u0000\u0000\u0000\u0000\u0000\u0000\u0000\u0000\u0000\u0000\u0000\u0000\u0000\u0000\u0000\u0000\u0000\u0000\u0000\u0000\u0000\u0000\u0000\u0000\u0000\u0000\u0000\u0000\u0000\u0000\u0000\u0000\u0000\u0000\u0000\u0000\u0000\u0000\u0000\u0000\u0000\u0000\u0000\u0000\u0000\u0000\u0000\u0000\u0000\u0000\u0000\u0000\u0000\u0000\u0000\u0000",
        "\u0000\u0000\u0000\u0000\u0000\u0000\u0000\u0000\u0000\u0000\u0000\u0000\u0000\u0000\u0000\u0000\u0000\u0000\u0000\u0000\u0000\u0000\u0000\u0000\u0000\u0000\u0000\u0000\u0000\u0000\u0000\u0000\u0000\u0000\u0000\u0000\u0000\u0000\u0000\u0000\u0000\u0000\u0000\u0000\u0000\u0000\u0000\u0000\u0000\u0000\u0000\u0000\u0000\u0000\u0000\u0000\u0000\u0000\u0000\u0000\u0000\u0000\u0000\u0000\u0000\u0000\u0000\u0000\u0000\u0000\u0000\u0000\u0000\u0000\u0000\u0000\u0000\u0000\u0000\u0000\u0000\u0000\u0000\u0000\u0000\u0000\u0000\u0000\u0000\u0000\u0000\u0000\u0000\u0000\u0000\u0000\u0000\u0000\u0000\u0000\u0000\u0000\u0000\u0000\u0000\u0000\u0000\u0000\u0000\u0000",
        "\u0000\u0000\u0000\u0000\u0000\u0000\u0000\u0000\u0000\u0000\u0000\u0000\u0000\u0000\u0000\u0000\u0000\u0000\u0000\u0000\u0000\u0000\u0000\u0000\u0000\u0000\u0000\u0000\u0000\u0000\u0000\u0000\u0000\u0000\u0000\u0000\u0000\u0000\u0000\u0000\u0000\u0000\u0000\u0000\u0000\u0000\u0000\u0000\u0000\u0000\u0000\u0000\u0000\u0000\u0000\u0000\u0000\u0000\u0000\u0000\u0000\u0000\u0000\u0000\u0000\u0000\u0000\u0000\u0000\u0000\u0000\u0000\u0000\u0000\u0000\u0000\u0000\u0000\u0000\u0000\u0000\u0000\u0000\u0000\u0000\u0000\u0000\u0000\u0000\u0000\u0000\u0000\u0000\u0000\u0000\u0000\u0000\u0000\u0000\u0000\u0000\u0000\u0000\u0000\u0000\u0000\u0000\u0000\u0000\u0000\u0000\u0000",
