{
  "AcquisitionMatrixPE": 104,
  "AcquisitionNumber": 1,
  "AcquisitionTime": "16:33:11.760000",
  "BandwidthPerPixelPhaseEncode": 13.935,
  "BaseResolution": 104,
  "CoilString": "C:HEA;HEP",
  "ConversionSoftware": "dcm2niix",
  "ConversionSoftwareVersion": "v1.0.20210317",
  "DerivedVendorReportedEchoSpacing": 0.000690017,
  "DeviceSerialNumber": "35450",
  "DwellTime": 2.5e-06,
  "EchoTime": 0.0348,
  "EffectiveEchoSpacing": 0.000690017,
  "FlipAngle": 55,
  "ImageComments": "Unaliased MB8/PE3",
  "ImageOrientationPatientDICOM": [1, 0, 0, 0, 0.997441, -0.0714974],
  "ImageType": [
    "ORIGINAL",
    "PRIMARY",
    "M",
    "MB",
    "ND",
    "MOSAIC"
],
  "ImagingFrequency": 123.234,
  "InPlanePhaseEncodingDirectionDICOM": "COL",
  "InstitutionAddress": "Univeristy Ave. 197,Newark,North East,US,07102-1814",
  "InstitutionName": "RUBIC",
  "InstitutionalDepartmentName": "Department",
  "MRAcquisitionType": "2D",
  "MagneticFieldStrength": 3,
  "Manufacturer": "Siemens",
  "ManufacturersModelName": "TrioTim",
  "Modality": "MR",
  "MultibandAccelerationFactor": 8,
  "PartialFourier": 0.875,
  "PatientPosition": "HFS",
  "PercentPhaseFOV": 100,
  "PercentSampling": 100,
  "PhaseEncodingDirection": "j-",
  "PhaseEncodingSteps": 91,
  "PhaseResolution": 1,
  "PixelBandwidth": 1923,
  "ProcedureStepDescription": "Cole^Michael",
  "ProtocolName": "cmrr_mbep2d_bold_2mm_MB8_Task_8x",
  "PulseSequenceDetails": "%CustomerSeq%\\cmrr_mbep2d_bold",
  "ReceiveCoilName": "32Ch_Head",
  "ReconMatrixPE": 104,
  "RepetitionTime": 0.785,
  "SAR": 0.125115,
  "ScanOptions": "PFP\\FS",
  "ScanningSequence": "EP",
  "SequenceName": "epfid2d1_104",
  "SequenceVariant": "SK\\SS",
  "SeriesDescription": "cmrr_mbep2d_bold_2mm_MB8_Task_8x",
  "SeriesNumber": 23,
  "ShimSetting": [2108, -443, -7205, 544, -101, 33, 116, 58],
  "SliceThickness": 2,
  "SliceTiming": [0, 0.4375, 0.0875, 0.525, 0.175, 0.6125, 0.2625, 0.7, 0.35, 0, 0.4375, 0.0875, 0.525, 0.175, 0.6125, 0.2625, 0.7, 0.35, 0, 0.4375, 0.0875, 0.525, 0.175, 0.6125, 0.2625, 0.7, 0.35, 0, 0.4375, 0.0875, 0.525, 0.175, 0.6125, 0.2625, 0.7, 0.35, 0, 0.4375, 0.0875, 0.525, 0.175, 0.6125, 0.2625, 0.7, 0.35, 0, 0.4375, 0.0875, 0.525, 0.175, 0.6125, 0.2625, 0.7, 0.35, 0, 0.4375, 0.0875, 0.525, 0.175, 0.6125, 0.2625, 0.7, 0.35, 0, 0.4375, 0.0875, 0.525, 0.175, 0.6125, 0.2625, 0.7, 0.35],
  "SoftwareVersions": "syngo MR B19",
  "SpacingBetweenSlices": 2,
  "StationName": "MRC35450",
  "TaskName": "cpro",
  "TotalReadoutTime": 0.0710717,
  "TxRefAmp": 330.454,
  "dcmmeta_affine": [
    [-2.0, 0.0, 0.0, 104.67796325683594],
    [0.0, 1.994881510734558, -0.14299488067626953, -79.09363555908203],
    [0.0, 0.14299488067626953, 1.994881510734558, -105.79141998291016],
    [0.0, 0.0, 0.0, 1.0]
],
  "dcmmeta_reorient_transform": [
    [0.0, -1.0, 0.0, 103.0],
    [1.0, 0.0, 0.0, 0.0],
    [0.0, 0.0, 1.0, 0.0],
    [0.0, 0.0, 0.0, 1.0]
],
  "dcmmeta_shape": [104, 104, 72, 581],
  "dcmmeta_slice_dim": 2,
  "dcmmeta_version": 0.6,
  "global": {
    "const": {
      "AcquisitionMatrix": [104, 0, 0, 104],
      "AngioFlag": "N",
      "BitsAllocated": 16,
      "BitsStored": 12,
      "Columns": 936,
      "EchoNumbers": 1,
      "EchoTime": 34.8,
      "EchoTrainLength": 1,
      "FlipAngle": 55.0,
      "HighBit": 11,
      "ImageOrientationPatient": [1.0, 0.0, 0.0, 0.0, 0.99744078313723, -0.0714974414548],
      "ImagePositionPatient": [-936.67796611786, -956.24989963083, -31.577074913028],
      "ImageType": [
        "ORIGINAL",
        "PRIMARY",
        "M",
        "MB",
        "ND",
        "MOSAIC"
],
      "ImagedNucleus": "1H",
      "ImagingFrequency": 123.234412,
      "InPlanePhaseEncodingDirection": "COL",
      "MRAcquisitionType": "2D",
      "MagneticFieldStrength": 3.0,
      "Manufacturer": "SIEMENS",
      "ManufacturerModelName": "TrioTim",
      "Modality": "MR",
      "NumberOfAverages": 1.0,
      "NumberOfPhaseEncodingSteps": 91,
      "PercentPhaseFieldOfView": 100.0,
      "PercentSampling": 100.0,
      "PerformedProcedureStepStartTime": "144407.328000",
      "PhotometricInterpretation": "MONOCHROME2",
      "PixelBandwidth": 1923.0,
      "PixelRepresentation": 0,
      "PixelSpacing": [2.0, 2.0],
      "ProtocolName": "cmrr_mbep2d_bold_2mm_MB8_Task_8x",
      "RepetitionTime": 785.0,
      "Rows": 936,
      "SAR": 0.12511488449852,
      "SamplesPerPixel": 1,
      "ScanOptions": [
        "PFP",
        "FS"
],
      "ScanningSequence": "EP",
      "SequenceName": "epfid2d1_104",
      "SequenceVariant": [
        "SK",
        "SS"
],
      "SeriesDescription": "cmrr_mbep2d_bold_2mm_MB8_Task_8x",
      "SeriesNumber": 23,
      "SeriesTime": "180822.343000",
      "SliceLocation": -99.865683545473,
      "SliceThickness": 2.0,
      "SmallestImagePixelValue": 0,
      "SoftwareVersions": "syngo MR B19",
      "SpacingBetweenSlices": 1.9999999705235,
      "SpecificCharacterSet": "ISO_IR 100",
      "StudyID": "1",
      "StudyTime": "144407.265000",
      "TransmitCoilName": "Body",
      "VariableFlipAngleFlag": "N",
      "WindowCenterWidthExplanation": "Algo1",
      "dBdt": 0.0},
    "slices": {}
  },
  "time": {
    "samples": {
      "AcquisitionNumber": [1, 2, 3, 4, 5, 6, 7, 8, 9, 10, 11, 12, 13, 14, 15, 16, 17, 18, 19, 20, 21, 22, 23, 24, 25, 26, 27, 28, 29, 30, 31, 32, 33, 34, 35, 36, 37, 38, 39, 40, 41, 42, 43, 44, 45, 46, 47, 48, 49, 50, 51, 52, 53, 54, 55, 56, 57, 58, 59, 60, 61, 62, 63, 64, 65, 66, 67, 68, 69, 70, 71, 72, 73, 74, 75, 76, 77, 78, 79, 80, 81, 82, 83, 84, 85, 86, 87, 88, 89, 90, 91, 92, 93, 94, 95, 96, 97, 98, 99, 100, 101, 102, 103, 104, 105, 106, 107, 108, 109, 110, 111, 112, 113, 114, 115, 116, 117, 118, 119, 120, 121, 122, 123, 124, 125, 126, 127, 128, 129, 130, 131, 132, 133, 134, 135, 136, 137, 138, 139, 140, 141, 142, 143, 144, 145, 146, 147, 148, 149, 150, 151, 152, 153, 154, 155, 156, 157, 158, 159, 160, 161, 162, 163, 164, 165, 166, 167, 168, 169, 170, 171, 172, 173, 174, 175, 176, 177, 178, 179, 180, 181, 182, 183, 184, 185, 186, 187, 188, 189, 190, 191, 192, 193, 194, 195, 196, 197, 198, 199, 200, 201, 202, 203, 204, 205, 206, 207, 208, 209, 210, 211, 212, 213, 214, 215, 216, 217, 218, 219, 220, 221, 222, 223, 224, 225, 226, 227, 228, 229, 230, 231, 232, 233, 234, 235, 236, 237, 238, 239, 240, 241, 242, 243, 244, 245, 246, 247, 248, 249, 250, 251, 252, 253, 254, 255, 256, 257, 258, 259, 260, 261, 262, 263, 264, 265, 266, 267, 268, 269, 270, 271, 272, 273, 274, 275, 276, 277, 278, 279, 280, 281, 282, 283, 284, 285, 286, 287, 288, 289, 290, 291, 292, 293, 294, 295, 296, 297, 298, 299, 300, 301, 302, 303, 304, 305, 306, 307, 308, 309, 310, 311, 312, 313, 314, 315, 316, 317, 318, 319, 320, 321, 322, 323, 324, 325, 326, 327, 328, 329, 330, 331, 332, 333, 334, 335, 336, 337, 338, 339, 340, 341, 342, 343, 344, 345, 346, 347, 348, 349, 350, 351, 352, 353, 354, 355, 356, 357, 358, 359, 360, 361, 362, 363, 364, 365, 366, 367, 368, 369, 370, 371, 372, 373, 374, 375, 376, 377, 378, 379, 380, 381, 382, 383, 384, 385, 386, 387, 388, 389, 390, 391, 392, 393, 394, 395, 396, 397, 398, 399, 400, 401, 402, 403, 404, 405, 406, 407, 408, 409, 410, 411, 412, 413, 414, 415, 416, 417, 418, 419, 420, 421, 422, 423, 424, 425, 426, 427, 428, 429, 430, 431, 432, 433, 434, 435, 436, 437, 438, 439, 440, 441, 442, 443, 444, 445, 446, 447, 448, 449, 450, 451, 452, 453, 454, 455, 456, 457, 458, 459, 460, 461, 462, 463, 464, 465, 466, 467, 468, 469, 470, 471, 472, 473, 474, 475, 476, 477, 478, 479, 480, 481, 482, 483, 484, 485, 486, 487, 488, 489, 490, 491, 492, 493, 494, 495, 496, 497, 498, 499, 500, 501, 502, 503, 504, 505, 506, 507, 508, 509, 510, 511, 512, 513, 514, 515, 516, 517, 518, 519, 520, 521, 522, 523, 524, 525, 526, 527, 528, 529, 530, 531, 532, 533, 534, 535, 536, 537, 538, 539, 540, 541, 542, 543, 544, 545, 546, 547, 548, 549, 550, 551, 552, 553, 554, 555, 556, 557, 558, 559, 560, 561, 562, 563, 564, 565, 566, 567, 568, 569, 570, 571, 572, 573, 574, 575, 576, 577, 578, 579, 580, 581],
      "AcquisitionTime": ["163311.760000", "163312.547500", "163313.335000", "163314.122500", "163314.912500", "163315.700000", "163316.487500", "163317.275000", "163318.065000", "163318.852500", "163319.640000", "163320.427500", "163321.217500", "163322.005000", "163322.792500", "163323.580000", "163324.370000", "163325.157500", "163325.945000", "163326.735000", "163327.522500", "163328.310000", "163329.097500", "163329.887500", "163330.675000", "163331.462500", "163332.250000", "163333.040000", "163333.827500", "163334.615000", "163335.402500", "163336.192500", "163336.980000", "163337.767500", "163338.555000", "163339.345000", "163340.132500", "163340.920000", "163341.707500", "163342.497500", "163343.285000", "163344.072500", "163344.862500", "163345.650000", "163346.437500", "163347.225000", "163348.015000", "163348.802500", "163349.590000", "163350.377500", "163351.167500", "163351.955000", "163352.742500", "163353.530000", "163354.320000", "163355.107500", "163355.895000", "163356.682500", "163357.472500", "163358.260000", "163359.047500", "163359.835000", "163400.625000", "163401.412500", "163402.200000", "163402.990000", "163403.777500", "163404.565000", "163405.352500", "163406.142500", "163406.930000", "163407.717500", "163408.505000", "163409.295000", "163410.082500", "163410.870000", "163411.657500", "163412.447500", "163413.235000", "163414.022500", "163414.810000", "163415.600000", "163416.387500", "163417.175000", "163417.962500", "163418.752500", "163419.540000", "163420.327500", "163421.117500", "163421.905000", "163422.692500", "163423.480000", "163424.270000", "163425.057500", "163425.845000", "163426.632500", "163427.422500", "163428.210000", "163428.997500", "163429.785000", "163430.575000", "163431.362500", "163432.150000", "163432.937500", "163433.727500", "163434.515000", "163435.302500", "163436.090000", "163436.880000", "163437.667500", "163438.455000", "163439.245000", "163440.032500", "163440.820000", "163441.607500", "163442.397500", "163443.185000", "163443.972500", "163444.760000", "163445.550000", "163446.337500", "163447.125000", "163447.912500", "163448.702500", "163449.490000", "163450.277500", "163451.065000", "163451.855000", "163452.642500", "163453.430000", "163454.217500", "163455.007500", "163455.795000", "163456.582500", "163457.372500", "163458.160000", "163458.947500", "163459.735000", "163500.525000", "163501.312500", "163502.100000", "163502.887500", "163503.677500", "163504.465000", "163505.252500", "163506.040000", "163506.830000", "163507.617500", "163508.405000", "163509.192500", "163509.982500", "163510.770000", "163511.557500", "163512.345000", "163513.135000", "163513.922500", "163514.710000", "163515.500000", "163516.287500", "163517.075000", "163517.862500", "163518.652500", "163519.440000", "163520.227500", "163521.015000", "163521.805000", "163522.592500", "163523.380000", "163524.167500", "163524.957500", "163525.745000", "163526.532500", "163527.320000", "163528.110000", "163528.897500", "163529.685000", "163530.475000", "163531.262500", "163532.050000", "163532.837500", "163533.627500", "163534.415000", "163535.202500", "163535.990000", "163536.780000", "163537.567500", "163538.355000", "163539.142500", "163539.932500", "163540.720000", "163541.507500", "163542.295000", "163543.085000", "163543.872500", "163544.660000", "163545.447500", "163546.237500", "163547.025000", "163547.812500", "163548.602500", "163549.390000", "163550.177500", "163550.965000", "163551.755000", "163552.542500", "163553.330000", "163554.117500", "163554.907500", "163555.695000", "163556.482500", "163557.270000", "163558.060000", "163558.847500", "163559.635000", "163600.422500", "163601.212500", "163602.000000", "163602.787500", "163603.575000", "163604.365000", "163605.152500", "163605.940000", "163606.730000", "163607.517500", "163608.305000", "163609.092500", "163609.882500", "163610.670000", "163611.457500", "163612.245000", "163613.035000", "163613.822500", "163614.610000", "163615.397500", "163616.187500", "163616.975000", "163617.762500", "163618.550000", "163619.340000", "163620.127500", "163620.915000", "163621.702500", "163622.492500", "163623.280000", "163624.067500", "163624.857500", "163625.645000", "163626.432500", "163627.220000", "163628.010000", "163628.797500", "163629.585000", "163630.372500", "163631.162500", "163631.950000", "163632.737500", "163633.525000", "163634.315000", "163635.102500", "163635.890000", "163636.677500", "163637.467500", "163638.255000", "163639.042500", "163639.830000", "163640.620000", "163641.407500", "163642.195000", "163642.985000", "163643.772500", "163644.560000", "163645.347500", "163646.137500", "163646.925000", "163647.712500", "163648.500000", "163649.290000", "163650.077500", "163650.865000", "163651.652500", "163652.442500", "163653.230000", "163654.017500", "163654.805000", "163655.595000", "163656.382500", "163657.170000", "163657.957500", "163658.747500", "163659.535000", "163700.322500", "163701.112500", "163701.900000", "163702.687500", "163703.475000", "163704.265000", "163705.052500", "163705.840000", "163706.627500", "163707.417500", "163708.205000", "163708.992500", "163709.780000", "163710.570000", "163711.357500", "163712.145000", "163712.932500", "163713.722500", "163714.510000", "163715.297500", "163716.085000", "163716.875000", "163717.662500", "163718.450000", "163719.240000", "163720.027500", "163720.815000", "163721.602500", "163722.392500", "163723.180000", "163723.967500", "163724.755000", "163725.545000", "163726.332500", "163727.120000", "163727.907500", "163728.697500", "163729.485000", "163730.272500", "163731.060000", "163731.850000", "163732.637500", "163733.425000", "163734.212500", "163735.002500", "163735.790000", "163736.577500", "163737.367500", "163738.155000", "163738.942500", "163739.730000", "163740.520000", "163741.307500", "163742.095000", "163742.882500", "163743.672500", "163744.460000", "163745.247500", "163746.035000", "163746.825000", "163747.612500", "163748.400000", "163749.187500", "163749.977500", "163750.765000", "163751.552500", "163752.340000", "163753.130000", "163753.917500", "163754.705000", "163755.495000", "163756.282500", "163757.070000", "163757.857500", "163758.647500", "163759.435000", "163800.222500", "163801.010000", "163801.800000", "163802.587500", "163803.375000", "163804.162500", "163804.952500", "163805.740000", "163806.527500", "163807.315000", "163808.105000", "163808.892500", "163809.680000", "163810.467500", "163811.257500", "163812.045000", "163812.832500", "163813.622500", "163814.410000", "163815.197500", "163815.985000", "163816.775000", "163817.562500", "163818.350000", "163819.137500", "163819.927500", "163820.715000", "163821.502500", "163822.290000", "163823.080000", "163823.867500", "163824.655000", "163825.442500", "163826.232500", "163827.020000", "163827.807500", "163828.595000", "163829.385000", "163830.172500", "163830.960000", "163831.750000", "163832.537500", "163833.325000", "163834.112500", "163834.902500", "163835.690000", "163836.477500", "163837.265000", "163838.055000", "163838.842500", "163839.630000", "163840.417500", "163841.207500", "163841.995000", "163842.782500", "163843.570000", "163844.360000", "163845.147500", "163845.935000", "163846.725000", "163847.512500", "163848.300000", "163849.087500", "163849.877500", "163850.665000", "163851.452500", "163852.240000", "163853.030000", "163853.817500", "163854.605000", "163855.392500", "163856.182500", "163856.970000", "163857.757500", "163858.545000", "163859.335000", "163900.122500", "163900.910000", "163901.697500", "163902.487500", "163903.275000", "163904.062500", "163904.852500", "163905.640000", "163906.427500", "163907.215000", "163908.005000", "163908.792500", "163909.580000", "163910.367500", "163911.157500", "163911.945000", "163912.732500", "163913.520000", "163914.310000", "163915.097500", "163915.885000", "163916.672500", "163917.462500", "163918.250000", "163919.037500", "163919.825000", "163920.615000", "163921.402500", "163922.190000", "163922.980000", "163923.767500", "163924.555000", "163925.342500", "163926.132500", "163926.920000", "163927.707500", "163928.495000", "163929.285000", "163930.072500", "163930.860000", "163931.647500", "163932.437500", "163933.225000", "163934.012500", "163934.800000", "163935.590000", "163936.377500", "163937.165000", "163937.952500", "163938.742500", "163939.530000", "163940.317500", "163941.107500", "163941.895000", "163942.682500", "163943.470000", "163944.260000", "163945.047500", "163945.835000", "163946.622500", "163947.412500", "163948.200000", "163948.987500", "163949.775000", "163950.565000", "163951.352500", "163952.140000", "163952.927500", "163953.717500", "163954.505000", "163955.292500", "163956.080000", "163956.870000", "163957.657500", "163958.445000", "163959.235000", "164000.022500", "164000.810000", "164001.597500", "164002.387500", "164003.175000", "164003.962500", "164004.750000", "164005.540000", "164006.327500", "164007.115000", "164007.902500", "164008.692500", "164009.480000", "164010.267500", "164011.055000", "164011.845000", "164012.632500", "164013.420000", "164014.207500", "164014.997500", "164015.785000", "164016.572500", "164017.362500", "164018.150000", "164018.937500", "164019.725000", "164020.515000", "164021.302500", "164022.090000", "164022.877500", "164023.667500", "164024.455000", "164025.242500", "164026.030000", "164026.820000", "164027.607500", "164028.395000", "164029.182500", "164029.972500", "164030.760000", "164031.547500", "164032.335000", "164033.125000", "164033.912500", "164034.700000", "164035.490000", "164036.277500", "164037.065000", "164037.852500", "164038.642500", "164039.430000", "164040.217500", "164041.005000", "164041.795000", "164042.582500", "164043.370000", "164044.157500", "164044.947500", "164045.735000", "164046.522500", "164047.310000", "164048.100000", "164048.887500"],
      "ContentTime": ["180822.359000", "180822.359000", "180822.359000", "180822.359000", "180822.359000", "180922.328000", "180922.328000", "180922.328000", "180922.328000", "180922.343000", "180922.343000", "180922.343000", "180922.343000", "180922.343000", "180922.343000", "180922.343000", "180922.359000", "180922.359000", "180922.359000", "180922.359000", "180922.359000", "180922.359000", "180922.359000", "180922.375000", "180922.375000", "180922.375000", "180922.375000", "180922.375000", "180922.375000", "180922.375000", "180922.390000", "180922.390000", "180922.390000", "181022.328000", "181022.328000", "181022.328000", "181022.328000", "181022.343000", "181022.343000", "181022.343000", "181022.343000", "181022.343000", "181022.343000", "181022.343000", "181022.359000", "181022.359000", "181022.359000", "181022.359000", "181022.359000", "181022.359000", "181022.359000", "181022.375000", "181022.375000", "181022.375000", "181022.375000", "181022.375000", "181022.375000", "181022.375000", "181022.390000", "181022.390000", "181022.390000", "181122.328000", "181122.328000", "181122.328000", "181122.328000", "181122.343000", "181122.343000", "181122.343000", "181122.343000", "181122.343000", "181122.343000", "181122.343000", "181122.359000", "181122.359000", "181122.359000", "181122.359000", "181122.359000", "181122.359000", "181122.359000", "181122.375000", "181122.375000", "181122.375000", "181122.375000", "181122.375000", "181122.375000", "181122.390000", "181122.390000", "181122.390000", "181122.390000", "181122.390000", "181222.328000", "181222.328000", "181222.328000", "181222.328000", "181222.343000", "181222.343000", "181222.343000", "181222.343000", "181222.343000", "181222.343000", "181222.343000", "181222.359000", "181222.359000", "181222.359000", "181222.359000", "181222.359000", "181222.375000", "181222.375000", "181222.375000", "181222.375000", "181222.375000", "181222.375000", "181222.375000", "181222.390000", "181222.390000", "181222.390000", "181222.390000", "181222.390000", "181322.328000", "181322.328000", "181322.328000", "181322.328000", "181322.343000", "181322.343000", "181322.343000", "181322.343000", "181322.343000", "181322.359000", "181322.359000", "181322.359000", "181322.359000", "181322.359000", "181322.359000", "181322.375000", "181322.375000", "181322.375000", "181322.375000", "181322.375000", "181322.375000", "181322.375000", "181322.375000", "181322.390000", "181322.390000", "181322.390000", "181322.390000", "181322.390000", "181422.328000", "181422.328000", "181422.328000", "181422.328000", "181422.343000", "181422.343000", "181422.343000", "181422.343000", "181422.343000", "181422.343000", "181422.343000", "181422.359000", "181422.359000", "181422.359000", "181422.359000", "181422.359000", "181422.359000", "181422.359000", "181422.375000", "181422.375000", "181422.375000", "181422.375000", "181422.375000", "181422.375000", "181422.375000", "181422.390000", "181422.390000", "181422.390000", "181522.328000", "181522.328000", "181522.328000", "181522.328000", "181522.343000", "181522.343000", "181522.343000", "181522.343000", "181522.343000", "181522.359000", "181522.359000", "181522.359000", "181522.359000", "181522.359000", "181522.375000", "181522.375000", "181522.375000", "181522.375000", "181522.375000", "181522.375000", "181522.375000", "181522.390000", "181522.390000", "181522.390000", "181522.390000", "181522.390000", "181522.390000", "181522.390000", "181622.328000", "181622.328000", "181622.328000", "181622.328000", "181622.343000", "181622.343000", "181622.343000", "181622.343000", "181622.343000", "181622.343000", "181622.343000", "181622.359000", "181622.359000", "181622.359000", "181622.359000", "181622.359000", "181622.375000", "181622.375000", "181622.375000", "181622.375000", "181622.375000", "181622.375000", "181622.390000", "181622.390000", "181622.390000", "181622.390000", "181622.390000", "181622.390000", "181722.328000", "181722.328000", "181722.328000", "181722.328000", "181722.343000", "181722.343000", "181722.343000", "181722.343000", "181722.343000", "181722.343000", "181722.343000", "181722.359000", "181722.359000", "181722.359000", "181722.359000", "181722.359000", "181722.359000", "181722.359000", "181722.375000", "181722.375000", "181722.375000", "181722.375000", "181722.375000", "181722.390000", "181722.390000", "181722.390000", "181722.390000", "181722.390000", "181822.328000", "181822.328000", "181822.328000", "181822.328000", "181822.343000", "181822.343000", "181822.343000", "181822.343000", "181822.343000", "181822.343000", "181822.343000", "181822.359000", "181822.359000", "181822.359000", "181822.359000", "181822.359000", "181822.359000", "181822.359000", "181822.375000", "181822.375000", "181822.375000", "181822.375000", "181822.375000", "181822.375000", "181822.390000", "181822.390000", "181822.390000", "181822.390000", "181822.390000", "181922.328000", "181922.328000", "181922.328000", "181922.328000", "181922.343000", "181922.343000", "181922.343000", "181922.343000", "181922.343000", "181922.343000", "181922.343000", "181922.359000", "181922.359000", "181922.359000", "181922.359000", "181922.359000", "181922.359000", "181922.359000", "181922.375000", "181922.375000", "181922.375000", "181922.375000", "181922.375000", "181922.375000", "181922.375000", "181922.390000", "181922.390000", "181922.390000", "182022.328000", "182022.328000", "182022.328000", "182022.328000", "182022.343000", "182022.343000", "182022.343000", "182022.343000", "182022.343000", "182022.343000", "182022.343000", "182022.359000", "182022.359000", "182022.359000", "182022.359000", "182022.359000", "182022.359000", "182022.359000", "182022.375000", "182022.375000", "182022.375000", "182022.375000", "182022.375000", "182022.375000", "182022.390000", "182022.390000", "182022.390000", "182022.390000", "182122.328000", "182122.328000", "182122.328000", "182122.328000", "182122.343000", "182122.343000", "182122.343000", "182122.343000", "182122.343000", "182122.343000", "182122.343000", "182122.359000", "182122.359000", "182122.359000", "182122.359000", "182122.359000", "182122.359000", "182122.359000", "182122.375000", "182122.375000", "182122.375000", "182122.375000", "182122.375000", "182122.375000", "182122.375000", "182122.390000", "182122.390000", "182122.390000", "182222.328000", "182222.328000", "182222.328000", "182222.328000", "182222.343000", "182222.343000", "182222.343000", "182222.343000", "182222.343000", "182222.343000", "182222.343000", "182222.359000", "182222.359000", "182222.359000", "182222.359000", "182222.359000", "182222.359000", "182222.359000", "182222.375000", "182222.375000", "182222.375000", "182222.375000", "182222.375000", "182222.375000", "182222.375000", "182222.390000", "182222.390000", "182222.390000", "182322.328000", "182322.328000", "182322.328000", "182322.328000", "182322.343000", "182322.343000", "182322.343000", "182322.343000", "182322.343000", "182322.343000", "182322.343000", "182322.359000", "182322.359000", "182322.359000", "182322.359000", "182322.359000", "182322.359000", "182322.359000", "182322.375000", "182322.375000", "182322.375000", "182322.375000", "182322.375000", "182322.375000", "182322.375000", "182322.390000", "182322.390000", "182322.390000", "182422.328000", "182422.328000", "182422.328000", "182422.328000", "182422.343000", "182422.343000", "182422.343000", "182422.343000", "182422.343000", "182422.343000", "182422.343000", "182422.359000", "182422.359000", "182422.359000", "182422.359000", "182422.359000", "182422.359000", "182422.359000", "182422.375000", "182422.375000", "182422.375000", "182422.375000", "182422.375000", "182422.375000", "182422.375000", "182422.390000", "182422.390000", "182422.390000", "182522.328000", "182522.328000", "182522.328000", "182522.328000", "182522.343000", "182522.343000", "182522.343000", "182522.343000", "182522.343000", "182522.343000", "182522.343000", "182522.359000", "182522.359000", "182522.359000", "182522.359000", "182522.359000", "182522.359000", "182522.359000", "182522.375000", "182522.375000", "182522.375000", "182522.375000", "182522.375000", "182522.375000", "182522.375000", "182522.390000", "182522.390000", "182522.390000", "182622.328000", "182622.328000", "182622.328000", "182622.328000", "182622.343000", "182622.343000", "182622.343000", "182622.343000", "182622.343000", "182622.343000", "182622.359000", "182622.359000", "182622.359000", "182622.359000", "182622.359000", "182622.359000", "182622.375000", "182622.375000", "182622.375000", "182622.375000", "182622.375000", "182622.375000", "182622.390000", "182622.390000", "182622.390000", "182622.390000", "182622.390000", "182622.390000", "182722.328000", "182722.328000", "182722.328000", "182722.328000", "182722.343000", "182722.343000", "182722.343000", "182722.343000", "182722.343000", "182722.343000", "182722.343000", "182722.359000", "182722.359000", "182722.359000", "182722.359000", "182722.359000", "182722.359000", "182722.359000", "182722.375000", "182722.375000", "182722.375000", "182722.375000", "182722.375000", "182722.375000", "182722.375000", "182722.390000", "182722.390000", "182722.390000", "182722.390000", "182822.328000", "182822.328000", "182822.328000", "182822.328000", "182822.343000", "182822.343000", "182822.343000", "182822.343000", "182822.343000", "182822.343000", "182822.359000", "182822.359000", "182822.359000", "182822.359000", "182822.359000", "182822.359000", "182822.359000", "182822.375000", "182822.375000", "182822.375000", "182822.375000", "182822.375000", "182822.375000", "182822.375000", "182822.390000", "182822.390000", "182822.390000", "182822.390000", "182848.921000", "182848.921000", "182848.921000", "182848.921000", "182848.937000", "182848.937000", "182848.937000", "182848.937000", "182848.937000", "182848.937000", "182848.953000", "182848.953000", "182848.953000"],
      "DataSetTrailingPadding": [
        "\u0000\u0000\u0000\u0000\u0000\u0000\u0000\u0000\u0000\u0000\u0000\u0000\u0000\u0000\u0000\u0000\u0000\u0000\u0000\u0000\u0000\u0000\u0000\u0000\u0000\u0000\u0000\u0000\u0000\u0000\u0000\u0000\u0000\u0000\u0000\u0000\u0000\u0000\u0000\u0000\u0000\u0000\u0000\u0000\u0000\u0000\u0000\u0000\u0000\u0000\u0000\u0000\u0000\u0000\u0000\u0000\u0000\u0000\u0000\u0000\u0000\u0000\u0000\u0000\u0000\u0000\u0000\u0000\u0000\u0000\u0000\u0000\u0000\u0000\u0000\u0000\u0000\u0000\u0000\u0000\u0000\u0000\u0000\u0000\u0000\u0000\u0000\u0000\u0000\u0000\u0000\u0000\u0000\u0000\u0000\u0000\u0000\u0000\u0000\u0000\u0000\u0000\u0000\u0000\u0000\u0000\u0000\u0000\u0000\u0000\u0000\u0000\u0000\u0000",
        "\u0000\u0000\u0000\u0000\u0000\u0000\u0000\u0000\u0000\u0000\u0000\u0000\u0000\u0000\u0000\u0000\u0000\u0000\u0000\u0000\u0000\u0000\u0000\u0000\u0000\u0000\u0000\u0000\u0000\u0000\u0000\u0000\u0000\u0000\u0000\u0000\u0000\u0000\u0000\u0000\u0000\u0000\u0000\u0000\u0000\u0000\u0000\u0000\u0000\u0000\u0000\u0000\u0000\u0000\u0000\u0000\u0000\u0000\u0000\u0000\u0000\u0000\u0000\u0000\u0000\u0000\u0000\u0000\u0000\u0000\u0000\u0000\u0000\u0000\u0000\u0000\u0000\u0000\u0000\u0000\u0000\u0000\u0000\u0000\u0000\u0000\u0000\u0000\u0000\u0000\u0000\u0000\u0000\u0000\u0000\u0000\u0000\u0000\u0000\u0000\u0000\u0000\u0000\u0000\u0000\u0000\u0000\u0000\u0000\u0000",
        "\u0000\u0000\u0000\u0000\u0000\u0000\u0000\u0000\u0000\u0000\u0000\u0000\u0000\u0000\u0000\u0000\u0000\u0000\u0000\u0000\u0000\u0000\u0000\u0000\u0000\u0000\u0000\u0000\u0000\u0000\u0000\u0000\u0000\u0000\u0000\u0000\u0000\u0000\u0000\u0000\u0000\u0000\u0000\u0000\u0000\u0000\u0000\u0000\u0000\u0000\u0000\u0000\u0000\u0000\u0000\u0000\u0000\u0000\u0000\u0000\u0000\u0000\u0000\u0000\u0000\u0000\u0000\u0000\u0000\u0000\u0000\u0000\u0000\u0000\u0000\u0000\u0000\u0000\u0000\u0000\u0000\u0000\u0000\u0000\u0000\u0000\u0000\u0000\u0000\u0000\u0000\u0000\u0000\u0000\u0000\u0000\u0000\u0000\u0000\u0000\u0000\u0000\u0000\u0000\u0000\u0000\u0000\u0000\u0000\u0000\u0000\u0000",
