{
  "AcquisitionMatrixPE": 104,
  "AcquisitionNumber": 1,
  "AcquisitionTime": "15:35:30.705000",
  "BandwidthPerPixelPhaseEncode": 13.935,
  "BaseResolution": 104,
  "CoilString": "C:HEA;HEP",
  "ConversionSoftware": "dcm2niix",
  "ConversionSoftwareVersion": "v1.0.20210317",
  "DerivedVendorReportedEchoSpacing": 0.000690017,
  "DeviceSerialNumber": "35450",
  "DwellTime": 2.5e-06,
  "EchoTime": 0.0348,
  "EffectiveEchoSpacing": 0.000690017,
  "FlipAngle": 55,
  "ImageComments": "Unaliased MB8/PE3 (remote)",
  "ImageOrientationPatientDICOM": [1, 0, 0, 0, 0.979223, -0.202787],
  "ImageType": [
    "ORIGINAL",
    "PRIMARY",
    "M",
    "MB",
    "ND",
    "MOSAIC"
],
  "ImagingFrequency": 123.234,
  "InPlanePhaseEncodingDirectionDICOM": "COL",
  "InstitutionAddress": "Univeristy Ave. 197,Newark,North East,US,07102-1814",
  "InstitutionName": "RUBIC",
  "InstitutionalDepartmentName": "Department",
  "MRAcquisitionType": "2D",
  "MagneticFieldStrength": 3,
  "Manufacturer": "Siemens",
  "ManufacturersModelName": "TrioTim",
  "Modality": "MR",
  "MultibandAccelerationFactor": 8,
  "PartialFourier": 0.875,
  "PatientPosition": "HFS",
  "PercentPhaseFOV": 100,
  "PercentSampling": 100,
  "PhaseEncodingDirection": "j-",
  "PhaseEncodingSteps": 91,
  "PhaseResolution": 1,
  "PixelBandwidth": 1923,
  "ProcedureStepDescription": "Cole^Michael",
  "ProtocolName": "cmrr_mbep2d_bold_2mm_MB8_Task_8x",
  "PulseSequenceDetails": "%CustomerSeq%\\cmrr_mbep2d_bold",
  "ReceiveCoilName": "32Ch_Head",
  "ReconMatrixPE": 104,
  "RepetitionTime": 0.785,
  "SAR": 0.121652,
  "ScanOptions": "PFP\\FS",
  "ScanningSequence": "EP",
  "SequenceName": "epfid2d1_104",
  "SequenceVariant": "SK\\SS",
  "SeriesDescription": "cmrr_mbep2d_bold_2mm_MB8_Task_8x",
  "SeriesNumber": 25,
  "ShimSetting": [2087, -324, -7176, 334, 97, -254, -66, -31],
  "SliceThickness": 2,
  "SliceTiming": [0, 0.4375, 0.0875, 0.525, 0.175, 0.6125, 0.2625, 0.7, 0.35, 0, 0.4375, 0.0875, 0.525, 0.175, 0.6125, 0.2625, 0.7, 0.35, 0, 0.4375, 0.0875, 0.525, 0.175, 0.6125, 0.2625, 0.7, 0.35, 0, 0.4375, 0.0875, 0.525, 0.175, 0.6125, 0.2625, 0.7, 0.35, 0, 0.4375, 0.0875, 0.525, 0.175, 0.6125, 0.2625, 0.7, 0.35, 0, 0.4375, 0.0875, 0.525, 0.175, 0.6125, 0.2625, 0.7, 0.35, 0, 0.4375, 0.0875, 0.525, 0.175, 0.6125, 0.2625, 0.7, 0.35, 0, 0.4375, 0.0875, 0.525, 0.175, 0.6125, 0.2625, 0.7, 0.35],
  "SoftwareVersions": "syngo MR B19",
  "SpacingBetweenSlices": 2,
  "StationName": "MRC35450",
  "TaskName": "cpro",
  "TotalReadoutTime": 0.0710717,
  "TxRefAmp": 328.352,
  "dcmmeta_affine": [
    [-2.0, 0.0, 0.0, 104.67796325683594],
    [0.0, 1.95844566822052, -0.4055745601654053, -74.50532531738281],
    [0.0, 0.4055745601654053, 1.95844566822052, -111.32870483398438],
    [0.0, 0.0, 0.0, 1.0]
],
  "dcmmeta_reorient_transform": [
    [0.0, -1.0, 0.0, 103.0],
    [1.0, 0.0, 0.0, 0.0],
    [0.0, 0.0, 1.0, 0.0],
    [0.0, 0.0, 0.0, 1.0]
],
  "dcmmeta_shape": [104, 104, 72, 581],
  "dcmmeta_slice_dim": 2,
  "dcmmeta_version": 0.6,
  "global": {
    "const": {
      "AcquisitionMatrix": [104, 0, 0, 104],
      "AngioFlag": "N",
      "BitsAllocated": 16,
      "BitsStored": 12,
      "Columns": 936,
      "EchoNumbers": 1,
      "EchoTime": 34.8,
      "EchoTrainLength": 1,
      "FlipAngle": 55.0,
      "HighBit": 11,
      "ImageOrientationPatient": [1.0, 0.0, 0.0, 0.0, 0.97922281297031, -0.2027872840158],
      "ImagePositionPatient": [-936.67796611786, -941.92795729812, 99.164496288505],
      "ImageType": [
        "ORIGINAL",
        "PRIMARY",
        "M",
        "MB",
        "ND",
        "MOSAIC"
],
      "ImagedNucleus": "1H",
      "ImagingFrequency": 123.234473,
      "InPlanePhaseEncodingDirection": "COL",
      "MRAcquisitionType": "2D",
      "MagneticFieldStrength": 3.0,
      "Manufacturer": "SIEMENS",
      "ManufacturerModelName": "TrioTim",
      "Modality": "MR",
      "NumberOfAverages": 1.0,
      "NumberOfPhaseEncodingSteps": 91,
      "PercentPhaseFieldOfView": 100.0,
      "PercentSampling": 100.0,
      "PerformedProcedureStepStartTime": "133754.000000",
      "PhotometricInterpretation": "MONOCHROME2",
      "PixelBandwidth": 1923.0,
      "PixelRepresentation": 0,
      "PixelSpacing": [2.0, 2.0],
      "ProtocolName": "cmrr_mbep2d_bold_2mm_MB8_Task_8x",
      "RepetitionTime": 785.0,
      "Rows": 936,
      "SAR": 0.1216519987062,
      "SamplesPerPixel": 1,
      "ScanOptions": [
        "PFP",
        "FS"
],
      "ScanningSequence": "EP",
      "SequenceName": "epfid2d1_104",
      "SequenceVariant": [
        "SK",
        "SS"
],
      "SeriesDescription": "cmrr_mbep2d_bold_2mm_MB8_Task_8x",
      "SeriesNumber": 25,
      "SeriesTime": "153553.203000",
      "SliceLocation": -93.906875196632,
      "SliceThickness": 2.0,
      "SmallestImagePixelValue": 0,
      "SoftwareVersions": "syngo MR B19",
      "SpacingBetweenSlices": 2.000000023316,
      "SpecificCharacterSet": "ISO_IR 100",
      "StudyID": "1",
      "StudyTime": "133753.953000",
      "TransmitCoilName": "Body",
      "VariableFlipAngleFlag": "N",
      "WindowCenterWidthExplanation": "Algo1",
      "dBdt": 0.0},
    "slices": {}
  },
  "time": {
    "samples": {
      "AcquisitionNumber": [1, 2, 3, 4, 5, 6, 7, 8, 9, 10, 11, 12, 13, 14, 15, 16, 17, 18, 19, 20, 21, 22, 23, 24, 25, 26, 27, 28, 29, 30, 31, 32, 33, 34, 35, 36, 37, 38, 39, 40, 41, 42, 43, 44, 45, 46, 47, 48, 49, 50, 51, 52, 53, 54, 55, 56, 57, 58, 59, 60, 61, 62, 63, 64, 65, 66, 67, 68, 69, 70, 71, 72, 73, 74, 75, 76, 77, 78, 79, 80, 81, 82, 83, 84, 85, 86, 87, 88, 89, 90, 91, 92, 93, 94, 95, 96, 97, 98, 99, 100, 101, 102, 103, 104, 105, 106, 107, 108, 109, 110, 111, 112, 113, 114, 115, 116, 117, 118, 119, 120, 121, 122, 123, 124, 125, 126, 127, 128, 129, 130, 131, 132, 133, 134, 135, 136, 137, 138, 139, 140, 141, 142, 143, 144, 145, 146, 147, 148, 149, 150, 151, 152, 153, 154, 155, 156, 157, 158, 159, 160, 161, 162, 163, 164, 165, 166, 167, 168, 169, 170, 171, 172, 173, 174, 175, 176, 177, 178, 179, 180, 181, 182, 183, 184, 185, 186, 187, 188, 189, 190, 191, 192, 193, 194, 195, 196, 197, 198, 199, 200, 201, 202, 203, 204, 205, 206, 207, 208, 209, 210, 211, 212, 213, 214, 215, 216, 217, 218, 219, 220, 221, 222, 223, 224, 225, 226, 227, 228, 229, 230, 231, 232, 233, 234, 235, 236, 237, 238, 239, 240, 241, 242, 243, 244, 245, 246, 247, 248, 249, 250, 251, 252, 253, 254, 255, 256, 257, 258, 259, 260, 261, 262, 263, 264, 265, 266, 267, 268, 269, 270, 271, 272, 273, 274, 275, 276, 277, 278, 279, 280, 281, 282, 283, 284, 285, 286, 287, 288, 289, 290, 291, 292, 293, 294, 295, 296, 297, 298, 299, 300, 301, 302, 303, 304, 305, 306, 307, 308, 309, 310, 311, 312, 313, 314, 315, 316, 317, 318, 319, 320, 321, 322, 323, 324, 325, 326, 327, 328, 329, 330, 331, 332, 333, 334, 335, 336, 337, 338, 339, 340, 341, 342, 343, 344, 345, 346, 347, 348, 349, 350, 351, 352, 353, 354, 355, 356, 357, 358, 359, 360, 361, 362, 363, 364, 365, 366, 367, 368, 369, 370, 371, 372, 373, 374, 375, 376, 377, 378, 379, 380, 381, 382, 383, 384, 385, 386, 387, 388, 389, 390, 391, 392, 393, 394, 395, 396, 397, 398, 399, 400, 401, 402, 403, 404, 405, 406, 407, 408, 409, 410, 411, 412, 413, 414, 415, 416, 417, 418, 419, 420, 421, 422, 423, 424, 425, 426, 427, 428, 429, 430, 431, 432, 433, 434, 435, 436, 437, 438, 439, 440, 441, 442, 443, 444, 445, 446, 447, 448, 449, 450, 451, 452, 453, 454, 455, 456, 457, 458, 459, 460, 461, 462, 463, 464, 465, 466, 467, 468, 469, 470, 471, 472, 473, 474, 475, 476, 477, 478, 479, 480, 481, 482, 483, 484, 485, 486, 487, 488, 489, 490, 491, 492, 493, 494, 495, 496, 497, 498, 499, 500, 501, 502, 503, 504, 505, 506, 507, 508, 509, 510, 511, 512, 513, 514, 515, 516, 517, 518, 519, 520, 521, 522, 523, 524, 525, 526, 527, 528, 529, 530, 531, 532, 533, 534, 535, 536, 537, 538, 539, 540, 541, 542, 543, 544, 545, 546, 547, 548, 549, 550, 551, 552, 553, 554, 555, 556, 557, 558, 559, 560, 561, 562, 563, 564, 565, 566, 567, 568, 569, 570, 571, 572, 573, 574, 575, 576, 577, 578, 579, 580, 581],
      "AcquisitionTime": ["153530.705000", "153531.492500", "153532.280000", "153533.067500", "153533.857500", "153534.645000", "153535.432500", "153536.222500", "153537.010000", "153537.797500", "153538.585000", "153539.375000", "153540.162500", "153540.950000", "153541.737500", "153542.527500", "153543.315000", "153544.102500", "153544.890000", "153545.680000", "153546.467500", "153547.255000", "153548.042500", "153548.832500", "153549.620000", "153550.407500", "153551.195000", "153551.985000", "153552.772500", "153553.560000", "153554.350000", "153555.137500", "153555.925000", "153556.712500", "153557.502500", "153558.290000", "153559.077500", "153559.865000", "153600.655000", "153601.442500", "153602.230000", "153603.017500", "153603.807500", "153604.595000", "153605.382500", "153606.170000", "153606.960000", "153607.747500", "153608.535000", "153609.322500", "153610.112500", "153610.900000", "153611.687500", "153612.477500", "153613.265000", "153614.052500", "153614.840000", "153615.630000", "153616.417500", "153617.205000", "153617.992500", "153618.782500", "153619.570000", "153620.357500", "153621.145000", "153621.935000", "153622.722500", "153623.510000", "153624.297500", "153625.087500", "153625.875000", "153626.662500", "153627.450000", "153628.240000", "153629.027500", "153629.815000", "153630.605000", "153631.392500", "153632.180000", "153632.967500", "153633.757500", "153634.545000", "153635.332500", "153636.120000", "153636.910000", "153637.697500", "153638.485000", "153639.272500", "153640.062500", "153640.850000", "153641.637500", "153642.425000", "153643.215000", "153644.002500", "153644.790000", "153645.577500", "153646.367500", "153647.155000", "153647.942500", "153648.732500", "153649.520000", "153650.307500", "153651.095000", "153651.885000", "153652.672500", "153653.460000", "153654.247500", "153655.037500", "153655.825000", "153656.612500", "153657.400000", "153658.190000", "153658.977500", "153659.765000", "153700.552500", "153701.342500", "153702.130000", "153702.917500", "153703.705000", "153704.495000", "153705.282500", "153706.070000", "153706.860000", "153707.647500", "153708.435000", "153709.222500", "153710.012500", "153710.800000", "153711.587500", "153712.375000", "153713.165000", "153713.952500", "153714.740000", "153715.527500", "153716.317500", "153717.105000", "153717.892500", "153718.680000", "153719.470000", "153720.257500", "153721.045000", "153721.832500", "153722.622500", "153723.410000", "153724.197500", "153724.987500", "153725.775000", "153726.562500", "153727.350000", "153728.140000", "153728.927500", "153729.715000", "153730.502500", "153731.292500", "153732.080000", "153732.867500", "153733.655000", "153734.445000", "153735.232500", "153736.020000", "153736.807500", "153737.597500", "153738.385000", "153739.172500", "153739.962500", "153740.750000", "153741.537500", "153742.325000", "153743.115000", "153743.902500", "153744.690000", "153745.477500", "153746.267500", "153747.055000", "153747.842500", "153748.630000", "153749.420000", "153750.207500", "153750.995000", "153751.782500", "153752.572500", "153753.360000", "153754.147500", "153754.935000", "153755.725000", "153756.512500", "153757.300000", "153758.090000", "153758.877500", "153759.665000", "153800.452500", "153801.242500", "153802.030000", "153802.817500", "153803.605000", "153804.395000", "153805.182500", "153805.970000", "153806.757500", "153807.547500", "153808.335000", "153809.122500", "153809.910000", "153810.700000", "153811.487500", "153812.275000", "153813.062500", "153813.852500", "153814.640000", "153815.427500", "153816.217500", "153817.005000", "153817.792500", "153818.580000", "153819.370000", "153820.157500", "153820.945000", "153821.732500", "153822.522500", "153823.310000", "153824.097500", "153824.885000", "153825.675000", "153826.462500", "153827.250000", "153828.037500", "153828.827500", "153829.615000", "153830.402500", "153831.190000", "153831.980000", "153832.767500", "153833.555000", "153834.345000", "153835.132500", "153835.920000", "153836.707500", "153837.497500", "153838.285000", "153839.072500", "153839.860000", "153840.650000", "153841.437500", "153842.225000", "153843.012500", "153843.802500", "153844.590000", "153845.377500", "153846.165000", "153846.955000", "153847.742500", "153848.530000", "153849.317500", "153850.107500", "153850.895000", "153851.682500", "153852.472500", "153853.260000", "153854.047500", "153854.835000", "153855.625000", "153856.412500", "153857.200000", "153857.987500", "153858.777500", "153859.565000", "153900.352500", "153901.140000", "153901.930000", "153902.717500", "153903.505000", "153904.292500", "153905.082500", "153905.870000", "153906.657500", "153907.445000", "153908.235000", "153909.022500", "153909.810000", "153910.600000", "153911.387500", "153912.175000", "153912.962500", "153913.752500", "153914.540000", "153915.327500", "153916.115000", "153916.905000", "153917.692500", "153918.480000", "153919.267500", "153920.057500", "153920.845000", "153921.632500", "153922.420000", "153923.210000", "153923.997500", "153924.785000", "153925.572500", "153926.362500", "153927.150000", "153927.937500", "153928.727500", "153929.515000", "153930.302500", "153931.090000", "153931.880000", "153932.667500", "153933.455000", "153934.242500", "153935.032500", "153935.820000", "153936.607500", "153937.395000", "153938.185000", "153938.972500", "153939.760000", "153940.547500", "153941.337500", "153942.125000", "153942.912500", "153943.700000", "153944.490000", "153945.277500", "153946.065000", "153946.855000", "153947.642500", "153948.430000", "153949.217500", "153950.007500", "153950.795000", "153951.582500", "153952.370000", "153953.160000", "153953.947500", "153954.735000", "153955.522500", "153956.312500", "153957.100000", "153957.887500", "153958.675000", "153959.465000", "154000.252500", "154001.040000", "154001.827500", "154002.617500", "154003.405000", "154004.192500", "154004.982500", "154005.770000", "154006.557500", "154007.345000", "154008.135000", "154008.922500", "154009.710000", "154010.497500", "154011.287500", "154012.075000", "154012.862500", "154013.650000", "154014.440000", "154015.227500", "154016.015000", "154016.802500", "154017.592500", "154018.380000", "154019.167500", "154019.955000", "154020.745000", "154021.532500", "154022.320000", "154023.110000", "154023.897500", "154024.685000", "154025.472500", "154026.262500", "154027.050000", "154027.837500", "154028.625000", "154029.415000", "154030.202500", "154030.990000", "154031.777500", "154032.567500", "154033.355000", "154034.142500", "154034.930000", "154035.720000", "154036.507500", "154037.295000", "154038.082500", "154038.872500", "154039.660000", "154040.447500", "154041.237500", "154042.025000", "154042.812500", "154043.600000", "154044.390000", "154045.177500", "154045.965000", "154046.752500", "154047.542500", "154048.330000", "154049.117500", "154049.905000", "154050.695000", "154051.482500", "154052.270000", "154053.057500", "154053.847500", "154054.635000", "154055.422500", "154056.212500", "154057.000000", "154057.787500", "154058.575000", "154059.365000", "154100.152500", "154100.940000", "154101.727500", "154102.517500", "154103.305000", "154104.092500", "154104.880000", "154105.670000", "154106.457500", "154107.245000", "154108.032500", "154108.822500", "154109.610000", "154110.397500", "154111.185000", "154111.975000", "154112.762500", "154113.550000", "154114.340000", "154115.127500", "154115.915000", "154116.702500", "154117.492500", "154118.280000", "154119.067500", "154119.855000", "154120.645000", "154121.432500", "154122.220000", "154123.007500", "154123.797500", "154124.585000", "154125.372500", "154126.160000", "154126.950000", "154127.737500", "154128.525000", "154129.312500", "154130.102500", "154130.890000", "154131.677500", "154132.467500", "154133.255000", "154134.042500", "154134.830000", "154135.620000", "154136.407500", "154137.195000", "154137.982500", "154138.772500", "154139.560000", "154140.347500", "154141.135000", "154141.925000", "154142.712500", "154143.500000", "154144.287500", "154145.077500", "154145.865000", "154146.652500", "154147.440000", "154148.230000", "154149.017500", "154149.805000", "154150.595000", "154151.382500", "154152.170000", "154152.957500", "154153.747500", "154154.535000", "154155.322500", "154156.110000", "154156.900000", "154157.687500", "154158.475000", "154159.262500", "154200.052500", "154200.840000", "154201.627500", "154202.415000", "154203.205000", "154203.992500", "154204.780000", "154205.567500", "154206.357500", "154207.145000", "154207.932500", "154208.722500", "154209.510000", "154210.297500", "154211.085000", "154211.875000", "154212.662500", "154213.450000", "154214.237500", "154215.027500", "154215.815000", "154216.602500", "154217.390000", "154218.180000", "154218.967500", "154219.755000", "154220.542500", "154221.332500", "154222.120000", "154222.907500", "154223.695000", "154224.485000", "154225.272500", "154226.060000", "154226.850000", "154227.637500", "154228.425000", "154229.212500", "154230.002500", "154230.790000", "154231.577500", "154232.365000", "154233.155000", "154233.942500", "154234.730000", "154235.517500", "154236.307500", "154237.095000", "154237.882500", "154238.670000", "154239.460000", "154240.247500", "154241.035000", "154241.822500", "154242.612500", "154243.400000", "154244.187500", "154244.977500", "154245.765000", "154246.552500", "154247.340000", "154248.130000", "154248.917500", "154249.705000", "154250.492500", "154251.282500", "154252.070000", "154252.857500", "154253.645000", "154254.435000", "154255.222500", "154256.010000", "154256.797500", "154257.587500", "154258.375000", "154259.162500", "154259.950000", "154300.740000", "154301.527500", "154302.315000", "154303.105000", "154303.892500", "154304.680000", "154305.467500", "154306.257500", "154307.045000", "154307.832500"],
      "ContentTime": ["153553.203000", "153553.218000", "153553.218000", "153553.218000", "153553.218000", "153553.218000", "153553.218000", "153553.234000", "153553.234000", "153553.234000", "153553.234000", "153553.234000", "153553.234000", "153553.250000", "153553.250000", "153553.250000", "153553.250000", "153553.250000", "153553.250000", "153553.250000", "153553.265000", "153553.265000", "153553.265000", "153553.265000", "153553.265000", "153553.265000", "153613.187000", "153613.187000", "153613.187000", "153613.187000", "153613.187000", "153613.203000", "153613.203000", "153613.203000", "153613.203000", "153613.203000", "153613.203000", "153613.203000", "153613.218000", "153613.218000", "153613.218000", "153613.218000", "153613.218000", "153613.218000", "153613.218000", "153613.234000", "153613.234000", "153613.234000", "153613.234000", "153613.234000", "153613.234000", "153613.234000", "153633.187000", "153633.187000", "153633.187000", "153633.187000", "153633.187000", "153633.203000", "153633.203000", "153633.203000", "153633.203000", "153633.203000", "153633.203000", "153633.218000", "153633.218000", "153633.218000", "153633.218000", "153633.218000", "153633.234000", "153633.234000", "153633.234000", "153633.234000", "153633.234000", "153633.234000", "153633.250000", "153633.250000", "153633.250000", "153653.187000", "153653.187000", "153653.187000", "153653.187000", "153653.187000", "153653.203000", "153653.203000", "153653.203000", "153653.203000", "153653.203000", "153653.203000", "153653.203000", "153653.218000", "153653.218000", "153653.218000", "153653.218000", "153653.218000", "153653.218000", "153653.218000", "153653.234000", "153653.234000", "153653.234000", "153653.234000", "153653.234000", "153653.234000", "153653.234000", "153713.187000", "153713.187000", "153713.187000", "153713.187000", "153713.187000", "153713.203000", "153713.203000", "153713.203000", "153713.203000", "153713.203000", "153713.203000", "153713.218000", "153713.218000", "153713.218000", "153713.218000", "153713.218000", "153713.218000", "153713.234000", "153713.234000", "153713.234000", "153713.234000", "153713.250000", "153713.250000", "153713.250000", "153713.250000", "153733.187000", "153733.187000", "153733.187000", "153733.187000", "153733.187000", "153733.203000", "153733.203000", "153733.203000", "153733.203000", "153733.203000", "153733.203000", "153733.203000", "153733.218000", "153733.218000", "153733.218000", "153733.218000", "153733.218000", "153733.218000", "153733.218000", "153733.234000", "153733.234000", "153733.234000", "153733.234000", "153733.234000", "153733.234000", "153733.234000", "153753.187000", "153753.187000", "153753.187000", "153753.187000", "153753.187000", "153753.203000", "153753.203000", "153753.203000", "153753.203000", "153753.203000", "153753.203000", "153753.203000", "153753.218000", "153753.218000", "153753.218000", "153753.218000", "153753.234000", "153753.234000", "153753.234000", "153753.234000", "153753.234000", "153753.250000", "153753.250000", "153753.250000", "153753.250000", "153813.187000", "153813.187000", "153813.187000", "153813.187000", "153813.187000", "153813.203000", "153813.203000", "153813.203000", "153813.203000", "153813.203000", "153813.203000", "153813.203000", "153813.218000", "153813.218000", "153813.218000", "153813.218000", "153813.218000", "153813.234000", "153813.234000", "153813.234000", "153813.234000", "153813.234000", "153813.234000", "153813.250000", "153813.250000", "153813.250000", "153833.187000", "153833.187000", "153833.187000", "153833.187000", "153833.187000", "153833.203000", "153833.203000", "153833.203000", "153833.203000", "153833.203000", "153833.203000", "153833.203000", "153833.218000", "153833.218000", "153833.218000", "153833.218000", "153833.218000", "153833.234000", "153833.234000", "153833.234000", "153833.234000", "153833.234000", "153833.234000", "153833.234000", "153833.250000", "153853.187000", "153853.187000", "153853.187000", "153853.187000", "153853.187000", "153853.203000", "153853.203000", "153853.203000", "153853.203000", "153853.203000", "153853.203000", "153853.203000", "153853.218000", "153853.218000", "153853.218000", "153853.218000", "153853.218000", "153853.218000", "153853.218000", "153853.234000", "153853.234000", "153853.234000", "153853.234000", "153853.234000", "153853.234000", "153853.234000", "153913.187000", "153913.187000", "153913.187000", "153913.187000", "153913.187000", "153913.203000", "153913.203000", "153913.203000", "153913.203000", "153913.203000", "153913.203000", "153913.203000", "153913.218000", "153913.218000", "153913.218000", "153913.218000", "153913.218000", "153913.218000", "153913.218000", "153913.234000", "153913.234000", "153913.234000", "153913.234000", "153913.234000", "153913.234000", "153933.187000", "153933.187000", "153933.187000", "153933.187000", "153933.187000", "153933.203000", "153933.203000", "153933.203000", "153933.203000", "153933.203000", "153933.203000", "153933.203000", "153933.218000", "153933.218000", "153933.218000", "153933.218000", "153933.218000", "153933.218000", "153933.218000", "153933.234000", "153933.234000", "153933.234000", "153933.234000", "153933.250000", "153933.250000", "153933.250000", "153953.187000", "153953.187000", "153953.187000", "153953.187000", "153953.187000", "153953.203000", "153953.203000", "153953.203000", "153953.203000", "153953.203000", "153953.203000", "153953.203000", "153953.218000", "153953.218000", "153953.218000", "153953.218000", "153953.218000", "153953.218000", "153953.218000", "153953.234000", "153953.234000", "153953.234000", "153953.234000", "153953.234000", "153953.234000", "154013.187000", "154013.187000", "154013.187000", "154013.187000", "154013.187000", "154013.203000", "154013.203000", "154013.203000", "154013.203000", "154013.203000", "154013.203000", "154013.203000", "154013.218000", "154013.218000", "154013.218000", "154013.218000", "154013.218000", "154013.218000", "154013.218000", "154013.234000", "154013.234000", "154013.234000", "154013.234000", "154013.234000", "154013.234000", "154013.250000", "154033.187000", "154033.187000", "154033.187000", "154033.187000", "154033.187000", "154033.203000", "154033.203000", "154033.203000", "154033.203000", "154033.203000", "154033.203000", "154033.203000", "154033.218000", "154033.218000", "154033.218000", "154033.218000", "154033.218000", "154033.218000", "154033.218000", "154033.234000", "154033.234000", "154033.234000", "154033.234000", "154033.234000", "154033.234000", "154053.187000", "154053.187000", "154053.187000", "154053.187000", "154053.187000", "154053.203000", "154053.203000", "154053.203000", "154053.203000", "154053.203000", "154053.203000", "154053.203000", "154053.218000", "154053.218000", "154053.218000", "154053.218000", "154053.218000", "154053.218000", "154053.218000", "154053.234000", "154053.234000", "154053.234000", "154053.234000", "154053.234000", "154053.234000", "154053.250000", "154113.187000", "154113.187000", "154113.187000", "154113.187000", "154113.187000", "154113.203000", "154113.203000", "154113.203000", "154113.203000", "154113.203000", "154113.203000", "154113.203000", "154113.218000", "154113.218000", "154113.218000", "154113.218000", "154113.218000", "154113.218000", "154113.218000", "154113.234000", "154113.234000", "154113.234000", "154113.234000", "154113.234000", "154113.250000", "154133.187000", "154133.187000", "154133.187000", "154133.187000", "154133.187000", "154133.203000", "154133.203000", "154133.203000", "154133.203000", "154133.203000", "154133.203000", "154133.203000", "154133.218000", "154133.218000", "154133.218000", "154133.218000", "154133.218000", "154133.218000", "154133.218000", "154133.234000", "154133.234000", "154133.234000", "154133.234000", "154133.234000", "154133.234000", "154133.250000", "154153.187000", "154153.187000", "154153.187000", "154153.187000", "154153.187000", "154153.203000", "154153.203000", "154153.203000", "154153.203000", "154153.203000", "154153.203000", "154153.203000", "154153.218000", "154153.218000", "154153.218000", "154153.218000", "154153.218000", "154153.218000", "154153.234000", "154153.234000", "154153.234000", "154153.234000", "154153.234000", "154153.234000", "154153.234000", "154213.187000", "154213.187000", "154213.187000", "154213.187000", "154213.187000", "154213.203000", "154213.203000", "154213.203000", "154213.203000", "154213.203000", "154213.203000", "154213.203000", "154213.218000", "154213.218000", "154213.218000", "154213.218000", "154213.218000", "154213.218000", "154213.218000", "154213.234000", "154213.234000", "154213.234000", "154213.234000", "154213.234000", "154213.250000", "154213.250000", "154233.187000", "154233.187000", "154233.187000", "154233.187000", "154233.187000", "154233.203000", "154233.203000", "154233.203000", "154233.203000", "154233.203000", "154233.203000", "154233.203000", "154233.218000", "154233.218000", "154233.218000", "154233.218000", "154233.218000", "154233.218000", "154233.218000", "154233.234000", "154233.234000", "154233.234000", "154233.234000", "154233.234000", "154233.250000", "154253.187000", "154253.187000", "154253.203000", "154253.203000", "154253.203000", "154253.203000", "154253.203000", "154253.203000", "154253.218000", "154253.218000", "154253.218000", "154253.218000", "154253.218000", "154253.218000", "154253.234000", "154253.234000", "154253.234000", "154253.234000", "154253.234000", "154253.234000", "154253.234000", "154253.250000", "154253.250000", "154253.250000", "154253.250000", "154308.125000", "154308.140000", "154308.140000", "154308.140000", "154308.140000", "154308.156000", "154308.156000", "154308.156000", "154308.156000", "154308.156000", "154308.156000", "154308.156000", "154308.171000", "154308.171000", "154308.171000", "154308.187000", "154308.187000", "154308.187000", "154308.187000", "154308.187000"],
