{
  "AcquisitionMatrixPE": 104,
  "AcquisitionNumber": 1,
  "AcquisitionTime": "14:20:14.822500",
  "BandwidthPerPixelPhaseEncode": 13.935,
  "BaseResolution": 104,
  "CoilString": "C:HEA;HEP",
  "ConversionSoftware": "dcm2niix",
  "ConversionSoftwareVersion": "v1.0.20210317",
  "DerivedVendorReportedEchoSpacing": 0.000690017,
  "DeviceSerialNumber": "35450",
  "DwellTime": 2.5e-06,
  "EchoTime": 0.0348,
  "EffectiveEchoSpacing": 0.000690017,
  "FlipAngle": 55,
  "ImageComments": "Unaliased MB8/PE3 (remote)",
  "ImageOrientationPatientDICOM": [1, 0, 0, 0, 0.979223, -0.202787],
  "ImageType": [
    "ORIGINAL",
    "PRIMARY",
    "M",
    "MB",
    "ND",
    "MOSAIC"
],
  "ImagingFrequency": 123.234,
  "InPlanePhaseEncodingDirectionDICOM": "COL",
  "InstitutionAddress": "Univeristy Ave. 197,Newark,North East,US,07102-1814",
  "InstitutionName": "RUBIC",
  "InstitutionalDepartmentName": "Department",
  "MRAcquisitionType": "2D",
  "MagneticFieldStrength": 3,
  "Manufacturer": "Siemens",
  "ManufacturersModelName": "TrioTim",
  "Modality": "MR",
  "MultibandAccelerationFactor": 8,
  "PartialFourier": 0.875,
  "PatientPosition": "HFS",
  "PercentPhaseFOV": 100,
  "PercentSampling": 100,
  "PhaseEncodingDirection": "j-",
  "PhaseEncodingSteps": 91,
  "PhaseResolution": 1,
  "PixelBandwidth": 1923,
  "ProcedureStepDescription": "Cole^Michael",
  "ProtocolName": "cmrr_mbep2d_bold_2mm_MB8_Rest",
  "PulseSequenceDetails": "%CustomerSeq%\\cmrr_mbep2d_bold",
  "ReceiveCoilName": "32Ch_Head",
  "ReconMatrixPE": 104,
  "RepetitionTime": 0.785,
  "SAR": 0.137944,
  "ScanOptions": "PFP\\FS",
  "ScanningSequence": "EP",
  "SequenceName": "epfid2d1_104",
  "SequenceVariant": "SK\\SS",
  "SeriesDescription": "cmrr_mbep2d_bold_2mm_MB8_Rest",
  "SeriesNumber": 9,
  "ShimSetting": [2087, -324, -7176, 334, 97, -254, -66, -31],
  "SliceThickness": 2,
  "SliceTiming": [0, 0.4375, 0.0875, 0.525, 0.175, 0.6125, 0.2625, 0.7, 0.35, 0, 0.4375, 0.0875, 0.525, 0.175, 0.6125, 0.2625, 0.7, 0.35, 0, 0.4375, 0.0875, 0.525, 0.175, 0.6125, 0.2625, 0.7, 0.35, 0, 0.4375, 0.0875, 0.525, 0.175, 0.6125, 0.2625, 0.7, 0.35, 0, 0.4375, 0.0875, 0.525, 0.175, 0.6125, 0.2625, 0.7, 0.35, 0, 0.4375, 0.0875, 0.525, 0.175, 0.6125, 0.2625, 0.7, 0.35, 0, 0.4375, 0.0875, 0.525, 0.175, 0.6125, 0.2625, 0.7, 0.35, 0, 0.4375, 0.0875, 0.525, 0.175, 0.6125, 0.2625, 0.7, 0.35],
  "SoftwareVersions": "syngo MR B19",
  "SpacingBetweenSlices": 2,
  "StationName": "MRC35450",
  "TaskName": "rest",
  "TotalReadoutTime": 0.0710717,
  "TxRefAmp": 328.352,
  "dcmmeta_affine": [
    [-2.0, 0.0, 0.0, 104.67796325683594],
    [0.0, 1.95844566822052, -0.4055745601654053, -74.50532531738281],
    [0.0, 0.4055745601654053, 1.95844566822052, -111.32870483398438],
    [0.0, 0.0, 0.0, 1.0]
],
  "dcmmeta_reorient_transform": [
    [0.0, -1.0, 0.0, 103.0],
    [1.0, 0.0, 0.0, 0.0],
    [0.0, 0.0, 1.0, 0.0],
    [0.0, 0.0, 0.0, 1.0]
],
  "dcmmeta_shape": [104, 104, 72, 1070],
  "dcmmeta_slice_dim": 2,
  "dcmmeta_version": 0.6,
  "global": {
    "const": {
      "AcquisitionMatrix": [104, 0, 0, 104],
      "AngioFlag": "N",
      "BitsAllocated": 16,
      "BitsStored": 12,
      "Columns": 936,
      "EchoNumbers": 1,
      "EchoTime": 34.8,
      "EchoTrainLength": 1,
      "FlipAngle": 55.0,
      "HighBit": 11,
      "ImageOrientationPatient": [1.0, 0.0, 0.0, 0.0, 0.97922281297031, -0.2027872840158],
      "ImagePositionPatient": [-936.67796611786, -941.92795729812, 99.164496288505],
      "ImageType": [
        "ORIGINAL",
        "PRIMARY",
        "M",
        "MB",
        "ND",
        "MOSAIC"
],
      "ImagedNucleus": "1H",
      "ImagingFrequency": 123.234416,
      "InPlanePhaseEncodingDirection": "COL",
      "MRAcquisitionType": "2D",
      "MagneticFieldStrength": 3.0,
      "Manufacturer": "SIEMENS",
      "ManufacturerModelName": "TrioTim",
      "Modality": "MR",
      "NumberOfAverages": 1.0,
      "NumberOfPhaseEncodingSteps": 91,
      "PercentPhaseFieldOfView": 100.0,
      "PercentSampling": 100.0,
      "PerformedProcedureStepStartTime": "133754.000000",
      "PhotometricInterpretation": "MONOCHROME2",
      "PixelBandwidth": 1923.0,
      "PixelRepresentation": 0,
      "PixelSpacing": [2.0, 2.0],
      "ProtocolName": "cmrr_mbep2d_bold_2mm_MB8_Rest",
      "RepetitionTime": 785.0,
      "Rows": 936,
      "SAR": 0.13794429959129,
      "SamplesPerPixel": 1,
      "ScanOptions": [
        "PFP",
        "FS"
],
      "ScanningSequence": "EP",
      "SequenceName": "epfid2d1_104",
      "SequenceVariant": [
        "SK",
        "SS"
],
      "SeriesDescription": "cmrr_mbep2d_bold_2mm_MB8_Rest",
      "SeriesNumber": 9,
      "SeriesTime": "142049.406000",
      "SliceLocation": -93.906875196632,
      "SliceThickness": 2.0,
      "SmallestImagePixelValue": 0,
      "SoftwareVersions": "syngo MR B19",
      "SpacingBetweenSlices": 2.000000023316,
      "SpecificCharacterSet": "ISO_IR 100",
      "StudyID": "1",
      "StudyTime": "133753.953000",
      "TransmitCoilName": "Body",
      "VariableFlipAngleFlag": "N",
      "WindowCenter": 416.0,
      "WindowCenterWidthExplanation": "WINDOW1",
      "WindowWidth": 702.0,
      "dBdt": 0.0},
    "slices": {}
  },
  "time": {
    "samples": {
      "AcquisitionNumber": [1, 2, 3, 4, 5, 6, 7, 8, 9, 10, 11, 12, 13, 14, 15, 16, 17, 18, 19, 20, 21, 22, 23, 24, 25, 26, 27, 28, 29, 30, 31, 32, 33, 34, 35, 36, 37, 38, 39, 40, 41, 42, 43, 44, 45, 46, 47, 48, 49, 50, 51, 52, 53, 54, 55, 56, 57, 58, 59, 60, 61, 62, 63, 64, 65, 66, 67, 68, 69, 70, 71, 72, 73, 74, 75, 76, 77, 78, 79, 80, 81, 82, 83, 84, 85, 86, 87, 88, 89, 90, 91, 92, 93, 94, 95, 96, 97, 98, 99, 100, 101, 102, 103, 104, 105, 106, 107, 108, 109, 110, 111, 112, 113, 114, 115, 116, 117, 118, 119, 120, 121, 122, 123, 124, 125, 126, 127, 128, 129, 130, 131, 132, 133, 134, 135, 136, 137, 138, 139, 140, 141, 142, 143, 144, 145, 146, 147, 148, 149, 150, 151, 152, 153, 154, 155, 156, 157, 158, 159, 160, 161, 162, 163, 164, 165, 166, 167, 168, 169, 170, 171, 172, 173, 174, 175, 176, 177, 178, 179, 180, 181, 182, 183, 184, 185, 186, 187, 188, 189, 190, 191, 192, 193, 194, 195, 196, 197, 198, 199, 200, 201, 202, 203, 204, 205, 206, 207, 208, 209, 210, 211, 212, 213, 214, 215, 216, 217, 218, 219, 220, 221, 222, 223, 224, 225, 226, 227, 228, 229, 230, 231, 232, 233, 234, 235, 236, 237, 238, 239, 240, 241, 242, 243, 244, 245, 246, 247, 248, 249, 250, 251, 252, 253, 254, 255, 256, 257, 258, 259, 260, 261, 262, 263, 264, 265, 266, 267, 268, 269, 270, 271, 272, 273, 274, 275, 276, 277, 278, 279, 280, 281, 282, 283, 284, 285, 286, 287, 288, 289, 290, 291, 292, 293, 294, 295, 296, 297, 298, 299, 300, 301, 302, 303, 304, 305, 306, 307, 308, 309, 310, 311, 312, 313, 314, 315, 316, 317, 318, 319, 320, 321, 322, 323, 324, 325, 326, 327, 328, 329, 330, 331, 332, 333, 334, 335, 336, 337, 338, 339, 340, 341, 342, 343, 344, 345, 346, 347, 348, 349, 350, 351, 352, 353, 354, 355, 356, 357, 358, 359, 360, 361, 362, 363, 364, 365, 366, 367, 368, 369, 370, 371, 372, 373, 374, 375, 376, 377, 378, 379, 380, 381, 382, 383, 384, 385, 386, 387, 388, 389, 390, 391, 392, 393, 394, 395, 396, 397, 398, 399, 400, 401, 402, 403, 404, 405, 406, 407, 408, 409, 410, 411, 412, 413, 414, 415, 416, 417, 418, 419, 420, 421, 422, 423, 424, 425, 426, 427, 428, 429, 430, 431, 432, 433, 434, 435, 436, 437, 438, 439, 440, 441, 442, 443, 444, 445, 446, 447, 448, 449, 450, 451, 452, 453, 454, 455, 456, 457, 458, 459, 460, 461, 462, 463, 464, 465, 466, 467, 468, 469, 470, 471, 472, 473, 474, 475, 476, 477, 478, 479, 480, 481, 482, 483, 484, 485, 486, 487, 488, 489, 490, 491, 492, 493, 494, 495, 496, 497, 498, 499, 500, 501, 502, 503, 504, 505, 506, 507, 508, 509, 510, 511, 512, 513, 514, 515, 516, 517, 518, 519, 520, 521, 522, 523, 524, 525, 526, 527, 528, 529, 530, 531, 532, 533, 534, 535, 536, 537, 538, 539, 540, 541, 542, 543, 544, 545, 546, 547, 548, 549, 550, 551, 552, 553, 554, 555, 556, 557, 558, 559, 560, 561, 562, 563, 564, 565, 566, 567, 568, 569, 570, 571, 572, 573, 574, 575, 576, 577, 578, 579, 580, 581, 582, 583, 584, 585, 586, 587, 588, 589, 590, 591, 592, 593, 594, 595, 596, 597, 598, 599, 600, 601, 602, 603, 604, 605, 606, 607, 608, 609, 610, 611, 612, 613, 614, 615, 616, 617, 618, 619, 620, 621, 622, 623, 624, 625, 626, 627, 628, 629, 630, 631, 632, 633, 634, 635, 636, 637, 638, 639, 640, 641, 642, 643, 644, 645, 646, 647, 648, 649, 650, 651, 652, 653, 654, 655, 656, 657, 658, 659, 660, 661, 662, 663, 664, 665, 666, 667, 668, 669, 670, 671, 672, 673, 674, 675, 676, 677, 678, 679, 680, 681, 682, 683, 684, 685, 686, 687, 688, 689, 690, 691, 692, 693, 694, 695, 696, 697, 698, 699, 700, 701, 702, 703, 704, 705, 706, 707, 708, 709, 710, 711, 712, 713, 714, 715, 716, 717, 718, 719, 720, 721, 722, 723, 724, 725, 726, 727, 728, 729, 730, 731, 732, 733, 734, 735, 736, 737, 738, 739, 740, 741, 742, 743, 744, 745, 746, 747, 748, 749, 750, 751, 752, 753, 754, 755, 756, 757, 758, 759, 760, 761, 762, 763, 764, 765, 766, 767, 768, 769, 770, 771, 772, 773, 774, 775, 776, 777, 778, 779, 780, 781, 782, 783, 784, 785, 786, 787, 788, 789, 790, 791, 792, 793, 794, 795, 796, 797, 798, 799, 800, 801, 802, 803, 804, 805, 806, 807, 808, 809, 810, 811, 812, 813, 814, 815, 816, 817, 818, 819, 820, 821, 822, 823, 824, 825, 826, 827, 828, 829, 830, 831, 832, 833, 834, 835, 836, 837, 838, 839, 840, 841, 842, 843, 844, 845, 846, 847, 848, 849, 850, 851, 852, 853, 854, 855, 856, 857, 858, 859, 860, 861, 862, 863, 864, 865, 866, 867, 868, 869, 870, 871, 872, 873, 874, 875, 876, 877, 878, 879, 880, 881, 882, 883, 884, 885, 886, 887, 888, 889, 890, 891, 892, 893, 894, 895, 896, 897, 898, 899, 900, 901, 902, 903, 904, 905, 906, 907, 908, 909, 910, 911, 912, 913, 914, 915, 916, 917, 918, 919, 920, 921, 922, 923, 924, 925, 926, 927, 928, 929, 930, 931, 932, 933, 934, 935, 936, 937, 938, 939, 940, 941, 942, 943, 944, 945, 946, 947, 948, 949, 950, 951, 952, 953, 954, 955, 956, 957, 958, 959, 960, 961, 962, 963, 964, 965, 966, 967, 968, 969, 970, 971, 972, 973, 974, 975, 976, 977, 978, 979, 980, 981, 982, 983, 984, 985, 986, 987, 988, 989, 990, 991, 992, 993, 994, 995, 996, 997, 998, 999, 1000, 1001, 1002, 1003, 1004, 1005, 1006, 1007, 1008, 1009, 1010, 1011, 1012, 1013, 1014, 1015, 1016, 1017, 1018, 1019, 1020, 1021, 1022, 1023, 1024, 1025, 1026, 1027, 1028, 1029, 1030, 1031, 1032, 1033, 1034, 1035, 1036, 1037, 1038, 1039, 1040, 1041, 1042, 1043, 1044, 1045, 1046, 1047, 1048, 1049, 1050, 1051, 1052, 1053, 1054, 1055, 1056, 1057, 1058, 1059, 1060, 1061, 1062, 1063, 1064, 1065, 1066, 1067, 1068, 1069, 1070],
      "AcquisitionTime": ["142014.822500", "142015.610000", "142016.397500", "142017.187500", "142017.975000", "142018.762500", "142019.550000", "142020.340000", "142021.127500", "142021.915000", "142022.702500", "142023.492500", "142024.280000", "142025.067500", "142025.857500", "142026.645000", "142027.432500", "142028.220000", "142029.010000", "142029.797500", "142030.585000", "142031.372500", "142032.162500", "142032.950000", "142033.737500", "142034.525000", "142035.315000", "142036.102500", "142036.890000", "142037.677500", "142038.467500", "142039.255000", "142040.042500", "142040.830000", "142041.620000", "142042.407500", "142043.195000", "142043.985000", "142044.772500", "142045.560000", "142046.347500", "142047.137500", "142047.925000", "142048.712500", "142049.500000", "142050.290000", "142051.077500", "142051.865000", "142052.652500", "142053.442500", "142054.230000", "142055.017500", "142055.805000", "142056.595000", "142057.382500", "142058.170000", "142058.957500", "142059.747500", "142100.535000", "142101.322500", "142102.112500", "142102.900000", "142103.687500", "142104.475000", "142105.265000", "142106.052500", "142106.840000", "142107.627500", "142108.417500", "142109.205000", "142109.992500", "142110.780000", "142111.570000", "142112.357500", "142113.145000", "142113.932500", "142114.722500", "142115.510000", "142116.297500", "142117.085000", "142117.875000", "142118.662500", "142119.450000", "142120.240000", "142121.027500", "142121.815000", "142122.602500", "142123.392500", "142124.180000", "142124.967500", "142125.755000", "142126.545000", "142127.332500", "142128.120000", "142128.907500", "142129.697500", "142130.485000", "142131.272500", "142132.060000", "142132.850000", "142133.637500", "142134.425000", "142135.212500", "142136.002500", "142136.790000", "142137.577500", "142138.367500", "142139.155000", "142139.942500", "142140.730000", "142141.520000", "142142.307500", "142143.095000", "142143.882500", "142144.672500", "142145.460000", "142146.247500", "142147.035000", "142147.825000", "142148.612500", "142149.400000", "142150.187500", "142150.977500", "142151.765000", "142152.552500", "142153.342500", "142154.130000", "142154.917500", "142155.705000", "142156.495000", "142157.282500", "142158.070000", "142158.857500", "142159.647500", "142200.435000", "142201.222500", "142202.010000", "142202.800000", "142203.587500", "142204.375000", "142205.162500", "142205.952500", "142206.740000", "142207.527500", "142208.315000", "142209.105000", "142209.892500", "142210.680000", "142211.470000", "142212.257500", "142213.045000", "142213.832500", "142214.622500", "142215.410000", "142216.197500", "142216.985000", "142217.775000", "142218.562500", "142219.350000", "142220.137500", "142220.927500", "142221.715000", "142222.502500", "142223.290000", "142224.080000", "142224.867500", "142225.655000", "142226.442500", "142227.232500", "142228.020000", "142228.807500", "142229.597500", "142230.385000", "142231.172500", "142231.960000", "142232.750000", "142233.537500", "142234.325000", "142235.112500", "142235.902500", "142236.690000", "142237.477500", "142238.265000", "142239.055000", "142239.842500", "142240.630000", "142241.417500", "142242.207500", "142242.995000", "142243.782500", "142244.570000", "142245.360000", "142246.147500", "142246.935000", "142247.725000", "142248.512500", "142249.300000", "142250.087500", "142250.877500", "142251.665000", "142252.452500", "142253.240000", "142254.030000", "142254.817500", "142255.605000", "142256.392500", "142257.182500", "142257.970000", "142258.757500", "142259.545000", "142300.335000", "142301.122500", "142301.910000", "142302.697500", "142303.487500", "142304.275000", "142305.062500", "142305.852500", "142306.640000", "142307.427500", "142308.215000", "142309.005000", "142309.792500", "142310.580000", "142311.367500", "142312.157500", "142312.945000", "142313.732500", "142314.520000", "142315.310000", "142316.097500", "142316.885000", "142317.672500", "142318.462500", "142319.250000", "142320.037500", "142320.825000", "142321.615000", "142322.402500", "142323.190000", "142323.980000", "142324.767500", "142325.555000", "142326.342500", "142327.132500", "142327.920000", "142328.707500", "142329.495000", "142330.285000", "142331.072500", "142331.860000", "142332.647500", "142333.437500", "142334.225000", "142335.012500", "142335.800000", "142336.590000", "142337.377500", "142338.165000", "142338.952500", "142339.742500", "142340.530000", "142341.317500", "142342.107500", "142342.895000", "142343.682500", "142344.470000", "142345.260000", "142346.047500", "142346.835000", "142347.622500", "142348.412500", "142349.200000", "142349.987500", "142350.775000", "142351.565000", "142352.352500", "142353.140000", "142353.927500", "142354.717500", "142355.505000", "142356.292500", "142357.080000", "142357.870000", "142358.657500", "142359.445000", "142400.235000", "142401.022500", "142401.810000", "142402.597500", "142403.387500", "142404.175000", "142404.962500", "142405.750000", "142406.540000", "142407.327500", "142408.115000", "142408.902500", "142409.692500", "142410.480000", "142411.267500", "142412.055000", "142412.845000", "142413.632500", "142414.420000", "142415.207500", "142415.997500", "142416.785000", "142417.572500", "142418.362500", "142419.150000", "142419.937500", "142420.725000", "142421.515000", "142422.302500", "142423.090000", "142423.877500", "142424.667500", "142425.455000", "142426.242500", "142427.030000", "142427.820000", "142428.607500", "142429.395000", "142430.182500", "142430.972500", "142431.760000", "142432.547500", "142433.335000", "142434.125000", "142434.912500", "142435.700000", "142436.490000", "142437.277500", "142438.065000", "142438.852500", "142439.642500", "142440.430000", "142441.217500", "142442.005000", "142442.795000", "142443.582500", "142444.370000", "142445.157500", "142445.947500", "142446.735000", "142447.522500", "142448.310000", "142449.100000", "142449.887500", "142450.675000", "142451.462500", "142452.252500", "142453.040000", "142453.827500", "142454.617500", "142455.405000", "142456.192500", "142456.980000", "142457.770000", "142458.557500", "142459.345000", "142500.132500", "142500.922500", "142501.710000", "142502.497500", "142503.285000", "142504.075000", "142504.862500", "142505.650000", "142506.437500", "142507.227500", "142508.015000", "142508.802500", "142509.592500", "142510.380000", "142511.167500", "142511.955000", "142512.745000", "142513.532500", "142514.320000", "142515.107500", "142515.897500", "142516.685000", "142517.472500", "142518.260000", "142519.050000", "142519.837500", "142520.625000", "142521.412500", "142522.202500", "142522.990000", "142523.777500", "142524.565000", "142525.355000", "142526.142500", "142526.930000", "142527.720000", "142528.507500", "142529.295000", "142530.082500", "142530.872500", "142531.660000", "142532.447500", "142533.235000", "142534.025000", "142534.812500", "142535.600000", "142536.387500", "142537.177500", "142537.965000", "142538.752500", "142539.540000", "142540.330000", "142541.117500", "142541.905000", "142542.692500", "142543.482500", "142544.270000", "142545.057500", "142545.847500", "142546.635000", "142547.422500", "142548.210000", "142549.000000", "142549.787500", "142550.575000", "142551.362500", "142552.152500", "142552.940000", "142553.727500", "142554.515000", "142555.305000", "142556.092500", "142556.880000", "142557.667500", "142558.457500", "142559.245000", "142600.032500", "142600.820000", "142601.610000", "142602.397500", "142603.185000", "142603.975000", "142604.762500", "142605.550000", "142606.337500", "142607.127500", "142607.915000", "142608.702500", "142609.490000", "142610.280000", "142611.067500", "142611.855000", "142612.642500", "142613.432500", "142614.220000", "142615.007500", "142615.795000", "142616.585000", "142617.372500", "142618.160000", "142618.947500", "142619.737500", "142620.525000", "142621.312500", "142622.102500", "142622.890000", "142623.677500", "142624.465000", "142625.255000", "142626.042500", "142626.830000", "142627.617500", "142628.407500", "142629.195000", "142629.982500", "142630.770000", "142631.560000", "142632.347500", "142633.135000", "142633.922500", "142634.712500", "142635.500000", "142636.287500", "142637.075000", "142637.865000", "142638.652500", "142639.440000", "142640.230000", "142641.017500", "142641.805000", "142642.592500", "142643.382500", "142644.170000", "142644.957500", "142645.745000", "142646.535000", "142647.322500", "142648.110000", "142648.897500", "142649.687500", "142650.475000", "142651.262500", "142652.050000", "142652.840000", "142653.627500", "142654.415000", "142655.202500", "142655.992500", "142656.780000", "142657.567500", "142658.357500", "142659.145000", "142659.932500", "142700.720000", "142701.510000", "142702.297500", "142703.085000", "142703.872500", "142704.662500", "142705.450000", "142706.237500", "142707.025000", "142707.815000", "142708.602500", "142709.390000", "142710.177500", "142710.967500", "142711.755000", "142712.542500", "142713.330000", "142714.120000", "142714.907500", "142715.695000", "142716.485000", "142717.272500", "142718.060000", "142718.847500", "142719.637500", "142720.425000", "142721.212500", "142722.000000", "142722.790000", "142723.577500", "142724.365000", "142725.152500", "142725.942500", "142726.730000", "142727.517500", "142728.305000", "142729.095000", "142729.882500", "142730.670000", "142731.457500", "142732.247500", "142733.035000", "142733.822500", "142734.612500", "142735.400000", "142736.187500", "142736.975000", "142737.765000", "142738.552500", "142739.340000", "142740.127500", "142740.917500", "142741.705000", "142742.492500", "142743.280000", "142744.070000", "142744.857500", "142745.645000", "142746.432500", "142747.222500", "142748.010000", "142748.797500", "142749.585000", "142750.375000", "142751.162500", "142751.950000", "142752.740000", "142753.527500", "142754.315000", "142755.102500", "142755.892500", "142756.680000", "142757.467500", "142758.255000", "142759.045000", "142759.832500", "142800.620000", "142801.407500", "142802.197500", "142802.985000", "142803.772500", "142804.560000", "142805.350000", "142806.137500", "142806.925000", "142807.712500", "142808.502500", "142809.290000", "142810.077500", "142810.867500", "142811.655000", "142812.442500", "142813.230000", "142814.020000", "142814.807500", "142815.595000", "142816.382500", "142817.172500", "142817.960000", "142818.747500", "142819.535000", "142820.325000", "142821.112500", "142821.900000", "142822.687500", "142823.477500", "142824.265000", "142825.052500", "142825.842500", "142826.630000", "142827.417500", "142828.205000", "142828.995000", "142829.782500", "142830.570000", "142831.357500", "142832.147500", "142832.935000", "142833.722500", "142834.510000", "142835.300000", "142836.087500", "142836.875000", "142837.662500", "142838.452500", "142839.240000", "142840.027500", "142840.815000", "142841.605000", "142842.392500", "142843.180000", "142843.970000", "142844.757500", "142845.545000", "142846.332500", "142847.122500", "142847.910000", "142848.697500", "142849.485000", "142850.275000", "142851.062500", "142851.850000", "142852.637500", "142853.427500", "142854.215000", "142855.002500", "142855.790000", "142856.580000", "142857.367500", "142858.155000", "142858.942500", "142859.732500", "142900.520000", "142901.307500", "142902.097500", "142902.885000", "142903.672500", "142904.460000", "142905.250000", "142906.037500", "142906.825000", "142907.612500", "142908.402500", "142909.190000", "142909.977500", "142910.765000", "142911.555000", "142912.342500", "142913.130000", "142913.917500", "142914.707500", "142915.495000", "142916.282500", "142917.070000", "142917.860000", "142918.647500", "142919.435000", "142920.225000", "142921.012500", "142921.800000", "142922.587500", "142923.377500", "142924.165000", "142924.952500", "142925.740000", "142926.530000", "142927.317500", "142928.105000", "142928.892500", "142929.682500", "142930.470000", "142931.257500", "142932.045000", "142932.835000", "142933.622500", "142934.410000", "142935.197500", "142935.987500", "142936.775000", "142937.562500", "142938.352500", "142939.140000", "142939.927500", "142940.715000", "142941.505000", "142942.292500", "142943.080000", "142943.867500", "142944.657500", "142945.445000", "142946.232500", "142947.020000", "142947.810000", "142948.597500", "142949.385000", "142950.172500", "142950.962500", "142951.750000", "142952.537500", "142953.325000", "142954.115000", "142954.902500", "142955.690000", "142956.480000", "142957.267500", "142958.055000", "142958.842500", "142959.632500", "143000.420000", "143001.207500", "143001.995000", "143002.785000", "143003.572500", "143004.360000", "143005.147500", "143005.937500", "143006.725000", "143007.512500", "143008.300000", "143009.090000", "143009.877500", "143010.665000", "143011.452500", "143012.242500", "143013.030000", "143013.817500", "143014.607500", "143015.395000", "143016.182500", "143016.970000", "143017.760000", "143018.547500", "143019.335000", "143020.122500", "143020.912500", "143021.700000", "143022.487500", "143023.275000", "143024.065000", "143024.852500", "143025.640000", "143026.427500", "143027.217500", "143028.005000", "143028.792500", "143029.580000", "143030.370000", "143031.157500", "143031.945000", "143032.735000", "143033.522500", "143034.310000", "143035.097500", "143035.887500", "143036.675000", "143037.462500", "143038.250000", "143039.040000", "143039.827500", "143040.615000", "143041.402500", "143042.192500", "143042.980000", "143043.767500", "143044.555000", "143045.345000", "143046.132500", "143046.920000", "143047.707500", "143048.497500", "143049.285000", "143050.072500", "143050.862500", "143051.650000", "143052.437500", "143053.225000", "143054.015000", "143054.802500", "143055.590000", "143056.377500", "143057.167500", "143057.955000", "143058.742500", "143059.530000", "143100.320000", "143101.107500", "143101.895000", "143102.682500", "143103.472500", "143104.260000", "143105.047500", "143105.835000", "143106.625000", "143107.412500", "143108.200000", "143108.990000", "143109.777500", "143110.565000", "143111.352500", "143112.142500", "143112.930000", "143113.717500", "143114.505000", "143115.295000", "143116.082500", "143116.870000", "143117.657500", "143118.447500", "143119.235000", "143120.022500", "143120.810000", "143121.600000", "143122.387500", "143123.175000", "143123.962500", "143124.752500", "143125.540000", "143126.327500", "143127.117500", "143127.905000", "143128.692500", "143129.480000", "143130.270000", "143131.057500", "143131.845000", "143132.632500", "143133.422500", "143134.210000", "143134.997500", "143135.785000", "143136.575000", "143137.362500", "143138.150000", "143138.937500", "143139.727500", "143140.515000", "143141.302500", "143142.092500", "143142.880000", "143143.667500", "143144.455000", "143145.245000", "143146.032500", "143146.820000", "143147.607500", "143148.397500", "143149.185000", "143149.972500", "143150.760000", "143151.550000", "143152.337500", "143153.125000", "143153.912500", "143154.702500", "143155.490000", "143156.277500", "143157.065000", "143157.855000", "143158.642500", "143159.430000", "143200.220000", "143201.007500", "143201.795000", "143202.582500", "143203.372500", "143204.160000", "143204.947500", "143205.735000", "143206.525000", "143207.312500", "143208.100000", "143208.887500", "143209.677500", "143210.465000", "143211.252500", "143212.040000", "143212.830000", "143213.617500", "143214.405000", "143215.192500", "143215.982500", "143216.770000", "143217.557500", "143218.347500", "143219.135000", "143219.922500", "143220.710000", "143221.500000", "143222.287500", "143223.075000", "143223.862500", "143224.652500", "143225.440000", "143226.227500", "143227.015000", "143227.805000", "143228.592500", "143229.380000", "143230.167500", "143230.957500", "143231.745000", "143232.532500", "143233.320000", "143234.110000", "143234.897500", "143235.685000", "143236.475000", "143237.262500", "143238.050000", "143238.837500", "143239.627500", "143240.415000", "143241.202500", "143241.990000", "143242.780000", "143243.567500", "143244.355000", "143245.142500", "143245.932500", "143246.720000", "143247.507500", "143248.295000", "143249.085000", "143249.872500", "143250.660000", "143251.447500", "143252.237500", "143253.025000", "143253.812500", "143254.602500", "143255.390000", "143256.177500", "143256.965000", "143257.755000", "143258.542500", "143259.330000", "143300.117500", "143300.907500", "143301.695000", "143302.482500", "143303.270000", "143304.060000", "143304.847500", "143305.635000", "143306.422500", "143307.212500", "143308.000000", "143308.787500", "143309.575000", "143310.365000", "143311.152500", "143311.940000", "143312.730000", "143313.517500", "143314.305000", "143315.092500", "143315.882500", "143316.670000", "143317.457500", "143318.245000", "143319.035000", "143319.822500", "143320.610000", "143321.397500", "143322.187500", "143322.975000", "143323.762500", "143324.550000", "143325.340000", "143326.127500", "143326.915000", "143327.702500", "143328.492500", "143329.280000", "143330.067500", "143330.857500", "143331.645000", "143332.432500", "143333.220000", "143334.010000", "143334.797500", "143335.585000", "143336.372500", "143337.162500", "143337.950000", "143338.737500", "143339.525000", "143340.315000", "143341.102500", "143341.890000", "143342.677500", "143343.467500", "143344.255000", "143345.042500", "143345.830000", "143346.620000", "143347.407500", "143348.195000", "143348.985000", "143349.772500", "143350.560000", "143351.347500", "143352.137500", "143352.925000", "143353.712500", "143354.500000", "143355.290000", "143356.077500", "143356.865000", "143357.652500", "143358.442500", "143359.230000", "143400.017500", "143400.805000", "143401.595000", "143402.382500", "143403.170000", "143403.957500", "143404.747500", "143405.535000", "143406.322500", "143407.112500", "143407.900000", "143408.687500", "143409.475000", "143410.265000", "143411.052500", "143411.840000", "143412.627500", "143413.417500", "143414.205000", "143414.992500", "143415.780000", "143416.570000", "143417.357500"],
