{
  "AcquisitionMatrixPE": 104,
  "AcquisitionNumber": 1,
  "AcquisitionTime": "16:14:44.725000",
  "BandwidthPerPixelPhaseEncode": 13.935,
  "BaseResolution": 104,
  "CoilString": "C:HEA;HEP",
  "ConversionSoftware": "dcm2niix",
  "ConversionSoftwareVersion": "v1.0.20210317",
  "DerivedVendorReportedEchoSpacing": 0.000690017,
  "DeviceSerialNumber": "35450",
  "DwellTime": 2.5e-06,
  "EchoTime": 0.0348,
  "EffectiveEchoSpacing": 0.000690017,
  "FlipAngle": 55,
  "ImageComments": "Unaliased MB8/PE3",
  "ImageOrientationPatientDICOM": [1, 0, 0, 0, 0.988494, -0.151261],
  "ImageType": [
    "ORIGINAL",
    "PRIMARY",
    "M",
    "MB",
    "ND",
    "MOSAIC"
],
  "ImagingFrequency": 123.235,
  "InPlanePhaseEncodingDirectionDICOM": "COL",
  "InstitutionAddress": "Univeristy Ave. 197,Newark,North East,US,07102-1814",
  "InstitutionName": "RUBIC",
  "InstitutionalDepartmentName": "Department",
  "MRAcquisitionType": "2D",
  "MagneticFieldStrength": 3,
  "Manufacturer": "Siemens",
  "ManufacturersModelName": "TrioTim",
  "Modality": "MR",
  "MultibandAccelerationFactor": 8,
  "PartialFourier": 0.875,
  "PatientPosition": "HFS",
  "PercentPhaseFOV": 100,
  "PercentSampling": 100,
  "PhaseEncodingDirection": "j-",
  "PhaseEncodingSteps": 91,
  "PhaseResolution": 1,
  "PixelBandwidth": 1923,
  "ProcedureStepDescription": "Cole^Michael",
  "ProtocolName": "cmrr_mbep2d_bold_2mm_MB8_Task_8x",
  "PulseSequenceDetails": "%CustomerSeq%\\cmrr_mbep2d_bold",
  "ReceiveCoilName": "32Ch_Head",
  "ReconMatrixPE": 104,
  "RepetitionTime": 0.785,
  "SAR": 0.13775,
  "ScanOptions": "PFP\\FS",
  "ScanningSequence": "EP",
  "SequenceName": "epfid2d1_104",
  "SequenceVariant": "SK\\SS",
  "SeriesDescription": "cmrr_mbep2d_bold_2mm_MB8_Task_8x",
  "SeriesNumber": 23,
  "ShimSetting": [2109, -453, -7245, 237, 132, -465, 97, -67],
  "SliceThickness": 2,
  "SliceTiming": [0, 0.4375, 0.0875, 0.525, 0.175, 0.6125, 0.2625, 0.7, 0.35, 0, 0.4375, 0.0875, 0.525, 0.175, 0.6125, 0.2625, 0.7, 0.35, 0, 0.4375, 0.0875, 0.525, 0.175, 0.6125, 0.2625, 0.7, 0.35, 0, 0.4375, 0.0875, 0.525, 0.175, 0.6125, 0.2625, 0.7, 0.35, 0, 0.4375, 0.0875, 0.525, 0.175, 0.6125, 0.2625, 0.7, 0.35, 0, 0.4375, 0.0875, 0.525, 0.175, 0.6125, 0.2625, 0.7, 0.35, 0, 0.4375, 0.0875, 0.525, 0.175, 0.6125, 0.2625, 0.7, 0.35, 0, 0.4375, 0.0875, 0.525, 0.175, 0.6125, 0.2625, 0.7, 0.35],
  "SoftwareVersions": "syngo MR B19",
  "SpacingBetweenSlices": 2,
  "StationName": "MRC35450",
  "TaskName": "cpro",
  "TotalReadoutTime": 0.0710717,
  "TxRefAmp": 318.521,
  "dcmmeta_affine": [
    [-2.0, 0.0, 0.0, 103.32203674316406],
    [0.0, 1.9769877195358276, -0.30252164602279663, -70.42584228515625],
    [0.0, 0.30252164602279663, 1.9769878387451172, -105.27268981933594],
    [0.0, 0.0, 0.0, 1.0]
],
  "dcmmeta_reorient_transform": [
    [0.0, -1.0, 0.0, 103.0],
    [1.0, 0.0, 0.0, 0.0],
    [0.0, 0.0, 1.0, 0.0],
    [0.0, 0.0, 0.0, 1.0]
],
  "dcmmeta_shape": [104, 104, 72, 581],
  "dcmmeta_slice_dim": 2,
  "dcmmeta_version": 0.6,
  "global": {
    "const": {
      "AcquisitionMatrix": [104, 0, 0, 104],
      "AngioFlag": "N",
      "BitsAllocated": 16,
      "BitsStored": 12,
      "Columns": 936,
      "EchoNumbers": 1,
      "EchoTime": 34.8,
      "EchoTrainLength": 1,
      "FlipAngle": 55.0,
      "HighBit": 11,
      "ImageOrientationPatient": [1.0, 0.0, 0.0, 0.0, 0.98849388683562, -0.1512608200712],
      "ImagePositionPatient": [-935.32203388214, -955.63081366164, 51.736041893284],
      "ImageType": [
        "ORIGINAL",
        "PRIMARY",
        "M",
        "MB",
        "ND",
        "MOSAIC"
],
      "ImagedNucleus": "1H",
      "ImagingFrequency": 123.234627,
      "InPlanePhaseEncodingDirection": "COL",
      "MRAcquisitionType": "2D",
      "MagneticFieldStrength": 3.0,
      "Manufacturer": "SIEMENS",
      "ManufacturerModelName": "TrioTim",
      "Modality": "MR",
      "NumberOfAverages": 1.0,
      "NumberOfPhaseEncodingSteps": 91,
      "PercentPhaseFieldOfView": 100.0,
      "PercentSampling": 100.0,
      "PerformedProcedureStepStartTime": "142132.750000",
      "PhotometricInterpretation": "MONOCHROME2",
      "PixelBandwidth": 1923.0,
      "PixelRepresentation": 0,
      "PixelSpacing": [2.0, 2.0],
      "ProtocolName": "cmrr_mbep2d_bold_2mm_MB8_Task_8x",
      "RepetitionTime": 785.0,
      "Rows": 936,
      "SAR": 0.13774956097681,
      "SamplesPerPixel": 1,
      "ScanOptions": [
        "PFP",
        "FS"
],
      "ScanningSequence": "EP",
      "SequenceName": "epfid2d1_104",
      "SequenceVariant": [
        "SK",
        "SS"
],
      "SeriesDescription": "cmrr_mbep2d_bold_2mm_MB8_Task_8x",
      "SeriesNumber": 23,
      "SeriesTime": "174935.781000",
      "SliceLocation": -93.408739419185,
      "SliceThickness": 2.0,
      "SmallestImagePixelValue": 0,
      "SoftwareVersions": "syngo MR B19",
      "SpacingBetweenSlices": 2.0000000375168,
      "SpecificCharacterSet": "ISO_IR 100",
      "StudyID": "1",
      "StudyTime": "142132.703000",
      "TransmitCoilName": "Body",
      "VariableFlipAngleFlag": "N",
      "WindowCenterWidthExplanation": "Algo1",
      "dBdt": 0.0},
    "slices": {}
  },
  "time": {
    "samples": {
      "AcquisitionNumber": [1, 2, 3, 4, 5, 6, 7, 8, 9, 10, 11, 12, 13, 14, 15, 16, 17, 18, 19, 20, 21, 22, 23, 24, 25, 26, 27, 28, 29, 30, 31, 32, 33, 34, 35, 36, 37, 38, 39, 40, 41, 42, 43, 44, 45, 46, 47, 48, 49, 50, 51, 52, 53, 54, 55, 56, 57, 58, 59, 60, 61, 62, 63, 64, 65, 66, 67, 68, 69, 70, 71, 72, 73, 74, 75, 76, 77, 78, 79, 80, 81, 82, 83, 84, 85, 86, 87, 88, 89, 90, 91, 92, 93, 94, 95, 96, 97, 98, 99, 100, 101, 102, 103, 104, 105, 106, 107, 108, 109, 110, 111, 112, 113, 114, 115, 116, 117, 118, 119, 120, 121, 122, 123, 124, 125, 126, 127, 128, 129, 130, 131, 132, 133, 134, 135, 136, 137, 138, 139, 140, 141, 142, 143, 144, 145, 146, 147, 148, 149, 150, 151, 152, 153, 154, 155, 156, 157, 158, 159, 160, 161, 162, 163, 164, 165, 166, 167, 168, 169, 170, 171, 172, 173, 174, 175, 176, 177, 178, 179, 180, 181, 182, 183, 184, 185, 186, 187, 188, 189, 190, 191, 192, 193, 194, 195, 196, 197, 198, 199, 200, 201, 202, 203, 204, 205, 206, 207, 208, 209, 210, 211, 212, 213, 214, 215, 216, 217, 218, 219, 220, 221, 222, 223, 224, 225, 226, 227, 228, 229, 230, 231, 232, 233, 234, 235, 236, 237, 238, 239, 240, 241, 242, 243, 244, 245, 246, 247, 248, 249, 250, 251, 252, 253, 254, 255, 256, 257, 258, 259, 260, 261, 262, 263, 264, 265, 266, 267, 268, 269, 270, 271, 272, 273, 274, 275, 276, 277, 278, 279, 280, 281, 282, 283, 284, 285, 286, 287, 288, 289, 290, 291, 292, 293, 294, 295, 296, 297, 298, 299, 300, 301, 302, 303, 304, 305, 306, 307, 308, 309, 310, 311, 312, 313, 314, 315, 316, 317, 318, 319, 320, 321, 322, 323, 324, 325, 326, 327, 328, 329, 330, 331, 332, 333, 334, 335, 336, 337, 338, 339, 340, 341, 342, 343, 344, 345, 346, 347, 348, 349, 350, 351, 352, 353, 354, 355, 356, 357, 358, 359, 360, 361, 362, 363, 364, 365, 366, 367, 368, 369, 370, 371, 372, 373, 374, 375, 376, 377, 378, 379, 380, 381, 382, 383, 384, 385, 386, 387, 388, 389, 390, 391, 392, 393, 394, 395, 396, 397, 398, 399, 400, 401, 402, 403, 404, 405, 406, 407, 408, 409, 410, 411, 412, 413, 414, 415, 416, 417, 418, 419, 420, 421, 422, 423, 424, 425, 426, 427, 428, 429, 430, 431, 432, 433, 434, 435, 436, 437, 438, 439, 440, 441, 442, 443, 444, 445, 446, 447, 448, 449, 450, 451, 452, 453, 454, 455, 456, 457, 458, 459, 460, 461, 462, 463, 464, 465, 466, 467, 468, 469, 470, 471, 472, 473, 474, 475, 476, 477, 478, 479, 480, 481, 482, 483, 484, 485, 486, 487, 488, 489, 490, 491, 492, 493, 494, 495, 496, 497, 498, 499, 500, 501, 502, 503, 504, 505, 506, 507, 508, 509, 510, 511, 512, 513, 514, 515, 516, 517, 518, 519, 520, 521, 522, 523, 524, 525, 526, 527, 528, 529, 530, 531, 532, 533, 534, 535, 536, 537, 538, 539, 540, 541, 542, 543, 544, 545, 546, 547, 548, 549, 550, 551, 552, 553, 554, 555, 556, 557, 558, 559, 560, 561, 562, 563, 564, 565, 566, 567, 568, 569, 570, 571, 572, 573, 574, 575, 576, 577, 578, 579, 580, 581],
      "AcquisitionTime": ["161444.725000", "161445.512500", "161446.300000", "161447.087500", "161447.877500", "161448.665000", "161449.452500", "161450.242500", "161451.030000", "161451.817500", "161452.605000", "161453.395000", "161454.182500", "161454.970000", "161455.757500", "161456.547500", "161457.335000", "161458.122500", "161458.910000", "161459.700000", "161500.487500", "161501.275000", "161502.062500", "161502.852500", "161503.640000", "161504.427500", "161505.217500", "161506.005000", "161506.792500", "161507.580000", "161508.370000", "161509.157500", "161509.945000", "161510.732500", "161511.522500", "161512.310000", "161513.097500", "161513.885000", "161514.675000", "161515.462500", "161516.250000", "161517.037500", "161517.827500", "161518.615000", "161519.402500", "161520.190000", "161520.980000", "161521.767500", "161522.555000", "161523.345000", "161524.132500", "161524.920000", "161525.707500", "161526.497500", "161527.285000", "161528.072500", "161528.860000", "161529.650000", "161530.437500", "161531.225000", "161532.012500", "161532.802500", "161533.590000", "161534.377500", "161535.165000", "161535.955000", "161536.742500", "161537.530000", "161538.317500", "161539.107500", "161539.895000", "161540.682500", "161541.472500", "161542.260000", "161543.047500", "161543.835000", "161544.625000", "161545.412500", "161546.200000", "161546.987500", "161547.777500", "161548.565000", "161549.352500", "161550.140000", "161550.930000", "161551.717500", "161552.505000", "161553.292500", "161554.082500", "161554.870000", "161555.657500", "161556.445000", "161557.235000", "161558.022500", "161558.810000", "161559.600000", "161600.387500", "161601.175000", "161601.962500", "161602.752500", "161603.540000", "161604.327500", "161605.115000", "161605.905000", "161606.692500", "161607.480000", "161608.267500", "161609.057500", "161609.845000", "161610.632500", "161611.420000", "161612.210000", "161612.997500", "161613.785000", "161614.572500", "161615.362500", "161616.150000", "161616.937500", "161617.727500", "161618.515000", "161619.302500", "161620.090000", "161620.880000", "161621.667500", "161622.455000", "161623.242500", "161624.032500", "161624.820000", "161625.607500", "161626.395000", "161627.185000", "161627.972500", "161628.760000", "161629.547500", "161630.337500", "161631.125000", "161631.912500", "161632.700000", "161633.490000", "161634.277500", "161635.065000", "161635.855000", "161636.642500", "161637.430000", "161638.217500", "161639.007500", "161639.795000", "161640.582500", "161641.370000", "161642.160000", "161642.947500", "161643.735000", "161644.522500", "161645.312500", "161646.100000", "161646.887500", "161647.675000", "161648.465000", "161649.252500", "161650.040000", "161650.827500", "161651.617500", "161652.405000", "161653.192500", "161653.982500", "161654.770000", "161655.557500", "161656.345000", "161657.135000", "161657.922500", "161658.710000", "161659.497500", "161700.287500", "161701.075000", "161701.862500", "161702.650000", "161703.440000", "161704.227500", "161705.015000", "161705.802500", "161706.592500", "161707.380000", "161708.167500", "161708.955000", "161709.745000", "161710.532500", "161711.320000", "161712.110000", "161712.897500", "161713.685000", "161714.472500", "161715.262500", "161716.050000", "161716.837500", "161717.625000", "161718.415000", "161719.202500", "161719.990000", "161720.777500", "161721.567500", "161722.355000", "161723.142500", "161723.930000", "161724.720000", "161725.507500", "161726.295000", "161727.082500", "161727.872500", "161728.660000", "161729.447500", "161730.237500", "161731.025000", "161731.812500", "161732.600000", "161733.390000", "161734.177500", "161734.965000", "161735.752500", "161736.542500", "161737.330000", "161738.117500", "161738.905000", "161739.695000", "161740.482500", "161741.270000", "161742.057500", "161742.847500", "161743.635000", "161744.422500", "161745.210000", "161746.000000", "161746.787500", "161747.575000", "161748.365000", "161749.152500", "161749.940000", "161750.727500", "161751.517500", "161752.305000", "161753.092500", "161753.880000", "161754.670000", "161755.457500", "161756.245000", "161757.032500", "161757.822500", "161758.610000", "161759.397500", "161800.185000", "161800.975000", "161801.762500", "161802.550000", "161803.337500", "161804.127500", "161804.915000", "161805.702500", "161806.492500", "161807.280000", "161808.067500", "161808.855000", "161809.645000", "161810.432500", "161811.220000", "161812.007500", "161812.797500", "161813.585000", "161814.372500", "161815.160000", "161815.950000", "161816.737500", "161817.525000", "161818.312500", "161819.102500", "161819.890000", "161820.677500", "161821.467500", "161822.255000", "161823.042500", "161823.830000", "161824.620000", "161825.407500", "161826.195000", "161826.982500", "161827.772500", "161828.560000", "161829.347500", "161830.135000", "161830.925000", "161831.712500", "161832.500000", "161833.287500", "161834.077500", "161834.865000", "161835.652500", "161836.440000", "161837.230000", "161838.017500", "161838.805000", "161839.595000", "161840.382500", "161841.170000", "161841.957500", "161842.747500", "161843.535000", "161844.322500", "161845.110000", "161845.900000", "161846.687500", "161847.475000", "161848.262500", "161849.052500", "161849.840000", "161850.627500", "161851.415000", "161852.205000", "161852.992500", "161853.780000", "161854.567500", "161855.357500", "161856.145000", "161856.932500", "161857.722500", "161858.510000", "161859.297500", "161900.085000", "161900.875000", "161901.662500", "161902.450000", "161903.237500", "161904.027500", "161904.815000", "161905.602500", "161906.390000", "161907.180000", "161907.967500", "161908.755000", "161909.542500", "161910.332500", "161911.120000", "161911.907500", "161912.695000", "161913.485000", "161914.272500", "161915.060000", "161915.850000", "161916.637500", "161917.425000", "161918.212500", "161919.002500", "161919.790000", "161920.577500", "161921.365000", "161922.155000", "161922.942500", "161923.730000", "161924.517500", "161925.307500", "161926.095000", "161926.882500", "161927.670000", "161928.460000", "161929.247500", "161930.035000", "161930.822500", "161931.612500", "161932.400000", "161933.187500", "161933.977500", "161934.765000", "161935.552500", "161936.340000", "161937.130000", "161937.917500", "161938.705000", "161939.492500", "161940.282500", "161941.070000", "161941.857500", "161942.645000", "161943.435000", "161944.222500", "161945.010000", "161945.797500", "161946.587500", "161947.375000", "161948.162500", "161948.950000", "161949.740000", "161950.527500", "161951.315000", "161952.105000", "161952.892500", "161953.680000", "161954.467500", "161955.257500", "161956.045000", "161956.832500", "161957.620000", "161958.410000", "161959.197500", "161959.985000", "162000.772500", "162001.562500", "162002.350000", "162003.137500", "162003.925000", "162004.715000", "162005.502500", "162006.290000", "162007.077500", "162007.867500", "162008.655000", "162009.442500", "162010.232500", "162011.020000", "162011.807500", "162012.595000", "162013.385000", "162014.172500", "162014.960000", "162015.747500", "162016.537500", "162017.325000", "162018.112500", "162018.900000", "162019.690000", "162020.477500", "162021.265000", "162022.052500", "162022.842500", "162023.630000", "162024.417500", "162025.205000", "162025.995000", "162026.782500", "162027.570000", "162028.360000", "162029.147500", "162029.935000", "162030.722500", "162031.512500", "162032.300000", "162033.087500", "162033.875000", "162034.665000", "162035.452500", "162036.240000", "162037.027500", "162037.817500", "162038.605000", "162039.392500", "162040.180000", "162040.970000", "162041.757500", "162042.545000", "162043.332500", "162044.122500", "162044.910000", "162045.697500", "162046.487500", "162047.275000", "162048.062500", "162048.850000", "162049.640000", "162050.427500", "162051.215000", "162052.002500", "162052.792500", "162053.580000", "162054.367500", "162055.155000", "162055.945000", "162056.732500", "162057.520000", "162058.307500", "162059.097500", "162059.885000", "162100.672500", "162101.460000", "162102.250000", "162103.037500", "162103.825000", "162104.615000", "162105.402500", "162106.190000", "162106.977500", "162107.767500", "162108.555000", "162109.342500", "162110.130000", "162110.920000", "162111.707500", "162112.495000", "162113.282500", "162114.072500", "162114.860000", "162115.647500", "162116.435000", "162117.225000", "162118.012500", "162118.800000", "162119.587500", "162120.377500", "162121.165000", "162121.952500", "162122.742500", "162123.530000", "162124.317500", "162125.105000", "162125.895000", "162126.682500", "162127.470000", "162128.257500", "162129.047500", "162129.835000", "162130.622500", "162131.410000", "162132.200000", "162132.987500", "162133.775000", "162134.562500", "162135.352500", "162136.140000", "162136.927500", "162137.717500", "162138.505000", "162139.292500", "162140.080000", "162140.870000", "162141.657500", "162142.445000", "162143.232500", "162144.022500", "162144.810000", "162145.597500", "162146.385000", "162147.175000", "162147.962500", "162148.750000", "162149.537500", "162150.327500", "162151.115000", "162151.902500", "162152.690000", "162153.480000", "162154.267500", "162155.055000", "162155.845000", "162156.632500", "162157.420000", "162158.207500", "162158.997500", "162159.785000", "162200.572500", "162201.360000", "162202.150000", "162202.937500", "162203.725000", "162204.512500", "162205.302500", "162206.090000", "162206.877500", "162207.665000", "162208.455000", "162209.242500", "162210.030000", "162210.817500", "162211.607500", "162212.395000", "162213.182500", "162213.972500", "162214.760000", "162215.547500", "162216.335000", "162217.125000", "162217.912500", "162218.700000", "162219.487500", "162220.277500", "162221.065000", "162221.852500"],
      "ContentTime": ["174935.781000", "174935.781000", "175035.765000", "175035.765000", "175035.765000", "175035.765000", "175035.765000", "175035.765000", "175035.765000", "175035.781000", "175035.781000", "175035.781000", "175035.781000", "175035.796000", "175035.796000", "175035.796000", "175035.796000", "175035.796000", "175035.796000", "175035.796000", "175035.796000", "175035.812000", "175035.812000", "175035.812000", "175035.812000", "175035.812000", "175035.812000", "175035.812000", "175035.828000", "175035.828000", "175135.765000", "175135.765000", "175135.781000", "175135.781000", "175135.781000", "175135.781000", "175135.781000", "175135.781000", "175135.796000", "175135.796000", "175135.796000", "175135.812000", "175135.812000", "175135.812000", "175135.812000", "175135.812000", "175135.812000", "175135.812000", "175135.828000", "175135.828000", "175135.828000", "175135.828000", "175135.828000", "175135.828000", "175135.828000", "175135.843000", "175135.843000", "175135.843000", "175235.765000", "175235.765000", "175235.765000", "175235.765000", "175235.765000", "175235.765000", "175235.765000", "175235.781000", "175235.781000", "175235.781000", "175235.781000", "175235.781000", "175235.781000", "175235.781000", "175235.796000", "175235.796000", "175235.796000", "175235.796000", "175235.796000", "175235.796000", "175235.796000", "175235.812000", "175235.812000", "175235.812000", "175235.812000", "175235.812000", "175235.828000", "175235.828000", "175235.828000", "175335.765000", "175335.765000", "175335.765000", "175335.765000", "175335.765000", "175335.765000", "175335.765000", "175335.781000", "175335.781000", "175335.781000", "175335.781000", "175335.781000", "175335.781000", "175335.781000", "175335.796000", "175335.796000", "175335.796000", "175335.796000", "175335.796000", "175335.796000", "175335.796000", "175335.812000", "175335.812000", "175335.812000", "175335.812000", "175335.812000", "175335.828000", "175335.828000", "175435.765000", "175435.765000", "175435.765000", "175435.765000", "175435.765000", "175435.765000", "175435.765000", "175435.781000", "175435.781000", "175435.781000", "175435.781000", "175435.781000", "175435.781000", "175435.781000", "175435.796000", "175435.796000", "175435.796000", "175435.796000", "175435.796000", "175435.796000", "175435.796000", "175435.812000", "175435.812000", "175435.812000", "175435.812000", "175435.812000", "175435.812000", "175435.812000", "175455.765000", "175455.765000", "175455.765000", "175455.765000", "175455.765000", "175455.765000", "175455.765000", "175455.781000", "175455.781000", "175555.765000", "175555.765000", "175555.765000", "175555.765000", "175555.765000", "175555.765000", "175555.765000", "175555.781000", "175555.781000", "175555.781000", "175555.781000", "175555.781000", "175555.781000", "175555.796000", "175555.796000", "175555.796000", "175555.796000", "175555.796000", "175555.796000", "175555.812000", "175555.812000", "175555.812000", "175555.812000", "175555.828000", "175555.828000", "175555.828000", "175555.828000", "175555.828000", "175655.765000", "175655.765000", "175655.765000", "175655.765000", "175655.765000", "175655.765000", "175655.765000", "175655.781000", "175655.781000", "175655.781000", "175655.781000", "175655.781000", "175655.781000", "175655.781000", "175655.796000", "175655.796000", "175655.796000", "175655.796000", "175655.796000", "175655.796000", "175655.812000", "175655.812000", "175655.812000", "175655.812000", "175655.812000", "175655.812000", "175655.812000", "175655.828000", "175655.828000", "175755.765000", "175755.765000", "175755.765000", "175755.765000", "175755.765000", "175755.765000", "175755.765000", "175755.781000", "175755.781000", "175755.781000", "175755.781000", "175755.781000", "175755.781000", "175755.781000", "175755.796000", "175755.796000", "175755.796000", "175755.796000", "175755.796000", "175755.796000", "175755.812000", "175755.812000", "175755.812000", "175755.812000", "175755.812000", "175755.812000", "175755.812000", "175755.828000", "175855.765000", "175855.765000", "175855.765000", "175855.765000", "175855.765000", "175855.765000", "175855.765000", "175855.781000", "175855.781000", "175855.781000", "175855.781000", "175855.781000", "175855.781000", "175855.781000", "175855.796000", "175855.796000", "175855.796000", "175855.796000", "175855.796000", "175855.796000", "175855.796000", "175855.812000", "175855.812000", "175855.812000", "175855.812000", "175855.828000", "175855.828000", "175855.828000", "175955.765000", "175955.765000", "175955.765000", "175955.765000", "175955.765000", "175955.765000", "175955.765000", "175955.781000", "175955.781000", "175955.781000", "175955.781000", "175955.781000", "175955.781000", "175955.781000", "175955.796000", "175955.796000", "175955.796000", "175955.796000", "175955.796000", "175955.796000", "175955.796000", "175955.812000", "175955.812000", "175955.812000", "175955.812000", "175955.812000", "175955.812000", "175955.828000", "180055.765000", "180055.765000", "180055.765000", "180055.765000", "180055.765000", "180055.765000", "180055.765000", "180055.781000", "180055.781000", "180055.781000", "180055.781000", "180055.781000", "180055.781000", "180055.796000", "180055.796000", "180055.796000", "180055.796000", "180055.796000", "180055.796000", "180055.796000", "180055.812000", "180055.812000", "180055.812000", "180055.812000", "180055.812000", "180055.812000", "180055.812000", "180055.828000", "180155.765000", "180155.765000", "180155.765000", "180155.765000", "180155.765000", "180155.796000", "180155.796000", "180155.812000", "180155.812000", "180155.812000", "180155.812000", "180155.812000", "180155.812000", "180155.812000", "180155.828000", "180155.828000", "180155.843000", "180155.843000", "180155.843000", "180155.843000", "180155.843000", "180155.843000", "180155.859000", "180155.859000", "180155.859000", "180155.859000", "180155.859000", "180155.875000", "180255.765000", "180255.765000", "180255.765000", "180255.765000", "180255.765000", "180255.765000", "180255.765000", "180255.781000", "180255.781000", "180255.781000", "180255.781000", "180255.781000", "180255.781000", "180255.781000", "180255.796000", "180255.796000", "180255.796000", "180255.796000", "180255.796000", "180255.796000", "180255.796000", "180255.812000", "180255.812000", "180255.812000", "180255.812000", "180255.812000", "180255.812000", "180255.812000", "180255.828000", "180355.765000", "180355.765000", "180355.765000", "180355.765000", "180355.765000", "180355.765000", "180355.765000", "180355.781000", "180355.781000", "180355.781000", "180355.781000", "180355.781000", "180355.781000", "180355.781000", "180355.796000", "180355.796000", "180355.796000", "180355.796000", "180355.796000", "180355.796000", "180355.812000", "180355.812000", "180355.812000", "180355.812000", "180355.812000", "180355.812000", "180355.812000", "180355.828000", "180455.765000", "180455.765000", "180455.765000", "180455.765000", "180455.765000", "180455.765000", "180455.765000", "180455.781000", "180455.781000", "180455.781000", "180455.781000", "180455.781000", "180455.781000", "180455.781000", "180455.796000", "180455.796000", "180455.796000", "180455.796000", "180455.812000", "180455.812000", "180455.812000", "180455.812000", "180455.812000", "180455.812000", "180455.812000", "180455.828000", "180455.828000", "180455.828000", "180555.765000", "180555.765000", "180555.765000", "180555.765000", "180555.765000", "180555.781000", "180555.781000", "180555.781000", "180555.781000", "180555.781000", "180555.781000", "180555.781000", "180555.796000", "180555.796000", "180555.796000", "180555.796000", "180555.812000", "180555.812000", "180555.812000", "180555.812000", "180555.812000", "180555.812000", "180555.812000", "180555.828000", "180555.828000", "180555.828000", "180555.828000", "180555.828000", "180655.765000", "180655.765000", "180655.765000", "180655.765000", "180655.765000", "180655.765000", "180655.765000", "180655.781000", "180655.781000", "180655.781000", "180655.781000", "180655.781000", "180655.781000", "180655.796000", "180655.796000", "180655.796000", "180655.796000", "180655.796000", "180655.796000", "180655.812000", "180655.812000", "180655.812000", "180655.812000", "180655.812000", "180655.812000", "180655.828000", "180655.828000", "180655.828000", "180755.765000", "180755.765000", "180755.765000", "180755.765000", "180755.765000", "180755.765000", "180755.781000", "180755.781000", "180755.781000", "180755.781000", "180755.781000", "180755.796000", "180755.796000", "180755.796000", "180755.796000", "180755.796000", "180755.796000", "180755.796000", "180755.812000", "180755.812000", "180755.812000", "180755.812000", "180755.812000", "180755.812000", "180755.812000", "180755.828000", "180755.828000", "180755.828000", "180755.828000", "180855.765000", "180855.765000", "180855.765000", "180855.765000", "180855.765000", "180855.765000", "180855.765000", "180855.781000", "180855.781000", "180855.781000", "180855.781000", "180855.781000", "180855.781000", "180855.781000", "180855.796000", "180855.796000", "180855.796000", "180855.796000", "180855.796000", "180855.796000", "180855.812000", "180855.812000", "180855.812000", "180855.812000", "180855.812000", "180855.812000", "180855.812000", "180855.828000", "180955.765000", "180955.765000", "180955.765000", "180955.765000", "180955.765000", "180955.765000", "180955.765000", "180955.781000", "180955.781000", "180955.781000", "180955.781000", "180955.781000", "180955.781000", "180955.781000", "180955.796000", "180955.796000", "180955.796000", "180955.796000", "180955.796000", "180955.796000", "180955.812000", "180955.812000", "180955.812000", "180955.812000", "180955.812000", "180955.812000", "180955.812000", "180955.828000", "181007.281000", "181007.281000", "181007.281000", "181007.281000", "181007.281000", "181007.296000"],
      "DataSetTrailingPadding": [
        "\u0000\u0000\u0000\u0000\u0000\u0000\u0000\u0000\u0000\u0000\u0000\u0000\u0000\u0000\u0000\u0000\u0000\u0000\u0000\u0000\u0000\u0000\u0000\u0000\u0000\u0000\u0000\u0000\u0000\u0000\u0000\u0000\u0000\u0000\u0000\u0000\u0000\u0000\u0000\u0000\u0000\u0000\u0000\u0000\u0000\u0000\u0000\u0000\u0000\u0000\u0000\u0000\u0000\u0000\u0000\u0000\u0000\u0000\u0000\u0000\u0000\u0000\u0000\u0000\u0000\u0000\u0000\u0000\u0000\u0000\u0000\u0000\u0000\u0000\u0000\u0000\u0000\u0000\u0000\u0000\u0000\u0000\u0000\u0000\u0000\u0000\u0000\u0000\u0000\u0000\u0000\u0000\u0000\u0000\u0000\u0000\u0000\u0000\u0000\u0000\u0000\u0000\u0000\u0000\u0000\u0000\u0000\u0000\u0000\u0000\u0000\u0000\u0000\u0000\u0000\u0000\u0000\u0000\u0000\u0000\u0000\u0000\u0000\u0000\u0000\u0000\u0000\u0000\u0000\u0000\u0000\u0000\u0000\u0000\u0000\u0000\u0000\u0000\u0000\u0000\u0000\u0000\u0000\u0000\u0000\u0000\u0000\u0000\u0000\u0000\u0000\u0000\u0000\u0000\u0000\u0000\u0000\u0000\u0000\u0000\u0000\u0000\u0000\u0000\u0000\u0000\u0000\u0000\u0000\u0000\u0000\u0000\u0000\u0000\u0000\u0000\u0000\u0000\u0000\u0000\u0000\u0000\u0000\u0000\u0000\u0000\u0000\u0000\u0000\u0000\u0000\u0000\u0000\u0000\u0000\u0000\u0000\u0000\u0000\u0000\u0000\u0000\u0000\u0000\u0000\u0000\u0000\u0000\u0000\u0000\u0000\u0000\u0000\u0000\u0000\u0000\u0000\u0000\u0000\u0000\u0000\u0000\u0000\u0000\u0000\u0000\u0000\u0000\u0000\u0000\u0000\u0000\u0000\u0000\u0000\u0000\u0000\u0000\u0000\u0000\u0000\u0000\u0000\u0000\u0000\u0000\u0000\u0000\u0000\u0000\u0000\u0000\u0000\u0000\u0000\u0000\u0000\u0000\u0000\u0000\u0000\u0000\u0000\u0000\u0000\u0000\u0000\u0000\u0000\u0000\u0000\u0000\u0000\u0000\u0000\u0000\u0000\u0000\u0000\u0000",
