{
  "AcquisitionMatrixPE": 104,
  "AcquisitionNumber": 1,
  "AcquisitionTime": "15:42:14.742500",
  "BandwidthPerPixelPhaseEncode": 13.935,
  "BaseResolution": 104,
  "CoilString": "C:HEA;HEP",
  "ConversionSoftware": "dcm2niix",
  "ConversionSoftwareVersion": "v1.0.20210317",
  "DerivedVendorReportedEchoSpacing": 0.000690017,
  "DeviceSerialNumber": "35450",
  "DwellTime": 2.5e-06,
  "EchoTime": 0.0348,
  "EffectiveEchoSpacing": 0.000690017,
  "FlipAngle": 55,
  "ImageComments": "Unaliased MB8/PE3",
  "ImageOrientationPatientDICOM": [1, 0, 0, 0, 0.988494, -0.151261],
  "ImageType": [
    "ORIGINAL",
    "PRIMARY",
    "M",
    "MB",
    "ND",
    "MOSAIC"
],
  "ImagingFrequency": 123.235,
  "InPlanePhaseEncodingDirectionDICOM": "COL",
  "InstitutionAddress": "Univeristy Ave. 197,Newark,North East,US,07102-1814",
  "InstitutionName": "RUBIC",
  "InstitutionalDepartmentName": "Department",
  "MRAcquisitionType": "2D",
  "MagneticFieldStrength": 3,
  "Manufacturer": "Siemens",
  "ManufacturersModelName": "TrioTim",
  "Modality": "MR",
  "MultibandAccelerationFactor": 8,
  "PartialFourier": 0.875,
  "PatientPosition": "HFS",
  "PercentPhaseFOV": 100,
  "PercentSampling": 100,
  "PhaseEncodingDirection": "j-",
  "PhaseEncodingSteps": 91,
  "PhaseResolution": 1,
  "PixelBandwidth": 1923,
  "ProcedureStepDescription": "Cole^Michael",
  "ProtocolName": "cmrr_mbep2d_bold_2mm_MB8_Task_8x",
  "PulseSequenceDetails": "%CustomerSeq%\\cmrr_mbep2d_bold",
  "ReceiveCoilName": "32Ch_Head",
  "ReconMatrixPE": 104,
  "RepetitionTime": 0.785,
  "SAR": 0.13775,
  "ScanOptions": "PFP\\FS",
  "ScanningSequence": "EP",
  "SequenceName": "epfid2d1_104",
  "SequenceVariant": "SK\\SS",
  "SeriesDescription": "cmrr_mbep2d_bold_2mm_MB8_Task_8x",
  "SeriesNumber": 15,
  "ShimSetting": [2109, -453, -7245, 237, 132, -465, 97, -67],
  "SliceThickness": 2,
  "SliceTiming": [0, 0.4375, 0.0875, 0.525, 0.175, 0.6125, 0.2625, 0.7, 0.35, 0, 0.4375, 0.0875, 0.525, 0.175, 0.6125, 0.2625, 0.7, 0.35, 0, 0.4375, 0.0875, 0.525, 0.175, 0.6125, 0.2625, 0.7, 0.35, 0, 0.4375, 0.0875, 0.525, 0.175, 0.6125, 0.2625, 0.7, 0.35, 0, 0.4375, 0.0875, 0.525, 0.175, 0.6125, 0.2625, 0.7, 0.35, 0, 0.4375, 0.0875, 0.525, 0.175, 0.6125, 0.2625, 0.7, 0.35, 0, 0.4375, 0.0875, 0.525, 0.175, 0.6125, 0.2625, 0.7, 0.35, 0, 0.4375, 0.0875, 0.525, 0.175, 0.6125, 0.2625, 0.7, 0.35],
  "SoftwareVersions": "syngo MR B19",
  "SpacingBetweenSlices": 2,
  "StationName": "MRC35450",
  "TaskName": "cpro",
  "TotalReadoutTime": 0.0710717,
  "TxRefAmp": 318.521,
  "dcmmeta_affine": [
    [-2.0, 0.0, 0.0, 103.32203674316406],
    [0.0, 1.9769877195358276, -0.30252164602279663, -70.42584228515625],
    [0.0, 0.30252164602279663, 1.9769878387451172, -105.27268981933594],
    [0.0, 0.0, 0.0, 1.0]
],
  "dcmmeta_reorient_transform": [
    [0.0, -1.0, 0.0, 103.0],
    [1.0, 0.0, 0.0, 0.0],
    [0.0, 0.0, 1.0, 0.0],
    [0.0, 0.0, 0.0, 1.0]
],
  "dcmmeta_shape": [104, 104, 72, 581],
  "dcmmeta_slice_dim": 2,
  "dcmmeta_version": 0.6,
  "global": {
    "const": {
      "AcquisitionMatrix": [104, 0, 0, 104],
      "AngioFlag": "N",
      "BitsAllocated": 16,
      "BitsStored": 12,
      "Columns": 936,
      "EchoNumbers": 1,
      "EchoTime": 34.8,
      "EchoTrainLength": 1,
      "FlipAngle": 55.0,
      "HighBit": 11,
      "ImageOrientationPatient": [1.0, 0.0, 0.0, 0.0, 0.98849388683562, -0.1512608200712],
      "ImagePositionPatient": [-935.32203388214, -955.63081366164, 51.736041893284],
      "ImageType": [
        "ORIGINAL",
        "PRIMARY",
        "M",
        "MB",
        "ND",
        "MOSAIC"
],
      "ImagedNucleus": "1H",
      "ImagingFrequency": 123.234627,
      "InPlanePhaseEncodingDirection": "COL",
      "MRAcquisitionType": "2D",
      "MagneticFieldStrength": 3.0,
      "Manufacturer": "SIEMENS",
      "ManufacturerModelName": "TrioTim",
      "Modality": "MR",
      "NumberOfAverages": 1.0,
      "NumberOfPhaseEncodingSteps": 91,
      "PercentPhaseFieldOfView": 100.0,
      "PercentSampling": 100.0,
      "PerformedProcedureStepStartTime": "142132.750000",
      "PhotometricInterpretation": "MONOCHROME2",
      "PixelBandwidth": 1923.0,
      "PixelRepresentation": 0,
      "PixelSpacing": [2.0, 2.0],
      "ProtocolName": "cmrr_mbep2d_bold_2mm_MB8_Task_8x",
      "RepetitionTime": 785.0,
      "Rows": 936,
      "SAR": 0.13774956097681,
      "SamplesPerPixel": 1,
      "ScanOptions": [
        "PFP",
        "FS"
],
      "ScanningSequence": "EP",
      "SequenceName": "epfid2d1_104",
      "SequenceVariant": [
        "SK",
        "SS"
],
      "SeriesDescription": "cmrr_mbep2d_bold_2mm_MB8_Task_8x",
      "SeriesNumber": 15,
      "SeriesTime": "162545.953000",
      "SliceLocation": -93.408739419185,
      "SliceThickness": 2.0,
      "SmallestImagePixelValue": 0,
      "SoftwareVersions": "syngo MR B19",
      "SpacingBetweenSlices": 2.0000000375168,
      "SpecificCharacterSet": "ISO_IR 100",
      "StudyID": "1",
      "StudyTime": "142132.703000",
      "TransmitCoilName": "Body",
      "VariableFlipAngleFlag": "N",
      "WindowCenterWidthExplanation": "Algo1",
      "dBdt": 0.0},
    "slices": {}
  },
  "time": {
    "samples": {
      "AcquisitionNumber": [1, 2, 3, 4, 5, 6, 7, 8, 9, 10, 11, 12, 13, 14, 15, 16, 17, 18, 19, 20, 21, 22, 23, 24, 25, 26, 27, 28, 29, 30, 31, 32, 33, 34, 35, 36, 37, 38, 39, 40, 41, 42, 43, 44, 45, 46, 47, 48, 49, 50, 51, 52, 53, 54, 55, 56, 57, 58, 59, 60, 61, 62, 63, 64, 65, 66, 67, 68, 69, 70, 71, 72, 73, 74, 75, 76, 77, 78, 79, 80, 81, 82, 83, 84, 85, 86, 87, 88, 89, 90, 91, 92, 93, 94, 95, 96, 97, 98, 99, 100, 101, 102, 103, 104, 105, 106, 107, 108, 109, 110, 111, 112, 113, 114, 115, 116, 117, 118, 119, 120, 121, 122, 123, 124, 125, 126, 127, 128, 129, 130, 131, 132, 133, 134, 135, 136, 137, 138, 139, 140, 141, 142, 143, 144, 145, 146, 147, 148, 149, 150, 151, 152, 153, 154, 155, 156, 157, 158, 159, 160, 161, 162, 163, 164, 165, 166, 167, 168, 169, 170, 171, 172, 173, 174, 175, 176, 177, 178, 179, 180, 181, 182, 183, 184, 185, 186, 187, 188, 189, 190, 191, 192, 193, 194, 195, 196, 197, 198, 199, 200, 201, 202, 203, 204, 205, 206, 207, 208, 209, 210, 211, 212, 213, 214, 215, 216, 217, 218, 219, 220, 221, 222, 223, 224, 225, 226, 227, 228, 229, 230, 231, 232, 233, 234, 235, 236, 237, 238, 239, 240, 241, 242, 243, 244, 245, 246, 247, 248, 249, 250, 251, 252, 253, 254, 255, 256, 257, 258, 259, 260, 261, 262, 263, 264, 265, 266, 267, 268, 269, 270, 271, 272, 273, 274, 275, 276, 277, 278, 279, 280, 281, 282, 283, 284, 285, 286, 287, 288, 289, 290, 291, 292, 293, 294, 295, 296, 297, 298, 299, 300, 301, 302, 303, 304, 305, 306, 307, 308, 309, 310, 311, 312, 313, 314, 315, 316, 317, 318, 319, 320, 321, 322, 323, 324, 325, 326, 327, 328, 329, 330, 331, 332, 333, 334, 335, 336, 337, 338, 339, 340, 341, 342, 343, 344, 345, 346, 347, 348, 349, 350, 351, 352, 353, 354, 355, 356, 357, 358, 359, 360, 361, 362, 363, 364, 365, 366, 367, 368, 369, 370, 371, 372, 373, 374, 375, 376, 377, 378, 379, 380, 381, 382, 383, 384, 385, 386, 387, 388, 389, 390, 391, 392, 393, 394, 395, 396, 397, 398, 399, 400, 401, 402, 403, 404, 405, 406, 407, 408, 409, 410, 411, 412, 413, 414, 415, 416, 417, 418, 419, 420, 421, 422, 423, 424, 425, 426, 427, 428, 429, 430, 431, 432, 433, 434, 435, 436, 437, 438, 439, 440, 441, 442, 443, 444, 445, 446, 447, 448, 449, 450, 451, 452, 453, 454, 455, 456, 457, 458, 459, 460, 461, 462, 463, 464, 465, 466, 467, 468, 469, 470, 471, 472, 473, 474, 475, 476, 477, 478, 479, 480, 481, 482, 483, 484, 485, 486, 487, 488, 489, 490, 491, 492, 493, 494, 495, 496, 497, 498, 499, 500, 501, 502, 503, 504, 505, 506, 507, 508, 509, 510, 511, 512, 513, 514, 515, 516, 517, 518, 519, 520, 521, 522, 523, 524, 525, 526, 527, 528, 529, 530, 531, 532, 533, 534, 535, 536, 537, 538, 539, 540, 541, 542, 543, 544, 545, 546, 547, 548, 549, 550, 551, 552, 553, 554, 555, 556, 557, 558, 559, 560, 561, 562, 563, 564, 565, 566, 567, 568, 569, 570, 571, 572, 573, 574, 575, 576, 577, 578, 579, 580, 581],
      "AcquisitionTime": ["154214.742500", "154215.530000", "154216.317500", "154217.107500", "154217.895000", "154218.682500", "154219.470000", "154220.260000", "154221.047500", "154221.835000", "154222.622500", "154223.412500", "154224.200000", "154224.987500", "154225.775000", "154226.565000", "154227.352500", "154228.140000", "154228.927500", "154229.717500", "154230.505000", "154231.292500", "154232.082500", "154232.870000", "154233.657500", "154234.445000", "154235.235000", "154236.022500", "154236.810000", "154237.597500", "154238.387500", "154239.175000", "154239.962500", "154240.750000", "154241.540000", "154242.327500", "154243.115000", "154243.902500", "154244.692500", "154245.480000", "154246.267500", "154247.055000", "154247.845000", "154248.632500", "154249.420000", "154250.210000", "154250.997500", "154251.785000", "154252.572500", "154253.362500", "154254.150000", "154254.937500", "154255.725000", "154256.515000", "154257.302500", "154258.090000", "154258.877500", "154259.667500", "154300.455000", "154301.242500", "154302.030000", "154302.820000", "154303.607500", "154304.395000", "154305.182500", "154305.972500", "154306.760000", "154307.547500", "154308.337500", "154309.125000", "154309.912500", "154310.700000", "154311.490000", "154312.277500", "154313.065000", "154313.852500", "154314.642500", "154315.430000", "154316.217500", "154317.005000", "154317.795000", "154318.582500", "154319.370000", "154320.157500", "154320.947500", "154321.735000", "154322.522500", "154323.310000", "154324.100000", "154324.887500", "154325.675000", "154326.465000", "154327.252500", "154328.040000", "154328.827500", "154329.617500", "154330.405000", "154331.192500", "154331.980000", "154332.770000", "154333.557500", "154334.345000", "154335.132500", "154335.922500", "154336.710000", "154337.497500", "154338.285000", "154339.075000", "154339.862500", "154340.650000", "154341.440000", "154342.227500", "154343.015000", "154343.802500", "154344.592500", "154345.380000", "154346.167500", "154346.955000", "154347.745000", "154348.532500", "154349.320000", "154350.107500", "154350.897500", "154351.685000", "154352.472500", "154353.260000", "154354.050000", "154354.837500", "154355.625000", "154356.412500", "154357.202500", "154357.990000", "154358.777500", "154359.567500", "154400.355000", "154401.142500", "154401.930000", "154402.720000", "154403.507500", "154404.295000", "154405.082500", "154405.872500", "154406.660000", "154407.447500", "154408.235000", "154409.025000", "154409.812500", "154410.600000", "154411.387500", "154412.177500", "154412.965000", "154413.752500", "154414.540000", "154415.330000", "154416.117500", "154416.905000", "154417.695000", "154418.482500", "154419.270000", "154420.057500", "154420.847500", "154421.635000", "154422.422500", "154423.210000", "154424.000000", "154424.787500", "154425.575000", "154426.362500", "154427.152500", "154427.940000", "154428.727500", "154429.515000", "154430.305000", "154431.092500", "154431.880000", "154432.667500", "154433.457500", "154434.245000", "154435.032500", "154435.822500", "154436.610000", "154437.397500", "154438.185000", "154438.975000", "154439.762500", "154440.550000", "154441.337500", "154442.127500", "154442.915000", "154443.702500", "154444.490000", "154445.280000", "154446.067500", "154446.855000", "154447.642500", "154448.432500", "154449.220000", "154450.007500", "154450.795000", "154451.585000", "154452.372500", "154453.160000", "154453.950000", "154454.737500", "154455.525000", "154456.312500", "154457.102500", "154457.890000", "154458.677500", "154459.465000", "154500.255000", "154501.042500", "154501.830000", "154502.617500", "154503.407500", "154504.195000", "154504.982500", "154505.770000", "154506.560000", "154507.347500", "154508.135000", "154508.922500", "154509.712500", "154510.500000", "154511.287500", "154512.077500", "154512.865000", "154513.652500", "154514.440000", "154515.230000", "154516.017500", "154516.805000", "154517.592500", "154518.382500", "154519.170000", "154519.957500", "154520.745000", "154521.535000", "154522.322500", "154523.110000", "154523.897500", "154524.687500", "154525.475000", "154526.262500", "154527.050000", "154527.840000", "154528.627500", "154529.415000", "154530.205000", "154530.992500", "154531.780000", "154532.567500", "154533.357500", "154534.145000", "154534.932500", "154535.720000", "154536.510000", "154537.297500", "154538.085000", "154538.872500", "154539.662500", "154540.450000", "154541.237500", "154542.025000", "154542.815000", "154543.602500", "154544.390000", "154545.177500", "154545.967500", "154546.755000", "154547.542500", "154548.332500", "154549.120000", "154549.907500", "154550.695000", "154551.485000", "154552.272500", "154553.060000", "154553.847500", "154554.637500", "154555.425000", "154556.212500", "154557.000000", "154557.790000", "154558.577500", "154559.365000", "154600.152500", "154600.942500", "154601.730000", "154602.517500", "154603.305000", "154604.095000", "154604.882500", "154605.670000", "154606.460000", "154607.247500", "154608.035000", "154608.822500", "154609.612500", "154610.400000", "154611.187500", "154611.975000", "154612.765000", "154613.552500", "154614.340000", "154615.127500", "154615.917500", "154616.705000", "154617.492500", "154618.280000", "154619.070000", "154619.857500", "154620.645000", "154621.432500", "154622.222500", "154623.010000", "154623.797500", "154624.587500", "154625.375000", "154626.162500", "154626.950000", "154627.740000", "154628.527500", "154629.315000", "154630.102500", "154630.892500", "154631.680000", "154632.467500", "154633.255000", "154634.045000", "154634.832500", "154635.620000", "154636.407500", "154637.197500", "154637.985000", "154638.772500", "154639.560000", "154640.350000", "154641.137500", "154641.925000", "154642.715000", "154643.502500", "154644.290000", "154645.077500", "154645.867500", "154646.655000", "154647.442500", "154648.230000", "154649.020000", "154649.807500", "154650.595000", "154651.382500", "154652.172500", "154652.960000", "154653.747500", "154654.535000", "154655.325000", "154656.112500", "154656.900000", "154657.690000", "154658.477500", "154659.265000", "154700.052500", "154700.842500", "154701.630000", "154702.417500", "154703.205000", "154703.995000", "154704.782500", "154705.570000", "154706.357500", "154707.147500", "154707.935000", "154708.722500", "154709.510000", "154710.300000", "154711.087500", "154711.875000", "154712.662500", "154713.452500", "154714.240000", "154715.027500", "154715.817500", "154716.605000", "154717.392500", "154718.180000", "154718.970000", "154719.757500", "154720.545000", "154721.332500", "154722.122500", "154722.910000", "154723.697500", "154724.485000", "154725.275000", "154726.062500", "154726.850000", "154727.637500", "154728.427500", "154729.215000", "154730.002500", "154730.790000", "154731.580000", "154732.367500", "154733.155000", "154733.945000", "154734.732500", "154735.520000", "154736.307500", "154737.097500", "154737.885000", "154738.672500", "154739.460000", "154740.250000", "154741.037500", "154741.825000", "154742.612500", "154743.402500", "154744.190000", "154744.977500", "154745.765000", "154746.555000", "154747.342500", "154748.130000", "154748.917500", "154749.707500", "154750.495000", "154751.282500", "154752.072500", "154752.860000", "154753.647500", "154754.435000", "154755.225000", "154756.012500", "154756.800000", "154757.587500", "154758.377500", "154759.165000", "154759.952500", "154800.740000", "154801.530000", "154802.317500", "154803.105000", "154803.892500", "154804.682500", "154805.470000", "154806.257500", "154807.045000", "154807.835000", "154808.622500", "154809.410000", "154810.200000", "154810.987500", "154811.775000", "154812.562500", "154813.352500", "154814.140000", "154814.927500", "154815.715000", "154816.505000", "154817.292500", "154818.080000", "154818.867500", "154819.657500", "154820.445000", "154821.232500", "154822.020000", "154822.810000", "154823.597500", "154824.385000", "154825.172500", "154825.962500", "154826.750000", "154827.537500", "154828.327500", "154829.115000", "154829.902500", "154830.690000", "154831.480000", "154832.267500", "154833.055000", "154833.842500", "154834.632500", "154835.420000", "154836.207500", "154836.995000", "154837.785000", "154838.572500", "154839.360000", "154840.147500", "154840.937500", "154841.725000", "154842.512500", "154843.300000", "154844.090000", "154844.877500", "154845.665000", "154846.455000", "154847.242500", "154848.030000", "154848.817500", "154849.607500", "154850.395000", "154851.182500", "154851.970000", "154852.760000", "154853.547500", "154854.335000", "154855.122500", "154855.912500", "154856.700000", "154857.487500", "154858.275000", "154859.065000", "154859.852500", "154900.640000", "154901.427500", "154902.217500", "154903.005000", "154903.792500", "154904.582500", "154905.370000", "154906.157500", "154906.945000", "154907.735000", "154908.522500", "154909.310000", "154910.097500", "154910.887500", "154911.675000", "154912.462500", "154913.250000", "154914.040000", "154914.827500", "154915.615000", "154916.402500", "154917.192500", "154917.980000", "154918.767500", "154919.555000", "154920.345000", "154921.132500", "154921.920000", "154922.710000", "154923.497500", "154924.285000", "154925.072500", "154925.862500", "154926.650000", "154927.437500", "154928.225000", "154929.015000", "154929.802500", "154930.590000", "154931.377500", "154932.167500", "154932.955000", "154933.742500", "154934.530000", "154935.320000", "154936.107500", "154936.895000", "154937.682500", "154938.472500", "154939.260000", "154940.047500", "154940.837500", "154941.625000", "154942.412500", "154943.200000", "154943.990000", "154944.777500", "154945.565000", "154946.352500", "154947.142500", "154947.930000", "154948.717500", "154949.505000", "154950.295000", "154951.082500", "154951.870000"],
      "ContentTime": ["162545.968000", "162545.968000", "162545.968000", "162645.937000", "162645.937000", "162645.937000", "162645.937000", "162645.937000", "162645.953000", "162645.953000", "162645.953000", "162645.953000", "162645.953000", "162645.953000", "162645.953000", "162645.968000", "162645.968000", "162645.968000", "162645.968000", "162645.968000", "162645.968000", "162645.984000", "162645.984000", "162645.984000", "162645.984000", "162645.984000", "162645.984000", "162645.984000", "162646.000000", "162646.000000", "162646.000000", "162745.937000", "162745.953000", "162745.953000", "162745.953000", "162745.953000", "162745.953000", "162745.968000", "162745.968000", "162745.968000", "162745.968000", "162745.968000", "162745.968000", "162745.968000", "162745.984000", "162745.984000", "162745.984000", "162745.984000", "162745.984000", "162745.984000", "162745.984000", "162746.000000", "162746.000000", "162746.000000", "162746.000000", "162746.000000", "162746.000000", "162746.000000", "162845.937000", "162845.937000", "162845.953000", "162845.953000", "162845.953000", "162845.953000", "162845.953000", "162845.953000", "162845.968000", "162845.968000", "162845.968000", "162845.968000", "162845.968000", "162845.968000", "162845.968000", "162845.968000", "162845.984000", "162845.984000", "162845.984000", "162845.984000", "162845.984000", "162845.984000", "162845.984000", "162846.000000", "162846.000000", "162846.000000", "162846.000000", "162846.000000", "162945.937000", "162945.937000", "162945.937000", "162945.937000", "162945.937000", "162945.953000", "162945.953000", "162945.953000", "162945.953000", "162945.953000", "162945.953000", "162945.953000", "162945.968000", "162945.968000", "162945.968000", "162945.968000", "162945.968000", "162945.968000", "162945.968000", "162945.984000", "162945.984000", "162945.984000", "162945.984000", "162945.984000", "162945.984000", "162945.984000", "162946.000000", "163045.937000", "163045.937000", "163045.953000", "163045.953000", "163045.953000", "163045.953000", "163045.953000", "163045.953000", "163045.953000", "163045.968000", "163045.968000", "163045.968000", "163045.968000", "163045.968000", "163045.968000", "163045.968000", "163045.984000", "163045.984000", "163045.984000", "163045.984000", "163045.984000", "163046.000000", "163046.000000", "163046.000000", "163046.000000", "163046.000000", "163046.000000", "163046.015000", "163145.937000", "163145.937000", "163145.953000", "163145.953000", "163145.953000", "163145.953000", "163145.968000", "163145.968000", "163145.968000", "163145.968000", "163145.968000", "163145.968000", "163145.984000", "163145.984000", "163145.984000", "163145.984000", "163145.984000", "163145.984000", "163146.000000", "163146.000000", "163146.000000", "163146.000000", "163146.000000", "163146.000000", "163146.000000", "163146.015000", "163146.015000", "163225.937000", "163225.937000", "163225.937000", "163225.937000", "163225.937000", "163225.953000", "163225.953000", "163225.953000", "163225.953000", "163225.953000", "163225.953000", "163225.953000", "163225.968000", "163225.968000", "163225.968000", "163225.968000", "163225.968000", "163225.968000", "163325.937000", "163325.937000", "163325.937000", "163325.953000", "163325.953000", "163325.953000", "163325.953000", "163325.953000", "163325.953000", "163325.953000", "163325.953000", "163325.968000", "163325.968000", "163325.968000", "163325.968000", "163325.968000", "163325.968000", "163325.968000", "163325.984000", "163325.984000", "163325.984000", "163325.984000", "163325.984000", "163325.984000", "163325.984000", "163326.000000", "163326.000000", "163326.000000", "163425.937000", "163425.937000", "163425.937000", "163425.937000", "163425.937000", "163425.953000", "163425.953000", "163425.953000", "163425.953000", "163425.953000", "163425.953000", "163425.953000", "163425.968000", "163425.968000", "163425.968000", "163425.968000", "163425.968000", "163425.968000", "163425.968000", "163425.984000", "163425.984000", "163425.984000", "163425.984000", "163425.984000", "163425.984000", "163425.984000", "163426.000000", "163525.937000", "163525.937000", "163525.937000", "163525.937000", "163525.953000", "163525.953000", "163525.953000", "163525.953000", "163525.953000", "163525.953000", "163525.953000", "163525.968000", "163525.968000", "163525.968000", "163525.968000", "163525.968000", "163525.968000", "163525.968000", "163525.984000", "163525.984000", "163525.984000", "163525.984000", "163525.984000", "163525.984000", "163525.984000", "163526.000000", "163526.000000", "163526.000000", "163625.937000", "163625.937000", "163625.937000", "163625.953000", "163625.953000", "163625.953000", "163625.953000", "163625.953000", "163625.953000", "163625.953000", "163625.968000", "163625.968000", "163625.968000", "163625.968000", "163625.968000", "163625.968000", "163625.984000", "163625.984000", "163625.984000", "163625.984000", "163625.984000", "163625.984000", "163625.984000", "163626.000000", "163626.000000", "163626.000000", "163626.000000", "163725.937000", "163725.937000", "163725.937000", "163725.937000", "163725.953000", "163725.953000", "163725.953000", "163725.953000", "163725.953000", "163725.968000", "163725.968000", "163725.968000", "163725.968000", "163725.968000", "163725.968000", "163725.968000", "163725.984000", "163725.984000", "163725.984000", "163725.984000", "163725.984000", "163725.984000", "163726.000000", "163726.000000", "163726.000000", "163726.000000", "163726.000000", "163825.937000", "163825.937000", "163825.937000", "163825.937000", "163825.937000", "163825.953000", "163825.953000", "163825.953000", "163825.953000", "163825.953000", "163825.953000", "163825.953000", "163825.968000", "163825.968000", "163825.968000", "163825.968000", "163825.968000", "163825.968000", "163825.984000", "163825.984000", "163825.984000", "163825.984000", "163825.984000", "163825.984000", "163825.984000", "163826.000000", "163826.000000", "163826.000000", "163925.937000", "163925.937000", "163925.937000", "163925.953000", "163925.953000", "163925.953000", "163925.953000", "163925.953000", "163925.953000", "163925.953000", "163925.968000", "163925.968000", "163925.968000", "163925.968000", "163925.968000", "163925.968000", "163925.968000", "163925.984000", "163925.984000", "163925.984000", "163925.984000", "163925.984000", "163925.984000", "163925.984000", "163926.000000", "163926.000000", "163926.000000", "163926.000000", "164025.937000", "164025.937000", "164025.937000", "164025.953000", "164025.953000", "164025.953000", "164025.953000", "164025.953000", "164025.953000", "164025.953000", "164025.968000", "164025.968000", "164025.968000", "164025.968000", "164025.968000", "164025.968000", "164025.968000", "164025.984000", "164025.984000", "164025.984000", "164025.984000", "164025.984000", "164025.984000", "164026.000000", "164026.000000", "164026.000000", "164026.000000", "164026.000000", "164125.937000", "164125.937000", "164125.937000", "164125.953000", "164125.953000", "164125.953000", "164125.953000", "164125.953000", "164125.968000", "164125.968000", "164125.968000", "164125.968000", "164125.968000", "164125.968000", "164125.968000", "164125.984000", "164125.984000", "164125.984000", "164125.984000", "164125.984000", "164125.984000", "164126.000000", "164126.000000", "164126.000000", "164126.000000", "164126.000000", "164126.000000", "164225.937000", "164225.937000", "164225.937000", "164225.953000", "164225.953000", "164225.953000", "164225.953000", "164225.953000", "164225.953000", "164225.953000", "164225.968000", "164225.968000", "164225.968000", "164225.968000", "164225.968000", "164225.968000", "164225.968000", "164225.984000", "164225.984000", "164225.984000", "164225.984000", "164225.984000", "164225.984000", "164225.984000", "164226.000000", "164226.000000", "164226.000000", "164226.000000", "164325.937000", "164325.937000", "164325.937000", "164325.953000", "164325.953000", "164325.953000", "164325.953000", "164325.953000", "164325.953000", "164325.953000", "164325.968000", "164325.968000", "164325.968000", "164325.968000", "164325.968000", "164325.968000", "164325.968000", "164325.984000", "164325.984000", "164325.984000", "164325.984000", "164325.984000", "164325.984000", "164325.984000", "164326.000000", "164326.000000", "164326.000000", "164326.000000", "164425.953000", "164425.953000", "164425.953000", "164425.953000", "164425.953000", "164425.953000", "164425.953000", "164425.968000", "164425.968000", "164425.968000", "164425.968000", "164425.968000", "164425.968000", "164425.968000", "164425.984000", "164425.984000", "164425.984000", "164425.984000", "164425.984000", "164425.984000", "164425.984000", "164426.000000", "164426.000000", "164426.000000", "164426.000000", "164426.000000", "164426.000000", "164426.000000", "164525.953000", "164525.953000", "164525.953000", "164525.953000", "164525.953000", "164525.953000", "164525.953000", "164525.968000", "164525.968000", "164525.968000", "164525.968000", "164525.968000", "164525.968000", "164525.968000", "164525.984000", "164525.984000", "164525.984000", "164525.984000", "164525.984000", "164525.984000", "164525.984000", "164526.000000", "164526.000000", "164526.000000", "164526.000000", "164526.000000", "164526.000000", "164526.015000", "164625.953000", "164625.953000", "164625.953000", "164625.953000", "164625.953000", "164625.953000", "164625.953000", "164625.968000", "164625.968000", "164625.968000", "164625.968000", "164625.968000", "164625.968000", "164625.968000", "164625.984000", "164625.984000", "164625.984000", "164625.984000", "164625.984000", "164625.984000", "164625.984000", "164626.000000", "164626.000000", "164626.000000", "164626.000000", "164626.000000", "164626.000000", "164641.078000", "164641.078000", "164641.078000", "164641.078000", "164641.093000", "164641.093000", "164641.093000", "164641.093000"],
      "DataSetTrailingPadding": [
        "\u0000\u0000\u0000\u0000\u0000\u0000\u0000\u0000\u0000\u0000\u0000\u0000\u0000\u0000\u0000\u0000\u0000\u0000\u0000\u0000\u0000\u0000\u0000\u0000\u0000\u0000\u0000\u0000\u0000\u0000\u0000\u0000\u0000\u0000\u0000\u0000\u0000\u0000\u0000\u0000\u0000\u0000\u0000\u0000\u0000\u0000\u0000\u0000\u0000\u0000\u0000\u0000\u0000\u0000\u0000\u0000\u0000\u0000\u0000\u0000\u0000\u0000\u0000\u0000\u0000\u0000\u0000\u0000\u0000\u0000\u0000\u0000\u0000\u0000\u0000\u0000\u0000\u0000\u0000\u0000\u0000\u0000\u0000\u0000\u0000\u0000\u0000\u0000\u0000\u0000\u0000\u0000\u0000\u0000\u0000\u0000\u0000\u0000\u0000\u0000\u0000\u0000\u0000\u0000\u0000\u0000\u0000\u0000\u0000\u0000\u0000\u0000\u0000\u0000\u0000\u0000\u0000\u0000\u0000\u0000\u0000\u0000\u0000\u0000\u0000\u0000\u0000\u0000\u0000\u0000\u0000\u0000\u0000\u0000\u0000\u0000\u0000\u0000\u0000\u0000\u0000\u0000\u0000\u0000\u0000\u0000\u0000\u0000\u0000\u0000\u0000\u0000\u0000\u0000\u0000\u0000\u0000\u0000\u0000\u0000\u0000\u0000\u0000\u0000\u0000\u0000\u0000\u0000\u0000\u0000\u0000\u0000\u0000\u0000\u0000\u0000\u0000\u0000\u0000\u0000\u0000\u0000\u0000\u0000\u0000\u0000\u0000\u0000\u0000\u0000\u0000\u0000\u0000\u0000\u0000\u0000\u0000\u0000\u0000\u0000\u0000\u0000\u0000\u0000\u0000\u0000\u0000\u0000\u0000\u0000\u0000\u0000\u0000\u0000\u0000\u0000\u0000\u0000\u0000\u0000\u0000\u0000\u0000\u0000\u0000\u0000\u0000\u0000\u0000\u0000\u0000\u0000\u0000\u0000\u0000\u0000\u0000\u0000\u0000\u0000\u0000\u0000\u0000\u0000\u0000\u0000\u0000\u0000\u0000\u0000\u0000\u0000\u0000\u0000\u0000\u0000\u0000\u0000\u0000\u0000\u0000\u0000\u0000\u0000\u0000\u0000\u0000\u0000\u0000\u0000\u0000\u0000\u0000\u0000\u0000\u0000\u0000\u0000\u0000\u0000",
