{
  "AcquisitionMatrixPE": 104,
  "AcquisitionNumber": 1,
  "AcquisitionTime": "16:22:54.760000",
  "BandwidthPerPixelPhaseEncode": 13.935,
  "BaseResolution": 104,
  "CoilString": "C:HEA;HEP",
  "ConversionSoftware": "dcm2niix",
  "ConversionSoftwareVersion": "v1.0.20210317",
  "DerivedVendorReportedEchoSpacing": 0.000690017,
  "DeviceSerialNumber": "35450",
  "DwellTime": 2.5e-06,
  "EchoTime": 0.0348,
  "EffectiveEchoSpacing": 0.000690017,
  "FlipAngle": 55,
  "ImageComments": "Unaliased MB8/PE3",
  "ImageOrientationPatientDICOM": [1, 0, 0, 0, 0.988494, -0.151261],
  "ImageType": [
    "ORIGINAL",
    "PRIMARY",
    "M",
    "MB",
    "ND",
    "MOSAIC"
],
  "ImagingFrequency": 123.235,
  "InPlanePhaseEncodingDirectionDICOM": "COL",
  "InstitutionAddress": "Univeristy Ave. 197,Newark,North East,US,07102-1814",
  "InstitutionName": "RUBIC",
  "InstitutionalDepartmentName": "Department",
  "MRAcquisitionType": "2D",
  "MagneticFieldStrength": 3,
  "Manufacturer": "Siemens",
  "ManufacturersModelName": "TrioTim",
  "Modality": "MR",
  "MultibandAccelerationFactor": 8,
  "PartialFourier": 0.875,
  "PatientPosition": "HFS",
  "PercentPhaseFOV": 100,
  "PercentSampling": 100,
  "PhaseEncodingDirection": "j-",
  "PhaseEncodingSteps": 91,
  "PhaseResolution": 1,
  "PixelBandwidth": 1923,
  "ProcedureStepDescription": "Cole^Michael",
  "ProtocolName": "cmrr_mbep2d_bold_2mm_MB8_Task_8x",
  "PulseSequenceDetails": "%CustomerSeq%\\cmrr_mbep2d_bold",
  "ReceiveCoilName": "32Ch_Head",
  "ReconMatrixPE": 104,
  "RepetitionTime": 0.785,
  "SAR": 0.13775,
  "ScanOptions": "PFP\\FS",
  "ScanningSequence": "EP",
  "SequenceName": "epfid2d1_104",
  "SequenceVariant": "SK\\SS",
  "SeriesDescription": "cmrr_mbep2d_bold_2mm_MB8_Task_8x",
  "SeriesNumber": 25,
  "ShimSetting": [2109, -453, -7245, 237, 132, -465, 97, -67],
  "SliceThickness": 2,
  "SliceTiming": [0, 0.4375, 0.0875, 0.525, 0.175, 0.6125, 0.2625, 0.7, 0.35, 0, 0.4375, 0.0875, 0.525, 0.175, 0.6125, 0.2625, 0.7, 0.35, 0, 0.4375, 0.0875, 0.525, 0.175, 0.6125, 0.2625, 0.7, 0.35, 0, 0.4375, 0.0875, 0.525, 0.175, 0.6125, 0.2625, 0.7, 0.35, 0, 0.4375, 0.0875, 0.525, 0.175, 0.6125, 0.2625, 0.7, 0.35, 0, 0.4375, 0.0875, 0.525, 0.175, 0.6125, 0.2625, 0.7, 0.35, 0, 0.4375, 0.0875, 0.525, 0.175, 0.6125, 0.2625, 0.7, 0.35, 0, 0.4375, 0.0875, 0.525, 0.175, 0.6125, 0.2625, 0.7, 0.35],
  "SoftwareVersions": "syngo MR B19",
  "SpacingBetweenSlices": 2,
  "StationName": "MRC35450",
  "TaskName": "cpro",
  "TotalReadoutTime": 0.0710717,
  "TxRefAmp": 318.521,
  "dcmmeta_affine": [
    [-2.0, 0.0, 0.0, 103.32203674316406],
    [0.0, 1.9769877195358276, -0.30252164602279663, -70.42584228515625],
    [0.0, 0.30252164602279663, 1.9769878387451172, -105.27268981933594],
    [0.0, 0.0, 0.0, 1.0]
],
  "dcmmeta_reorient_transform": [
    [0.0, -1.0, 0.0, 103.0],
    [1.0, 0.0, 0.0, 0.0],
    [0.0, 0.0, 1.0, 0.0],
    [0.0, 0.0, 0.0, 1.0]
],
  "dcmmeta_shape": [104, 104, 72, 581],
  "dcmmeta_slice_dim": 2,
  "dcmmeta_version": 0.6,
  "global": {
    "const": {
      "AcquisitionMatrix": [104, 0, 0, 104],
      "AngioFlag": "N",
      "BitsAllocated": 16,
      "BitsStored": 12,
      "Columns": 936,
      "EchoNumbers": 1,
      "EchoTime": 34.8,
      "EchoTrainLength": 1,
      "FlipAngle": 55.0,
      "HighBit": 11,
      "ImageOrientationPatient": [1.0, 0.0, 0.0, 0.0, 0.98849388683562, -0.1512608200712],
      "ImagePositionPatient": [-935.32203388214, -955.63081366164, 51.736041893284],
      "ImageType": [
        "ORIGINAL",
        "PRIMARY",
        "M",
        "MB",
        "ND",
        "MOSAIC"
],
      "ImagedNucleus": "1H",
      "ImagingFrequency": 123.234627,
      "InPlanePhaseEncodingDirection": "COL",
      "MRAcquisitionType": "2D",
      "MagneticFieldStrength": 3.0,
      "Manufacturer": "SIEMENS",
      "ManufacturerModelName": "TrioTim",
      "Modality": "MR",
      "NumberOfAverages": 1.0,
      "NumberOfPhaseEncodingSteps": 91,
      "PercentPhaseFieldOfView": 100.0,
      "PercentSampling": 100.0,
      "PerformedProcedureStepStartTime": "142132.750000",
      "PhotometricInterpretation": "MONOCHROME2",
      "PixelBandwidth": 1923.0,
      "PixelRepresentation": 0,
      "PixelSpacing": [2.0, 2.0],
      "ProtocolName": "cmrr_mbep2d_bold_2mm_MB8_Task_8x",
      "RepetitionTime": 785.0,
      "Rows": 936,
      "SAR": 0.13774956097681,
      "SamplesPerPixel": 1,
      "ScanOptions": [
        "PFP",
        "FS"
],
      "ScanningSequence": "EP",
      "SequenceName": "epfid2d1_104",
      "SequenceVariant": [
        "SK",
        "SS"
],
      "SeriesDescription": "cmrr_mbep2d_bold_2mm_MB8_Task_8x",
      "SeriesNumber": 25,
      "SeriesTime": "181106.140000",
      "SliceLocation": -93.408739419185,
      "SliceThickness": 2.0,
      "SmallestImagePixelValue": 0,
      "SoftwareVersions": "syngo MR B19",
      "SpacingBetweenSlices": 2.0000000375168,
      "SpecificCharacterSet": "ISO_IR 100",
      "StudyID": "1",
      "StudyTime": "142132.703000",
      "TransmitCoilName": "Body",
      "VariableFlipAngleFlag": "N",
      "WindowCenterWidthExplanation": "Algo1",
      "dBdt": 0.0},
    "slices": {}
  },
  "time": {
    "samples": {
      "AcquisitionNumber": [1, 2, 3, 4, 5, 6, 7, 8, 9, 10, 11, 12, 13, 14, 15, 16, 17, 18, 19, 20, 21, 22, 23, 24, 25, 26, 27, 28, 29, 30, 31, 32, 33, 34, 35, 36, 37, 38, 39, 40, 41, 42, 43, 44, 45, 46, 47, 48, 49, 50, 51, 52, 53, 54, 55, 56, 57, 58, 59, 60, 61, 62, 63, 64, 65, 66, 67, 68, 69, 70, 71, 72, 73, 74, 75, 76, 77, 78, 79, 80, 81, 82, 83, 84, 85, 86, 87, 88, 89, 90, 91, 92, 93, 94, 95, 96, 97, 98, 99, 100, 101, 102, 103, 104, 105, 106, 107, 108, 109, 110, 111, 112, 113, 114, 115, 116, 117, 118, 119, 120, 121, 122, 123, 124, 125, 126, 127, 128, 129, 130, 131, 132, 133, 134, 135, 136, 137, 138, 139, 140, 141, 142, 143, 144, 145, 146, 147, 148, 149, 150, 151, 152, 153, 154, 155, 156, 157, 158, 159, 160, 161, 162, 163, 164, 165, 166, 167, 168, 169, 170, 171, 172, 173, 174, 175, 176, 177, 178, 179, 180, 181, 182, 183, 184, 185, 186, 187, 188, 189, 190, 191, 192, 193, 194, 195, 196, 197, 198, 199, 200, 201, 202, 203, 204, 205, 206, 207, 208, 209, 210, 211, 212, 213, 214, 215, 216, 217, 218, 219, 220, 221, 222, 223, 224, 225, 226, 227, 228, 229, 230, 231, 232, 233, 234, 235, 236, 237, 238, 239, 240, 241, 242, 243, 244, 245, 246, 247, 248, 249, 250, 251, 252, 253, 254, 255, 256, 257, 258, 259, 260, 261, 262, 263, 264, 265, 266, 267, 268, 269, 270, 271, 272, 273, 274, 275, 276, 277, 278, 279, 280, 281, 282, 283, 284, 285, 286, 287, 288, 289, 290, 291, 292, 293, 294, 295, 296, 297, 298, 299, 300, 301, 302, 303, 304, 305, 306, 307, 308, 309, 310, 311, 312, 313, 314, 315, 316, 317, 318, 319, 320, 321, 322, 323, 324, 325, 326, 327, 328, 329, 330, 331, 332, 333, 334, 335, 336, 337, 338, 339, 340, 341, 342, 343, 344, 345, 346, 347, 348, 349, 350, 351, 352, 353, 354, 355, 356, 357, 358, 359, 360, 361, 362, 363, 364, 365, 366, 367, 368, 369, 370, 371, 372, 373, 374, 375, 376, 377, 378, 379, 380, 381, 382, 383, 384, 385, 386, 387, 388, 389, 390, 391, 392, 393, 394, 395, 396, 397, 398, 399, 400, 401, 402, 403, 404, 405, 406, 407, 408, 409, 410, 411, 412, 413, 414, 415, 416, 417, 418, 419, 420, 421, 422, 423, 424, 425, 426, 427, 428, 429, 430, 431, 432, 433, 434, 435, 436, 437, 438, 439, 440, 441, 442, 443, 444, 445, 446, 447, 448, 449, 450, 451, 452, 453, 454, 455, 456, 457, 458, 459, 460, 461, 462, 463, 464, 465, 466, 467, 468, 469, 470, 471, 472, 473, 474, 475, 476, 477, 478, 479, 480, 481, 482, 483, 484, 485, 486, 487, 488, 489, 490, 491, 492, 493, 494, 495, 496, 497, 498, 499, 500, 501, 502, 503, 504, 505, 506, 507, 508, 509, 510, 511, 512, 513, 514, 515, 516, 517, 518, 519, 520, 521, 522, 523, 524, 525, 526, 527, 528, 529, 530, 531, 532, 533, 534, 535, 536, 537, 538, 539, 540, 541, 542, 543, 544, 545, 546, 547, 548, 549, 550, 551, 552, 553, 554, 555, 556, 557, 558, 559, 560, 561, 562, 563, 564, 565, 566, 567, 568, 569, 570, 571, 572, 573, 574, 575, 576, 577, 578, 579, 580, 581],
      "AcquisitionTime": ["162254.760000", "162255.547500", "162256.335000", "162257.125000", "162257.912500", "162258.700000", "162259.487500", "162300.277500", "162301.065000", "162301.852500", "162302.640000", "162303.430000", "162304.217500", "162305.005000", "162305.792500", "162306.582500", "162307.370000", "162308.157500", "162308.945000", "162309.735000", "162310.522500", "162311.310000", "162312.097500", "162312.887500", "162313.675000", "162314.462500", "162315.252500", "162316.040000", "162316.827500", "162317.615000", "162318.405000", "162319.192500", "162319.980000", "162320.767500", "162321.557500", "162322.345000", "162323.132500", "162323.920000", "162324.710000", "162325.497500", "162326.285000", "162327.072500", "162327.862500", "162328.650000", "162329.437500", "162330.225000", "162331.015000", "162331.802500", "162332.590000", "162333.380000", "162334.167500", "162334.955000", "162335.742500", "162336.532500", "162337.320000", "162338.107500", "162338.895000", "162339.685000", "162340.472500", "162341.260000", "162342.047500", "162342.837500", "162343.625000", "162344.412500", "162345.200000", "162345.990000", "162346.777500", "162347.565000", "162348.352500", "162349.142500", "162349.930000", "162350.717500", "162351.507500", "162352.295000", "162353.082500", "162353.870000", "162354.660000", "162355.447500", "162356.235000", "162357.022500", "162357.812500", "162358.600000", "162359.387500", "162400.175000", "162400.965000", "162401.752500", "162402.540000", "162403.327500", "162404.117500", "162404.905000", "162405.692500", "162406.480000", "162407.270000", "162408.057500", "162408.845000", "162409.635000", "162410.422500", "162411.210000", "162411.997500", "162412.787500", "162413.575000", "162414.362500", "162415.150000", "162415.940000", "162416.727500", "162417.515000", "162418.302500", "162419.092500", "162419.880000", "162420.667500", "162421.455000", "162422.245000", "162423.032500", "162423.820000", "162424.607500", "162425.397500", "162426.185000", "162426.972500", "162427.762500", "162428.550000", "162429.337500", "162430.125000", "162430.915000", "162431.702500", "162432.490000", "162433.277500", "162434.067500", "162434.855000", "162435.642500", "162436.430000", "162437.220000", "162438.007500", "162438.795000", "162439.582500", "162440.372500", "162441.160000", "162441.947500", "162442.735000", "162443.525000", "162444.312500", "162445.100000", "162445.890000", "162446.677500", "162447.465000", "162448.252500", "162449.042500", "162449.830000", "162450.617500", "162451.405000", "162452.195000", "162452.982500", "162453.770000", "162454.557500", "162455.347500", "162456.135000", "162456.922500", "162457.710000", "162458.500000", "162459.287500", "162500.075000", "162500.862500", "162501.652500", "162502.440000", "162503.227500", "162504.017500", "162504.805000", "162505.592500", "162506.380000", "162507.170000", "162507.957500", "162508.745000", "162509.532500", "162510.322500", "162511.110000", "162511.897500", "162512.685000", "162513.475000", "162514.262500", "162515.050000", "162515.837500", "162516.627500", "162517.415000", "162518.202500", "162518.990000", "162519.780000", "162520.567500", "162521.355000", "162522.145000", "162522.932500", "162523.720000", "162524.507500", "162525.297500", "162526.085000", "162526.872500", "162527.660000", "162528.450000", "162529.237500", "162530.025000", "162530.812500", "162531.602500", "162532.390000", "162533.177500", "162533.965000", "162534.755000", "162535.542500", "162536.330000", "162537.117500", "162537.907500", "162538.695000", "162539.482500", "162540.272500", "162541.060000", "162541.847500", "162542.635000", "162543.425000", "162544.212500", "162545.000000", "162545.787500", "162546.577500", "162547.365000", "162548.152500", "162548.940000", "162549.730000", "162550.517500", "162551.305000", "162552.092500", "162552.882500", "162553.670000", "162554.457500", "162555.245000", "162556.035000", "162556.822500", "162557.610000", "162558.400000", "162559.187500", "162559.975000", "162600.762500", "162601.552500", "162602.340000", "162603.127500", "162603.915000", "162604.705000", "162605.492500", "162606.280000", "162607.067500", "162607.857500", "162608.645000", "162609.432500", "162610.220000", "162611.010000", "162611.797500", "162612.585000", "162613.375000", "162614.162500", "162614.950000", "162615.737500", "162616.527500", "162617.315000", "162618.102500", "162618.890000", "162619.680000", "162620.467500", "162621.255000", "162622.042500", "162622.832500", "162623.620000", "162624.407500", "162625.195000", "162625.985000", "162626.772500", "162627.560000", "162628.347500", "162629.137500", "162629.925000", "162630.712500", "162631.502500", "162632.290000", "162633.077500", "162633.865000", "162634.655000", "162635.442500", "162636.230000", "162637.017500", "162637.807500", "162638.595000", "162639.382500", "162640.170000", "162640.960000", "162641.747500", "162642.535000", "162643.322500", "162644.112500", "162644.900000", "162645.687500", "162646.475000", "162647.265000", "162648.052500", "162648.840000", "162649.630000", "162650.417500", "162651.205000", "162651.992500", "162652.782500", "162653.570000", "162654.357500", "162655.145000", "162655.935000", "162656.722500", "162657.510000", "162658.297500", "162659.087500", "162659.875000", "162700.662500", "162701.450000", "162702.240000", "162703.027500", "162703.815000", "162704.602500", "162705.392500", "162706.180000", "162706.967500", "162707.757500", "162708.545000", "162709.332500", "162710.120000", "162710.910000", "162711.697500", "162712.485000", "162713.272500", "162714.062500", "162714.850000", "162715.637500", "162716.425000", "162717.215000", "162718.002500", "162718.790000", "162719.577500", "162720.367500", "162721.155000", "162721.942500", "162722.730000", "162723.520000", "162724.307500", "162725.095000", "162725.885000", "162726.672500", "162727.460000", "162728.247500", "162729.037500", "162729.825000", "162730.612500", "162731.400000", "162732.190000", "162732.977500", "162733.765000", "162734.552500", "162735.342500", "162736.130000", "162736.917500", "162737.705000", "162738.495000", "162739.282500", "162740.070000", "162740.857500", "162741.647500", "162742.435000", "162743.222500", "162744.012500", "162744.800000", "162745.587500", "162746.375000", "162747.165000", "162747.952500", "162748.740000", "162749.527500", "162750.317500", "162751.105000", "162751.892500", "162752.680000", "162753.470000", "162754.257500", "162755.045000", "162755.832500", "162756.622500", "162757.410000", "162758.197500", "162758.985000", "162759.775000", "162800.562500", "162801.350000", "162802.140000", "162802.927500", "162803.715000", "162804.502500", "162805.292500", "162806.080000", "162806.867500", "162807.655000", "162808.445000", "162809.232500", "162810.020000", "162810.807500", "162811.597500", "162812.385000", "162813.172500", "162813.960000", "162814.750000", "162815.537500", "162816.325000", "162817.112500", "162817.902500", "162818.690000", "162819.477500", "162820.267500", "162821.055000", "162821.842500", "162822.630000", "162823.420000", "162824.207500", "162824.995000", "162825.782500", "162826.572500", "162827.360000", "162828.147500", "162828.935000", "162829.725000", "162830.512500", "162831.300000", "162832.087500", "162832.877500", "162833.665000", "162834.452500", "162835.240000", "162836.030000", "162836.817500", "162837.605000", "162838.395000", "162839.182500", "162839.970000", "162840.757500", "162841.547500", "162842.335000", "162843.122500", "162843.910000", "162844.700000", "162845.487500", "162846.275000", "162847.062500", "162847.852500", "162848.640000", "162849.427500", "162850.215000", "162851.005000", "162851.792500", "162852.580000", "162853.367500", "162854.157500", "162854.945000", "162855.732500", "162856.522500", "162857.310000", "162858.097500", "162858.885000", "162859.675000", "162900.462500", "162901.250000", "162902.037500", "162902.827500", "162903.615000", "162904.402500", "162905.190000", "162905.980000", "162906.767500", "162907.555000", "162908.342500", "162909.132500", "162909.920000", "162910.707500", "162911.495000", "162912.285000", "162913.072500", "162913.860000", "162914.650000", "162915.437500", "162916.225000", "162917.012500", "162917.802500", "162918.590000", "162919.377500", "162920.165000", "162920.955000", "162921.742500", "162922.530000", "162923.317500", "162924.107500", "162924.895000", "162925.682500", "162926.470000", "162927.260000", "162928.047500", "162928.835000", "162929.625000", "162930.412500", "162931.200000", "162931.987500", "162932.777500", "162933.565000", "162934.352500", "162935.140000", "162935.930000", "162936.717500", "162937.505000", "162938.292500", "162939.082500", "162939.870000", "162940.657500", "162941.445000", "162942.235000", "162943.022500", "162943.810000", "162944.597500", "162945.387500", "162946.175000", "162946.962500", "162947.752500", "162948.540000", "162949.327500", "162950.115000", "162950.905000", "162951.692500", "162952.480000", "162953.267500", "162954.057500", "162954.845000", "162955.632500", "162956.420000", "162957.210000", "162957.997500", "162958.785000", "162959.572500", "163000.362500", "163001.150000", "163001.937500", "163002.725000", "163003.515000", "163004.302500", "163005.090000", "163005.880000", "163006.667500", "163007.455000", "163008.242500", "163009.032500", "163009.820000", "163010.607500", "163011.395000", "163012.185000", "163012.972500", "163013.760000", "163014.547500", "163015.337500", "163016.125000", "163016.912500", "163017.700000", "163018.490000", "163019.277500", "163020.065000", "163020.852500", "163021.642500", "163022.430000", "163023.217500", "163024.007500", "163024.795000", "163025.582500", "163026.370000", "163027.160000", "163027.947500", "163028.735000", "163029.522500", "163030.312500", "163031.100000", "163031.887500"],
      "ContentTime": ["181106.140000", "181106.140000", "181106.140000", "181106.140000", "181106.140000", "181106.140000", "181106.156000", "181106.156000", "181106.156000", "181106.156000", "181106.156000", "181106.156000", "181106.156000", "181106.171000", "181106.171000", "181106.171000", "181106.171000", "181106.171000", "181106.171000", "181106.171000", "181206.140000", "181206.140000", "181206.140000", "181206.140000", "181206.140000", "181206.140000", "181206.140000", "181206.156000", "181206.156000", "181206.156000", "181206.156000", "181206.156000", "181206.156000", "181206.156000", "181206.171000", "181206.171000", "181206.171000", "181206.171000", "181206.171000", "181206.171000", "181206.187000", "181206.187000", "181206.187000", "181206.187000", "181206.187000", "181206.187000", "181206.187000", "181206.203000", "181246.140000", "181246.140000", "181246.140000", "181246.140000", "181246.140000", "181246.140000", "181246.140000", "181246.156000", "181246.156000", "181246.156000", "181246.156000", "181246.156000", "181246.156000", "181246.156000", "181246.171000", "181246.171000", "181246.171000", "181246.171000", "181246.171000", "181346.140000", "181346.140000", "181346.140000", "181346.140000", "181346.140000", "181346.140000", "181346.140000", "181346.156000", "181346.156000", "181346.156000", "181346.156000", "181346.156000", "181346.156000", "181346.156000", "181346.171000", "181346.171000", "181346.171000", "181346.171000", "181346.171000", "181346.171000", "181346.171000", "181346.187000", "181346.187000", "181346.187000", "181346.187000", "181346.187000", "181346.187000", "181346.203000", "181446.140000", "181446.140000", "181446.140000", "181446.140000", "181446.140000", "181446.140000", "181446.140000", "181446.156000", "181446.156000", "181446.156000", "181446.156000", "181446.156000", "181446.156000", "181446.156000", "181446.171000", "181446.171000", "181446.171000", "181446.171000", "181446.171000", "181446.187000", "181446.187000", "181446.187000", "181446.187000", "181446.187000", "181446.187000", "181446.187000", "181446.203000", "181446.203000", "181446.203000", "181546.140000", "181546.140000", "181546.140000", "181546.140000", "181546.140000", "181546.140000", "181546.140000", "181546.156000", "181546.156000", "181546.156000", "181546.156000", "181546.156000", "181546.156000", "181546.171000", "181546.171000", "181546.171000", "181546.171000", "181546.171000", "181546.171000", "181546.171000", "181546.187000", "181546.187000", "181546.187000", "181546.187000", "181546.187000", "181546.187000", "181546.203000", "181546.203000", "181646.140000", "181646.140000", "181646.140000", "181646.140000", "181646.140000", "181646.140000", "181646.140000", "181646.156000", "181646.156000", "181646.156000", "181646.156000", "181646.156000", "181646.156000", "181646.156000", "181646.171000", "181646.171000", "181646.171000", "181646.171000", "181646.171000", "181646.171000", "181646.187000", "181646.187000", "181646.187000", "181646.187000", "181646.187000", "181646.187000", "181646.203000", "181646.203000", "181746.140000", "181746.140000", "181746.140000", "181746.140000", "181746.140000", "181746.140000", "181746.140000", "181746.156000", "181746.156000", "181746.156000", "181746.156000", "181746.156000", "181746.156000", "181746.156000", "181746.171000", "181746.171000", "181746.171000", "181746.171000", "181746.171000", "181746.171000", "181746.171000", "181746.187000", "181746.187000", "181746.187000", "181746.187000", "181746.203000", "181746.203000", "181746.203000", "181746.203000", "181846.140000", "181846.140000", "181846.140000", "181846.140000", "181846.140000", "181846.140000", "181846.140000", "181846.156000", "181846.156000", "181846.156000", "181846.156000", "181846.156000", "181846.156000", "181846.156000", "181846.171000", "181846.171000", "181846.171000", "181846.171000", "181846.187000", "181846.187000", "181846.187000", "181846.187000", "181846.187000", "181846.187000", "181846.187000", "181846.203000", "181846.203000", "181846.203000", "181946.140000", "181946.140000", "181946.140000", "181946.140000", "181946.140000", "181946.140000", "181946.140000", "181946.156000", "181946.156000", "181946.156000", "181946.156000", "181946.156000", "181946.156000", "181946.156000", "181946.171000", "181946.171000", "181946.171000", "181946.171000", "181946.171000", "181946.187000", "181946.187000", "181946.187000", "181946.187000", "181946.187000", "181946.187000", "181946.187000", "181946.203000", "181946.203000", "182046.140000", "182046.140000", "182046.140000", "182046.140000", "182046.140000", "182046.140000", "182046.140000", "182046.156000", "182046.156000", "182046.156000", "182046.156000", "182046.156000", "182046.156000", "182046.156000", "182046.171000", "182046.171000", "182046.171000", "182046.171000", "182046.171000", "182046.171000", "182046.171000", "182046.187000", "182046.187000", "182046.187000", "182046.187000", "182046.187000", "182046.187000", "182046.187000", "182146.140000", "182146.140000", "182146.140000", "182146.140000", "182146.140000", "182146.140000", "182146.140000", "182146.156000", "182146.156000", "182146.156000", "182146.156000", "182146.156000", "182146.156000", "182146.156000", "182146.171000", "182146.171000", "182146.171000", "182146.171000", "182146.171000", "182146.171000", "182146.171000", "182146.187000", "182146.187000", "182146.187000", "182146.187000", "182146.187000", "182146.187000", "182146.187000", "182146.203000", "182246.140000", "182246.140000", "182246.140000", "182246.140000", "182246.140000", "182246.140000", "182246.156000", "182246.156000", "182246.156000", "182246.156000", "182246.156000", "182246.156000", "182246.156000", "182246.171000", "182246.171000", "182246.171000", "182246.171000", "182246.171000", "182246.171000", "182246.171000", "182246.187000", "182246.187000", "182246.187000", "182246.187000", "182246.187000", "182246.187000", "182246.203000", "182246.203000", "182306.140000", "182306.140000", "182306.140000", "182306.140000", "182306.140000", "182306.156000", "182306.156000", "182306.156000", "182306.156000", "182406.140000", "182406.140000", "182406.140000", "182406.140000", "182406.140000", "182406.140000", "182406.140000", "182406.156000", "182406.156000", "182406.156000", "182406.156000", "182406.156000", "182406.156000", "182406.156000", "182406.171000", "182406.171000", "182406.171000", "182406.171000", "182406.171000", "182406.171000", "182406.187000", "182406.187000", "182406.187000", "182406.187000", "182406.187000", "182406.187000", "182406.187000", "182406.203000", "182406.203000", "182506.140000", "182506.140000", "182506.140000", "182506.140000", "182506.140000", "182506.140000", "182506.140000", "182506.156000", "182506.156000", "182506.156000", "182506.156000", "182506.156000", "182506.156000", "182506.156000", "182506.171000", "182506.171000", "182506.171000", "182506.171000", "182506.171000", "182506.171000", "182506.171000", "182506.187000", "182506.187000", "182506.187000", "182506.187000", "182506.187000", "182506.203000", "182506.203000", "182606.140000", "182606.140000", "182606.140000", "182606.140000", "182606.140000", "182606.140000", "182606.140000", "182606.156000", "182606.156000", "182606.156000", "182606.156000", "182606.156000", "182606.156000", "182606.156000", "182606.171000", "182606.171000", "182606.171000", "182606.171000", "182606.171000", "182606.171000", "182606.171000", "182606.187000", "182606.187000", "182606.187000", "182606.187000", "182606.187000", "182606.203000", "182606.203000", "182706.140000", "182706.140000", "182706.140000", "182706.140000", "182706.140000", "182706.156000", "182706.156000", "182706.156000", "182706.156000", "182706.156000", "182706.156000", "182706.156000", "182706.171000", "182706.171000", "182706.171000", "182706.171000", "182706.187000", "182706.187000", "182706.187000", "182706.187000", "182706.187000", "182706.187000", "182706.203000", "182706.203000", "182706.203000", "182706.203000", "182706.203000", "182706.203000", "182746.140000", "182746.140000", "182746.140000", "182746.140000", "182746.140000", "182746.140000", "182746.140000", "182746.156000", "182746.156000", "182746.156000", "182746.156000", "182746.156000", "182746.156000", "182746.156000", "182746.171000", "182746.171000", "182746.171000", "182746.171000", "182746.171000", "182746.171000", "182846.140000", "182846.140000", "182846.140000", "182846.140000", "182846.140000", "182846.140000", "182846.140000", "182846.156000", "182846.156000", "182846.156000", "182846.156000", "182846.156000", "182846.156000", "182846.156000", "182846.171000", "182846.171000", "182846.171000", "182846.171000", "182846.171000", "182846.171000", "182846.187000", "182846.187000", "182846.187000", "182846.187000", "182846.187000", "182846.187000", "182846.187000", "182846.203000", "182946.140000", "182946.140000", "182946.140000", "182946.140000", "182946.140000", "182946.140000", "182946.140000", "182946.156000", "182946.156000", "182946.156000", "182946.156000", "182946.156000", "182946.156000", "182946.156000", "182946.171000", "182946.171000", "182946.171000", "182946.171000", "182946.187000", "182946.187000", "182946.187000", "182946.187000", "182946.187000", "182946.187000", "182946.187000", "182946.203000", "182946.203000", "182946.203000", "183046.140000", "183046.140000", "183046.140000", "183046.140000", "183046.156000", "183046.156000", "183046.156000", "183046.156000", "183046.156000", "183046.156000", "183046.156000", "183046.171000", "183046.171000", "183046.171000", "183046.171000", "183046.187000", "183046.187000", "183046.187000", "183046.187000", "183046.187000", "183046.187000", "183046.203000", "183046.203000", "183046.203000", "183046.203000", "183046.203000", "183046.203000", "183046.203000", "183054.562000", "183054.562000", "183054.562000", "183054.562000", "183054.562000"],
      "DataSetTrailingPadding": [
        "\u0000\u0000\u0000\u0000\u0000\u0000\u0000\u0000\u0000\u0000\u0000\u0000\u0000\u0000\u0000\u0000\u0000\u0000\u0000\u0000\u0000\u0000\u0000\u0000\u0000\u0000\u0000\u0000\u0000\u0000\u0000\u0000\u0000\u0000\u0000\u0000\u0000\u0000\u0000\u0000\u0000\u0000\u0000\u0000\u0000\u0000\u0000\u0000\u0000\u0000\u0000\u0000\u0000\u0000\u0000\u0000\u0000\u0000\u0000\u0000\u0000\u0000\u0000\u0000\u0000\u0000\u0000\u0000\u0000\u0000\u0000\u0000\u0000\u0000\u0000\u0000\u0000\u0000\u0000\u0000\u0000\u0000\u0000\u0000\u0000\u0000\u0000\u0000\u0000\u0000\u0000\u0000\u0000\u0000\u0000\u0000\u0000\u0000\u0000\u0000\u0000\u0000\u0000\u0000\u0000\u0000\u0000\u0000\u0000\u0000\u0000\u0000\u0000\u0000\u0000\u0000\u0000\u0000\u0000\u0000\u0000\u0000\u0000\u0000\u0000\u0000\u0000\u0000\u0000\u0000\u0000\u0000\u0000\u0000\u0000\u0000\u0000\u0000\u0000\u0000\u0000\u0000\u0000\u0000\u0000\u0000\u0000\u0000\u0000\u0000\u0000\u0000\u0000\u0000\u0000\u0000\u0000\u0000\u0000\u0000\u0000\u0000\u0000\u0000\u0000\u0000\u0000\u0000\u0000\u0000\u0000\u0000\u0000\u0000\u0000\u0000\u0000\u0000\u0000\u0000\u0000\u0000\u0000\u0000\u0000\u0000\u0000\u0000\u0000\u0000\u0000\u0000\u0000\u0000\u0000\u0000\u0000\u0000\u0000\u0000\u0000\u0000\u0000\u0000\u0000\u0000\u0000\u0000\u0000\u0000\u0000\u0000\u0000\u0000\u0000\u0000\u0000\u0000\u0000\u0000\u0000\u0000\u0000\u0000\u0000\u0000\u0000\u0000\u0000\u0000\u0000\u0000\u0000\u0000\u0000\u0000\u0000\u0000\u0000\u0000\u0000\u0000\u0000\u0000\u0000\u0000\u0000\u0000\u0000\u0000\u0000\u0000\u0000\u0000\u0000\u0000\u0000\u0000\u0000\u0000\u0000\u0000\u0000\u0000\u0000\u0000\u0000\u0000\u0000\u0000\u0000\u0000\u0000\u0000\u0000\u0000\u0000\u0000\u0000\u0000",
