{
  "AcquisitionMatrixPE": 104,
  "AcquisitionNumber": 1,
  "AcquisitionTime": "15:34:9.850000",
  "BandwidthPerPixelPhaseEncode": 13.935,
  "BaseResolution": 104,
  "CoilString": "C:HEA;HEP",
  "ConversionSoftware": "dcm2niix",
  "ConversionSoftwareVersion": "v1.0.20210317",
  "DerivedVendorReportedEchoSpacing": 0.000690017,
  "DeviceSerialNumber": "35450",
  "DwellTime": 2.5e-06,
  "EchoTime": 0.0348,
  "EffectiveEchoSpacing": 0.000690017,
  "FlipAngle": 55,
  "ImageComments": "Unaliased MB8/PE3",
  "ImageOrientationPatientDICOM": [1, 0, 0, 0, 0.988494, -0.151261],
  "ImageType": [
    "ORIGINAL",
    "PRIMARY",
    "M",
    "MB",
    "ND",
    "MOSAIC"
],
  "ImagingFrequency": 123.235,
  "InPlanePhaseEncodingDirectionDICOM": "COL",
  "InstitutionAddress": "Univeristy Ave. 197,Newark,North East,US,07102-1814",
  "InstitutionName": "RUBIC",
  "InstitutionalDepartmentName": "Department",
  "MRAcquisitionType": "2D",
  "MagneticFieldStrength": 3,
  "Manufacturer": "Siemens",
  "ManufacturersModelName": "TrioTim",
  "Modality": "MR",
  "MultibandAccelerationFactor": 8,
  "PartialFourier": 0.875,
  "PatientPosition": "HFS",
  "PercentPhaseFOV": 100,
  "PercentSampling": 100,
  "PhaseEncodingDirection": "j-",
  "PhaseEncodingSteps": 91,
  "PhaseResolution": 1,
  "PixelBandwidth": 1923,
  "ProcedureStepDescription": "Cole^Michael",
  "ProtocolName": "cmrr_mbep2d_bold_2mm_MB8_Task_8x",
  "PulseSequenceDetails": "%CustomerSeq%\\cmrr_mbep2d_bold",
  "ReceiveCoilName": "32Ch_Head",
  "ReconMatrixPE": 104,
  "RepetitionTime": 0.785,
  "SAR": 0.158716,
  "ScanOptions": "PFP\\FS",
  "ScanningSequence": "EP",
  "SequenceName": "epfid2d1_104",
  "SequenceVariant": "SK\\SS",
  "SeriesDescription": "cmrr_mbep2d_bold_2mm_MB8_Task_8x",
  "SeriesNumber": 13,
  "ShimSetting": [2109, -453, -7245, 237, 132, -465, 97, -67],
  "SliceThickness": 2,
  "SliceTiming": [0, 0.4375, 0.0875, 0.525, 0.175, 0.6125, 0.2625, 0.7, 0.35, 0, 0.4375, 0.0875, 0.525, 0.175, 0.6125, 0.2625, 0.7, 0.35, 0, 0.4375, 0.0875, 0.525, 0.175, 0.6125, 0.2625, 0.7, 0.35, 0, 0.4375, 0.0875, 0.525, 0.175, 0.6125, 0.2625, 0.7, 0.35, 0, 0.4375, 0.0875, 0.525, 0.175, 0.6125, 0.2625, 0.7, 0.35, 0, 0.4375, 0.0875, 0.525, 0.175, 0.6125, 0.2625, 0.7, 0.35, 0, 0.4375, 0.0875, 0.525, 0.175, 0.6125, 0.2625, 0.7, 0.35, 0, 0.4375, 0.0875, 0.525, 0.175, 0.6125, 0.2625, 0.7, 0.35],
  "SoftwareVersions": "syngo MR B19",
  "SpacingBetweenSlices": 2,
  "StationName": "MRC35450",
  "TaskName": "cpro",
  "TotalReadoutTime": 0.0710717,
  "TxRefAmp": 318.521,
  "dcmmeta_affine": [
    [-2.0, 0.0, 0.0, 103.32203674316406],
    [0.0, 1.9769877195358276, -0.30252164602279663, -70.42584228515625],
    [0.0, 0.30252164602279663, 1.9769878387451172, -105.27268981933594],
    [0.0, 0.0, 0.0, 1.0]
],
  "dcmmeta_reorient_transform": [
    [0.0, -1.0, 0.0, 103.0],
    [1.0, 0.0, 0.0, 0.0],
    [0.0, 0.0, 1.0, 0.0],
    [0.0, 0.0, 0.0, 1.0]
],
  "dcmmeta_shape": [104, 104, 72, 581],
  "dcmmeta_slice_dim": 2,
  "dcmmeta_version": 0.6,
  "global": {
    "const": {
      "AcquisitionMatrix": [104, 0, 0, 104],
      "AngioFlag": "N",
      "BitsAllocated": 16,
      "BitsStored": 12,
      "Columns": 936,
      "EchoNumbers": 1,
      "EchoTime": 34.8,
      "EchoTrainLength": 1,
      "FlipAngle": 55.0,
      "HighBit": 11,
      "ImageOrientationPatient": [1.0, 0.0, 0.0, 0.0, 0.98849388683562, -0.1512608200712],
      "ImagePositionPatient": [-935.32203388214, -955.63081366164, 51.736041893284],
      "ImageType": [
        "ORIGINAL",
        "PRIMARY",
        "M",
        "MB",
        "ND",
        "MOSAIC"
],
      "ImagedNucleus": "1H",
      "ImagingFrequency": 123.234627,
      "InPlanePhaseEncodingDirection": "COL",
      "MRAcquisitionType": "2D",
      "MagneticFieldStrength": 3.0,
      "Manufacturer": "SIEMENS",
      "ManufacturerModelName": "TrioTim",
      "Modality": "MR",
      "NumberOfAverages": 1.0,
      "NumberOfPhaseEncodingSteps": 91,
      "PercentPhaseFieldOfView": 100.0,
      "PercentSampling": 100.0,
      "PerformedProcedureStepStartTime": "142132.750000",
      "PhotometricInterpretation": "MONOCHROME2",
      "PixelBandwidth": 1923.0,
      "PixelRepresentation": 0,
      "PixelSpacing": [2.0, 2.0],
      "ProtocolName": "cmrr_mbep2d_bold_2mm_MB8_Task_8x",
      "RepetitionTime": 785.0,
      "Rows": 936,
      "SAR": 0.15871566268835,
      "SamplesPerPixel": 1,
      "ScanOptions": [
        "PFP",
        "FS"
],
      "ScanningSequence": "EP",
      "SequenceName": "epfid2d1_104",
      "SequenceVariant": [
        "SK",
        "SS"
],
      "SeriesDescription": "cmrr_mbep2d_bold_2mm_MB8_Task_8x",
      "SeriesNumber": 13,
      "SeriesTime": "160425.703000",
      "SliceLocation": -93.408739419185,
      "SliceThickness": 2.0,
      "SmallestImagePixelValue": 0,
      "SoftwareVersions": "syngo MR B19",
      "SpacingBetweenSlices": 2.0000000375168,
      "SpecificCharacterSet": "ISO_IR 100",
      "StudyID": "1",
      "StudyTime": "142132.703000",
      "TransmitCoilName": "Body",
      "VariableFlipAngleFlag": "N",
      "WindowCenterWidthExplanation": "Algo1",
      "dBdt": 0.0},
    "slices": {}
  },
  "time": {
    "samples": {
      "AcquisitionNumber": [1, 2, 3, 4, 5, 6, 7, 8, 9, 10, 11, 12, 13, 14, 15, 16, 17, 18, 19, 20, 21, 22, 23, 24, 25, 26, 27, 28, 29, 30, 31, 32, 33, 34, 35, 36, 37, 38, 39, 40, 41, 42, 43, 44, 45, 46, 47, 48, 49, 50, 51, 52, 53, 54, 55, 56, 57, 58, 59, 60, 61, 62, 63, 64, 65, 66, 67, 68, 69, 70, 71, 72, 73, 74, 75, 76, 77, 78, 79, 80, 81, 82, 83, 84, 85, 86, 87, 88, 89, 90, 91, 92, 93, 94, 95, 96, 97, 98, 99, 100, 101, 102, 103, 104, 105, 106, 107, 108, 109, 110, 111, 112, 113, 114, 115, 116, 117, 118, 119, 120, 121, 122, 123, 124, 125, 126, 127, 128, 129, 130, 131, 132, 133, 134, 135, 136, 137, 138, 139, 140, 141, 142, 143, 144, 145, 146, 147, 148, 149, 150, 151, 152, 153, 154, 155, 156, 157, 158, 159, 160, 161, 162, 163, 164, 165, 166, 167, 168, 169, 170, 171, 172, 173, 174, 175, 176, 177, 178, 179, 180, 181, 182, 183, 184, 185, 186, 187, 188, 189, 190, 191, 192, 193, 194, 195, 196, 197, 198, 199, 200, 201, 202, 203, 204, 205, 206, 207, 208, 209, 210, 211, 212, 213, 214, 215, 216, 217, 218, 219, 220, 221, 222, 223, 224, 225, 226, 227, 228, 229, 230, 231, 232, 233, 234, 235, 236, 237, 238, 239, 240, 241, 242, 243, 244, 245, 246, 247, 248, 249, 250, 251, 252, 253, 254, 255, 256, 257, 258, 259, 260, 261, 262, 263, 264, 265, 266, 267, 268, 269, 270, 271, 272, 273, 274, 275, 276, 277, 278, 279, 280, 281, 282, 283, 284, 285, 286, 287, 288, 289, 290, 291, 292, 293, 294, 295, 296, 297, 298, 299, 300, 301, 302, 303, 304, 305, 306, 307, 308, 309, 310, 311, 312, 313, 314, 315, 316, 317, 318, 319, 320, 321, 322, 323, 324, 325, 326, 327, 328, 329, 330, 331, 332, 333, 334, 335, 336, 337, 338, 339, 340, 341, 342, 343, 344, 345, 346, 347, 348, 349, 350, 351, 352, 353, 354, 355, 356, 357, 358, 359, 360, 361, 362, 363, 364, 365, 366, 367, 368, 369, 370, 371, 372, 373, 374, 375, 376, 377, 378, 379, 380, 381, 382, 383, 384, 385, 386, 387, 388, 389, 390, 391, 392, 393, 394, 395, 396, 397, 398, 399, 400, 401, 402, 403, 404, 405, 406, 407, 408, 409, 410, 411, 412, 413, 414, 415, 416, 417, 418, 419, 420, 421, 422, 423, 424, 425, 426, 427, 428, 429, 430, 431, 432, 433, 434, 435, 436, 437, 438, 439, 440, 441, 442, 443, 444, 445, 446, 447, 448, 449, 450, 451, 452, 453, 454, 455, 456, 457, 458, 459, 460, 461, 462, 463, 464, 465, 466, 467, 468, 469, 470, 471, 472, 473, 474, 475, 476, 477, 478, 479, 480, 481, 482, 483, 484, 485, 486, 487, 488, 489, 490, 491, 492, 493, 494, 495, 496, 497, 498, 499, 500, 501, 502, 503, 504, 505, 506, 507, 508, 509, 510, 511, 512, 513, 514, 515, 516, 517, 518, 519, 520, 521, 522, 523, 524, 525, 526, 527, 528, 529, 530, 531, 532, 533, 534, 535, 536, 537, 538, 539, 540, 541, 542, 543, 544, 545, 546, 547, 548, 549, 550, 551, 552, 553, 554, 555, 556, 557, 558, 559, 560, 561, 562, 563, 564, 565, 566, 567, 568, 569, 570, 571, 572, 573, 574, 575, 576, 577, 578, 579, 580, 581],
      "AcquisitionTime": ["153409.850000", "153410.637500", "153411.425000", "153412.215000", "153413.002500", "153413.790000", "153414.580000", "153415.367500", "153416.155000", "153416.942500", "153417.732500", "153418.520000", "153419.307500", "153420.095000", "153420.885000", "153421.672500", "153422.460000", "153423.247500", "153424.037500", "153424.825000", "153425.612500", "153426.400000", "153427.190000", "153427.977500", "153428.765000", "153429.552500", "153430.342500", "153431.130000", "153431.917500", "153432.707500", "153433.495000", "153434.282500", "153435.070000", "153435.860000", "153436.647500", "153437.435000", "153438.222500", "153439.012500", "153439.800000", "153440.587500", "153441.375000", "153442.165000", "153442.952500", "153443.740000", "153444.527500", "153445.317500", "153446.105000", "153446.892500", "153447.680000", "153448.470000", "153449.257500", "153450.045000", "153450.835000", "153451.622500", "153452.410000", "153453.197500", "153453.987500", "153454.775000", "153455.562500", "153456.350000", "153457.140000", "153457.927500", "153458.715000", "153459.502500", "153500.292500", "153501.080000", "153501.867500", "153502.655000", "153503.445000", "153504.232500", "153505.020000", "153505.807500", "153506.597500", "153507.385000", "153508.172500", "153508.962500", "153509.750000", "153510.537500", "153511.325000", "153512.115000", "153512.902500", "153513.690000", "153514.477500", "153515.267500", "153516.055000", "153516.842500", "153517.630000", "153518.420000", "153519.207500", "153519.995000", "153520.782500", "153521.572500", "153522.360000", "153523.147500", "153523.935000", "153524.725000", "153525.512500", "153526.300000", "153527.090000", "153527.877500", "153528.665000", "153529.452500", "153530.242500", "153531.030000", "153531.817500", "153532.605000", "153533.395000", "153534.182500", "153534.970000", "153535.757500", "153536.547500", "153537.335000", "153538.122500", "153538.910000", "153539.700000", "153540.487500", "153541.275000", "153542.062500", "153542.852500", "153543.640000", "153544.427500", "153545.217500", "153546.005000", "153546.792500", "153547.580000", "153548.370000", "153549.157500", "153549.945000", "153550.732500", "153551.522500", "153552.310000", "153553.097500", "153553.885000", "153554.675000", "153555.462500", "153556.250000", "153557.037500", "153557.827500", "153558.615000", "153559.402500", "153600.190000", "153600.980000", "153601.767500", "153602.555000", "153603.345000", "153604.132500", "153604.920000", "153605.707500", "153606.497500", "153607.285000", "153608.072500", "153608.860000", "153609.650000", "153610.437500", "153611.225000", "153612.012500", "153612.802500", "153613.590000", "153614.377500", "153615.165000", "153615.955000", "153616.742500", "153617.530000", "153618.317500", "153619.107500", "153619.895000", "153620.682500", "153621.472500", "153622.260000", "153623.047500", "153623.835000", "153624.625000", "153625.412500", "153626.200000", "153626.987500", "153627.777500", "153628.565000", "153629.352500", "153630.140000", "153630.930000", "153631.717500", "153632.505000", "153633.292500", "153634.082500", "153634.870000", "153635.657500", "153636.445000", "153637.235000", "153638.022500", "153638.810000", "153639.600000", "153640.387500", "153641.175000", "153641.962500", "153642.752500", "153643.540000", "153644.327500", "153645.115000", "153645.905000", "153646.692500", "153647.480000", "153648.267500", "153649.057500", "153649.845000", "153650.632500", "153651.420000", "153652.210000", "153652.997500", "153653.785000", "153654.572500", "153655.362500", "153656.150000", "153656.937500", "153657.727500", "153658.515000", "153659.302500", "153700.090000", "153700.880000", "153701.667500", "153702.455000", "153703.242500", "153704.032500", "153704.820000", "153705.607500", "153706.395000", "153707.185000", "153707.972500", "153708.760000", "153709.547500", "153710.337500", "153711.125000", "153711.912500", "153712.702500", "153713.490000", "153714.277500", "153715.065000", "153715.855000", "153716.642500", "153717.430000", "153718.217500", "153719.007500", "153719.795000", "153720.582500", "153721.370000", "153722.160000", "153722.947500", "153723.735000", "153724.522500", "153725.312500", "153726.100000", "153726.887500", "153727.675000", "153728.465000", "153729.252500", "153730.040000", "153730.830000", "153731.617500", "153732.405000", "153733.192500", "153733.982500", "153734.770000", "153735.557500", "153736.345000", "153737.135000", "153737.922500", "153738.710000", "153739.497500", "153740.287500", "153741.075000", "153741.862500", "153742.650000", "153743.440000", "153744.227500", "153745.015000", "153745.802500", "153746.592500", "153747.380000", "153748.167500", "153748.957500", "153749.745000", "153750.532500", "153751.320000", "153752.110000", "153752.897500", "153753.685000", "153754.472500", "153755.262500", "153756.050000", "153756.837500", "153757.625000", "153758.415000", "153759.202500", "153759.990000", "153800.777500", "153801.567500", "153802.355000", "153803.142500", "153803.930000", "153804.720000", "153805.507500", "153806.295000", "153807.085000", "153807.872500", "153808.660000", "153809.447500", "153810.237500", "153811.025000", "153811.812500", "153812.600000", "153813.390000", "153814.177500", "153814.965000", "153815.752500", "153816.542500", "153817.330000", "153818.117500", "153818.905000", "153819.695000", "153820.482500", "153821.270000", "153822.057500", "153822.847500", "153823.635000", "153824.422500", "153825.212500", "153826.000000", "153826.787500", "153827.575000", "153828.365000", "153829.152500", "153829.940000", "153830.727500", "153831.517500", "153832.305000", "153833.092500", "153833.880000", "153834.670000", "153835.457500", "153836.245000", "153837.032500", "153837.822500", "153838.610000", "153839.397500", "153840.185000", "153840.975000", "153841.762500", "153842.550000", "153843.340000", "153844.127500", "153844.915000", "153845.702500", "153846.492500", "153847.280000", "153848.067500", "153848.855000", "153849.645000", "153850.432500", "153851.220000", "153852.007500", "153852.797500", "153853.585000", "153854.372500", "153855.160000", "153855.950000", "153856.737500", "153857.525000", "153858.312500", "153859.102500", "153859.890000", "153900.677500", "153901.467500", "153902.255000", "153903.042500", "153903.830000", "153904.620000", "153905.407500", "153906.195000", "153906.982500", "153907.772500", "153908.560000", "153909.347500", "153910.135000", "153910.925000", "153911.712500", "153912.500000", "153913.287500", "153914.077500", "153914.865000", "153915.652500", "153916.440000", "153917.230000", "153918.017500", "153918.805000", "153919.595000", "153920.382500", "153921.170000", "153921.957500", "153922.747500", "153923.535000", "153924.322500", "153925.110000", "153925.900000", "153926.687500", "153927.475000", "153928.262500", "153929.052500", "153929.840000", "153930.627500", "153931.415000", "153932.205000", "153932.992500", "153933.780000", "153934.567500", "153935.357500", "153936.145000", "153936.932500", "153937.722500", "153938.510000", "153939.297500", "153940.085000", "153940.875000", "153941.662500", "153942.450000", "153943.237500", "153944.027500", "153944.815000", "153945.602500", "153946.390000", "153947.180000", "153947.967500", "153948.755000", "153949.542500", "153950.332500", "153951.120000", "153951.907500", "153952.695000", "153953.485000", "153954.272500", "153955.060000", "153955.850000", "153956.637500", "153957.425000", "153958.212500", "153959.002500", "153959.790000", "154000.577500", "154001.365000", "154002.155000", "154002.942500", "154003.730000", "154004.517500", "154005.307500", "154006.095000", "154006.882500", "154007.670000", "154008.460000", "154009.247500", "154010.035000", "154010.822500", "154011.612500", "154012.400000", "154013.187500", "154013.977500", "154014.765000", "154015.552500", "154016.340000", "154017.130000", "154017.917500", "154018.705000", "154019.492500", "154020.282500", "154021.070000", "154021.857500", "154022.645000", "154023.435000", "154024.222500", "154025.010000", "154025.797500", "154026.587500", "154027.375000", "154028.162500", "154028.952500", "154029.740000", "154030.527500", "154031.315000", "154032.105000", "154032.892500", "154033.680000", "154034.467500", "154035.257500", "154036.045000", "154036.832500", "154037.620000", "154038.410000", "154039.197500", "154039.985000", "154040.772500", "154041.562500", "154042.350000", "154043.137500", "154043.925000", "154044.715000", "154045.502500", "154046.290000", "154047.080000", "154047.867500", "154048.655000", "154049.442500", "154050.232500", "154051.020000", "154051.807500", "154052.595000", "154053.385000", "154054.172500", "154054.960000", "154055.747500", "154056.537500", "154057.325000", "154058.112500", "154058.900000", "154059.690000", "154100.477500", "154101.265000", "154102.052500", "154102.842500", "154103.630000", "154104.417500", "154105.207500", "154105.995000", "154106.782500", "154107.570000", "154108.360000", "154109.147500", "154109.935000", "154110.722500", "154111.512500", "154112.300000", "154113.087500", "154113.875000", "154114.665000", "154115.452500", "154116.240000", "154117.027500", "154117.817500", "154118.605000", "154119.392500", "154120.180000", "154120.970000", "154121.757500", "154122.545000", "154123.335000", "154124.122500", "154124.910000", "154125.697500", "154126.487500", "154127.275000", "154128.062500", "154128.850000", "154129.640000", "154130.427500", "154131.215000", "154132.002500", "154132.792500", "154133.580000", "154134.367500", "154135.155000", "154135.945000", "154136.732500", "154137.520000", "154138.307500", "154139.097500", "154139.885000", "154140.672500", "154141.462500", "154142.250000", "154143.037500", "154143.825000", "154144.615000", "154145.402500", "154146.190000", "154146.977500"],
      "ContentTime": ["160425.703000", "160425.703000", "160425.703000", "160425.703000", "160425.703000", "160525.687000", "160525.687000", "160525.687000", "160525.687000", "160525.687000", "160525.687000", "160525.687000", "160525.703000", "160525.703000", "160525.703000", "160525.703000", "160525.703000", "160525.703000", "160525.703000", "160525.718000", "160525.718000", "160525.718000", "160525.718000", "160525.718000", "160525.718000", "160525.718000", "160525.734000", "160525.734000", "160525.734000", "160525.734000", "160525.734000", "160525.734000", "160525.734000", "160625.687000", "160625.687000", "160625.687000", "160625.687000", "160625.687000", "160625.687000", "160625.687000", "160625.703000", "160625.703000", "160625.703000", "160625.703000", "160625.703000", "160625.703000", "160625.703000", "160625.718000", "160625.718000", "160625.718000", "160625.718000", "160625.718000", "160625.718000", "160625.734000", "160625.734000", "160625.734000", "160625.734000", "160625.734000", "160625.734000", "160625.734000", "160725.687000", "160725.687000", "160725.687000", "160725.687000", "160725.687000", "160725.687000", "160725.703000", "160725.703000", "160725.703000", "160725.703000", "160725.703000", "160725.703000", "160725.718000", "160725.718000", "160725.718000", "160725.718000", "160725.718000", "160725.718000", "160725.718000", "160725.734000", "160725.734000", "160725.734000", "160725.734000", "160725.734000", "160725.734000", "160725.734000", "160725.750000", "160725.750000", "160825.687000", "160825.687000", "160825.687000", "160825.687000", "160825.687000", "160825.687000", "160825.687000", "160825.703000", "160825.703000", "160825.703000", "160825.703000", "160825.703000", "160825.703000", "160825.703000", "160825.718000", "160825.718000", "160825.718000", "160825.718000", "160825.718000", "160825.718000", "160825.718000", "160825.734000", "160825.734000", "160825.734000", "160825.734000", "160825.734000", "160825.750000", "160925.687000", "160925.687000", "160925.687000", "160925.687000", "160925.687000", "160925.687000", "160925.687000", "160925.703000", "160925.703000", "160925.703000", "160925.703000", "160925.703000", "160925.703000", "160925.703000", "160925.718000", "160925.718000", "160925.718000", "160925.718000", "160925.718000", "160925.734000", "160925.734000", "160925.734000", "160925.734000", "160925.734000", "160925.734000", "160925.734000", "160925.750000", "160925.750000", "161005.687000", "161005.687000", "161005.687000", "161005.687000", "161005.687000", "161005.687000", "161005.687000", "161005.703000", "161005.703000", "161005.703000", "161005.703000", "161005.703000", "161005.703000", "161005.703000", "161005.718000", "161005.718000", "161005.718000", "161005.718000", "161105.687000", "161105.687000", "161105.687000", "161105.687000", "161105.687000", "161105.687000", "161105.687000", "161105.703000", "161105.703000", "161105.703000", "161105.703000", "161105.703000", "161105.703000", "161105.718000", "161105.718000", "161105.718000", "161105.718000", "161105.718000", "161105.718000", "161105.718000", "161105.734000", "161105.734000", "161105.734000", "161105.734000", "161105.734000", "161105.734000", "161105.734000", "161105.750000", "161205.687000", "161205.687000", "161205.687000", "161205.687000", "161205.687000", "161205.687000", "161205.687000", "161205.703000", "161205.703000", "161205.703000", "161205.703000", "161205.703000", "161205.703000", "161205.703000", "161205.718000", "161205.718000", "161205.718000", "161205.718000", "161205.718000", "161205.718000", "161205.718000", "161205.734000", "161205.734000", "161205.734000", "161205.734000", "161205.734000", "161205.750000", "161305.687000", "161305.687000", "161305.687000", "161305.687000", "161305.687000", "161305.687000", "161305.687000", "161305.703000", "161305.703000", "161305.703000", "161305.703000", "161305.703000", "161305.718000", "161305.718000", "161305.718000", "161305.718000", "161305.718000", "161305.718000", "161305.734000", "161305.734000", "161305.734000", "161305.734000", "161305.734000", "161305.734000", "161305.734000", "161305.750000", "161305.750000", "161405.687000", "161405.687000", "161405.687000", "161405.687000", "161405.687000", "161405.687000", "161405.687000", "161405.703000", "161405.703000", "161405.703000", "161405.703000", "161405.703000", "161405.718000", "161405.718000", "161405.718000", "161405.718000", "161405.718000", "161405.718000", "161405.734000", "161405.734000", "161405.734000", "161405.750000", "161405.750000", "161405.750000", "161405.750000", "161405.750000", "161405.750000", "161405.765000", "161505.671000", "161505.671000", "161505.687000", "161505.687000", "161505.687000", "161505.687000", "161505.687000", "161505.687000", "161505.703000", "161505.703000", "161505.703000", "161505.703000", "161505.703000", "161505.703000", "161505.703000", "161505.718000", "161505.718000", "161505.718000", "161505.718000", "161505.718000", "161505.718000", "161505.718000", "161505.734000", "161505.734000", "161505.734000", "161505.734000", "161505.734000", "161505.734000", "161605.671000", "161605.671000", "161605.687000", "161605.687000", "161605.687000", "161605.687000", "161605.687000", "161605.687000", "161605.703000", "161605.703000", "161605.703000", "161605.703000", "161605.703000", "161605.703000", "161605.703000", "161605.718000", "161605.718000", "161605.718000", "161605.718000", "161605.718000", "161605.718000", "161605.718000", "161605.734000", "161605.734000", "161605.734000", "161605.734000", "161605.734000", "161705.671000", "161705.671000", "161705.687000", "161705.687000", "161705.687000", "161705.687000", "161705.687000", "161705.687000", "161705.687000", "161705.703000", "161705.703000", "161705.703000", "161705.703000", "161705.703000", "161705.703000", "161705.718000", "161705.718000", "161705.718000", "161705.718000", "161705.718000", "161705.718000", "161705.718000", "161705.734000", "161705.734000", "161705.734000", "161705.734000", "161705.734000", "161705.734000", "161805.671000", "161805.671000", "161805.687000", "161805.687000", "161805.687000", "161805.687000", "161805.687000", "161805.687000", "161805.687000", "161805.703000", "161805.703000", "161805.703000", "161805.703000", "161805.703000", "161805.703000", "161805.703000", "161805.718000", "161805.718000", "161805.718000", "161805.718000", "161805.718000", "161805.718000", "161805.718000", "161805.734000", "161805.734000", "161805.734000", "161805.734000", "161905.671000", "161905.671000", "161905.687000", "161905.687000", "161905.687000", "161905.687000", "161905.687000", "161905.687000", "161905.687000", "161905.703000", "161905.703000", "161905.703000", "161905.703000", "161905.703000", "161905.703000", "161905.703000", "161905.718000", "161905.718000", "161905.718000", "161905.718000", "161905.718000", "161905.718000", "161905.718000", "161905.734000", "161905.734000", "161905.734000", "161905.734000", "161905.734000", "162005.671000", "162005.671000", "162005.687000", "162005.687000", "162005.687000", "162005.687000", "162005.687000", "162005.687000", "162005.687000", "162005.703000", "162005.703000", "162005.703000", "162005.703000", "162005.703000", "162005.703000", "162005.703000", "162005.718000", "162005.718000", "162005.718000", "162005.718000", "162005.718000", "162005.718000", "162005.734000", "162005.734000", "162005.734000", "162005.734000", "162005.734000", "162105.671000", "162105.671000", "162105.687000", "162105.687000", "162105.687000", "162105.687000", "162105.703000", "162105.703000", "162105.703000", "162105.703000", "162105.703000", "162105.703000", "162105.718000", "162105.718000", "162105.718000", "162105.718000", "162105.718000", "162105.718000", "162105.718000", "162105.734000", "162105.734000", "162105.734000", "162105.734000", "162105.734000", "162105.734000", "162105.734000", "162105.750000", "162205.671000", "162205.671000", "162205.687000", "162205.687000", "162205.687000", "162205.687000", "162205.687000", "162205.687000", "162205.687000", "162205.703000", "162205.703000", "162205.703000", "162205.703000", "162205.703000", "162205.703000", "162205.718000", "162205.718000", "162205.718000", "162205.718000", "162205.718000", "162205.718000", "162205.718000", "162205.734000", "162205.734000", "162205.734000", "162205.734000", "162205.734000", "162205.734000", "162305.671000", "162305.671000", "162305.687000", "162305.687000", "162305.687000", "162305.687000", "162305.687000", "162305.687000", "162305.687000", "162305.703000", "162305.703000", "162305.703000", "162305.703000", "162305.703000", "162305.703000", "162305.703000", "162305.718000", "162305.718000", "162305.718000", "162305.718000", "162305.718000", "162305.718000", "162305.718000", "162305.734000", "162305.734000", "162305.734000", "162305.734000", "162405.671000", "162405.671000", "162405.671000", "162405.671000", "162405.671000", "162405.687000", "162405.687000", "162405.687000", "162405.687000", "162405.687000", "162405.687000", "162405.687000", "162405.703000", "162405.703000", "162405.703000", "162405.703000", "162405.703000", "162405.703000", "162405.703000", "162405.718000", "162405.718000", "162405.718000", "162405.718000", "162405.718000", "162405.718000", "162405.718000", "162405.734000", "162405.734000", "162505.671000", "162505.671000", "162505.671000", "162505.671000", "162505.671000", "162505.687000", "162505.687000", "162505.687000", "162505.687000", "162505.687000", "162505.687000", "162505.687000", "162505.703000", "162505.703000", "162505.703000", "162505.703000", "162505.703000", "162505.703000", "162505.703000", "162505.718000", "162505.718000", "162505.718000", "162505.718000", "162505.718000", "162505.718000", "162505.718000", "162505.734000", "162521.171000", "162521.171000", "162521.171000", "162521.171000", "162521.187000", "162521.187000", "162521.187000", "162521.187000"],
      "DataSetTrailingPadding": [
        "\u0000\u0000\u0000\u0000\u0000\u0000\u0000\u0000\u0000\u0000\u0000\u0000\u0000\u0000\u0000\u0000\u0000\u0000\u0000\u0000\u0000\u0000\u0000\u0000\u0000\u0000\u0000\u0000\u0000\u0000\u0000\u0000\u0000\u0000\u0000\u0000\u0000\u0000\u0000\u0000\u0000\u0000\u0000\u0000\u0000\u0000\u0000\u0000\u0000\u0000\u0000\u0000\u0000\u0000\u0000\u0000\u0000\u0000\u0000\u0000\u0000\u0000\u0000\u0000\u0000\u0000\u0000\u0000\u0000\u0000\u0000\u0000\u0000\u0000\u0000\u0000\u0000\u0000\u0000\u0000\u0000\u0000\u0000\u0000\u0000\u0000\u0000\u0000\u0000\u0000\u0000\u0000\u0000\u0000\u0000\u0000\u0000\u0000\u0000\u0000\u0000\u0000\u0000\u0000\u0000\u0000\u0000\u0000\u0000\u0000\u0000\u0000\u0000\u0000\u0000\u0000\u0000\u0000\u0000\u0000\u0000\u0000\u0000\u0000\u0000\u0000\u0000\u0000\u0000\u0000\u0000\u0000\u0000\u0000\u0000\u0000\u0000\u0000\u0000\u0000\u0000\u0000\u0000\u0000\u0000\u0000\u0000\u0000\u0000\u0000\u0000\u0000\u0000\u0000\u0000\u0000\u0000\u0000\u0000\u0000\u0000\u0000\u0000\u0000\u0000\u0000\u0000\u0000\u0000\u0000\u0000\u0000\u0000\u0000\u0000\u0000\u0000\u0000\u0000\u0000\u0000\u0000\u0000\u0000\u0000\u0000\u0000\u0000\u0000\u0000\u0000\u0000\u0000\u0000\u0000\u0000\u0000\u0000\u0000\u0000\u0000\u0000\u0000\u0000\u0000\u0000\u0000\u0000\u0000\u0000\u0000\u0000\u0000\u0000\u0000\u0000\u0000\u0000\u0000\u0000\u0000\u0000\u0000\u0000\u0000\u0000\u0000\u0000\u0000\u0000\u0000\u0000\u0000\u0000\u0000\u0000\u0000\u0000\u0000\u0000\u0000\u0000\u0000\u0000\u0000\u0000\u0000\u0000\u0000\u0000\u0000\u0000\u0000\u0000\u0000\u0000\u0000\u0000\u0000\u0000\u0000\u0000\u0000\u0000\u0000\u0000\u0000\u0000\u0000\u0000\u0000\u0000\u0000\u0000\u0000\u0000\u0000\u0000\u0000\u0000",
