{
  "AcquisitionMatrixPE": 104,
  "AcquisitionNumber": 1,
  "AcquisitionTime": "15:58:20.757500",
  "BandwidthPerPixelPhaseEncode": 13.935,
  "BaseResolution": 104,
  "CoilString": "C:HEA;HEP",
  "ConversionSoftware": "dcm2niix",
  "ConversionSoftwareVersion": "v1.0.20210317",
  "DerivedVendorReportedEchoSpacing": 0.000690017,
  "DeviceSerialNumber": "35450",
  "DwellTime": 2.5e-06,
  "EchoTime": 0.0348,
  "EffectiveEchoSpacing": 0.000690017,
  "FlipAngle": 55,
  "ImageComments": "Unaliased MB8/PE3",
  "ImageOrientationPatientDICOM": [1, 0, 0, 0, 0.988494, -0.151261],
  "ImageType": [
    "ORIGINAL",
    "PRIMARY",
    "M",
    "MB",
    "ND",
    "MOSAIC"
],
  "ImagingFrequency": 123.235,
  "InPlanePhaseEncodingDirectionDICOM": "COL",
  "InstitutionAddress": "Univeristy Ave. 197,Newark,North East,US,07102-1814",
  "InstitutionName": "RUBIC",
  "InstitutionalDepartmentName": "Department",
  "MRAcquisitionType": "2D",
  "MagneticFieldStrength": 3,
  "Manufacturer": "Siemens",
  "ManufacturersModelName": "TrioTim",
  "Modality": "MR",
  "MultibandAccelerationFactor": 8,
  "PartialFourier": 0.875,
  "PatientPosition": "HFS",
  "PercentPhaseFOV": 100,
  "PercentSampling": 100,
  "PhaseEncodingDirection": "j-",
  "PhaseEncodingSteps": 91,
  "PhaseResolution": 1,
  "PixelBandwidth": 1923,
  "ProcedureStepDescription": "Cole^Michael",
  "ProtocolName": "cmrr_mbep2d_bold_2mm_MB8_Task_8x",
  "PulseSequenceDetails": "%CustomerSeq%\\cmrr_mbep2d_bold",
  "ReceiveCoilName": "32Ch_Head",
  "ReconMatrixPE": 104,
  "RepetitionTime": 0.785,
  "SAR": 0.13775,
  "ScanOptions": "PFP\\FS",
  "ScanningSequence": "EP",
  "SequenceName": "epfid2d1_104",
  "SequenceVariant": "SK\\SS",
  "SeriesDescription": "cmrr_mbep2d_bold_2mm_MB8_Task_8x",
  "SeriesNumber": 19,
  "ShimSetting": [2109, -453, -7245, 237, 132, -465, 97, -67],
  "SliceThickness": 2,
  "SliceTiming": [0, 0.4375, 0.0875, 0.525, 0.175, 0.6125, 0.2625, 0.7, 0.35, 0, 0.4375, 0.0875, 0.525, 0.175, 0.6125, 0.2625, 0.7, 0.35, 0, 0.4375, 0.0875, 0.525, 0.175, 0.6125, 0.2625, 0.7, 0.35, 0, 0.4375, 0.0875, 0.525, 0.175, 0.6125, 0.2625, 0.7, 0.35, 0, 0.4375, 0.0875, 0.525, 0.175, 0.6125, 0.2625, 0.7, 0.35, 0, 0.4375, 0.0875, 0.525, 0.175, 0.6125, 0.2625, 0.7, 0.35, 0, 0.4375, 0.0875, 0.525, 0.175, 0.6125, 0.2625, 0.7, 0.35, 0, 0.4375, 0.0875, 0.525, 0.175, 0.6125, 0.2625, 0.7, 0.35],
  "SoftwareVersions": "syngo MR B19",
  "SpacingBetweenSlices": 2,
  "StationName": "MRC35450",
  "TaskName": "cpro",
  "TotalReadoutTime": 0.0710717,
  "TxRefAmp": 318.521,
  "dcmmeta_affine": [
    [-2.0, 0.0, 0.0, 103.32203674316406],
    [0.0, 1.9769877195358276, -0.30252164602279663, -70.42584228515625],
    [0.0, 0.30252164602279663, 1.9769878387451172, -105.27268981933594],
    [0.0, 0.0, 0.0, 1.0]
],
  "dcmmeta_reorient_transform": [
    [0.0, -1.0, 0.0, 103.0],
    [1.0, 0.0, 0.0, 0.0],
    [0.0, 0.0, 1.0, 0.0],
    [0.0, 0.0, 0.0, 1.0]
],
  "dcmmeta_shape": [104, 104, 72, 581],
  "dcmmeta_slice_dim": 2,
  "dcmmeta_version": 0.6,
  "global": {
    "const": {
      "AcquisitionMatrix": [104, 0, 0, 104],
      "AngioFlag": "N",
      "BitsAllocated": 16,
      "BitsStored": 12,
      "Columns": 936,
      "EchoNumbers": 1,
      "EchoTime": 34.8,
      "EchoTrainLength": 1,
      "FlipAngle": 55.0,
      "HighBit": 11,
      "ImageOrientationPatient": [1.0, 0.0, 0.0, 0.0, 0.98849388683562, -0.1512608200712],
      "ImagePositionPatient": [-935.32203388214, -955.63081366164, 51.736041893284],
      "ImageType": [
        "ORIGINAL",
        "PRIMARY",
        "M",
        "MB",
        "ND",
        "MOSAIC"
],
      "ImagedNucleus": "1H",
      "ImagingFrequency": 123.234627,
      "InPlanePhaseEncodingDirection": "COL",
      "MRAcquisitionType": "2D",
      "MagneticFieldStrength": 3.0,
      "Manufacturer": "SIEMENS",
      "ManufacturerModelName": "TrioTim",
      "Modality": "MR",
      "NumberOfAverages": 1.0,
      "NumberOfPhaseEncodingSteps": 91,
      "PercentPhaseFieldOfView": 100.0,
      "PercentSampling": 100.0,
      "PerformedProcedureStepStartTime": "142132.750000",
      "PhotometricInterpretation": "MONOCHROME2",
      "PixelBandwidth": 1923.0,
      "PixelRepresentation": 0,
      "PixelSpacing": [2.0, 2.0],
      "ProtocolName": "cmrr_mbep2d_bold_2mm_MB8_Task_8x",
      "RepetitionTime": 785.0,
      "Rows": 936,
      "SAR": 0.13774956097681,
      "SamplesPerPixel": 1,
      "ScanOptions": [
        "PFP",
        "FS"
],
      "ScanningSequence": "EP",
      "SequenceName": "epfid2d1_104",
      "SequenceVariant": [
        "SK",
        "SS"
],
      "SeriesDescription": "cmrr_mbep2d_bold_2mm_MB8_Task_8x",
      "SeriesNumber": 19,
      "SeriesTime": "170812.406000",
      "SliceLocation": -93.408739419185,
      "SliceThickness": 2.0,
      "SmallestImagePixelValue": 0,
      "SoftwareVersions": "syngo MR B19",
      "SpacingBetweenSlices": 2.0000000375168,
      "SpecificCharacterSet": "ISO_IR 100",
      "StudyID": "1",
      "StudyTime": "142132.703000",
      "TransmitCoilName": "Body",
      "VariableFlipAngleFlag": "N",
      "WindowCenterWidthExplanation": "Algo1",
      "dBdt": 0.0},
    "slices": {}
  },
  "time": {
    "samples": {
      "AcquisitionNumber": [1, 2, 3, 4, 5, 6, 7, 8, 9, 10, 11, 12, 13, 14, 15, 16, 17, 18, 19, 20, 21, 22, 23, 24, 25, 26, 27, 28, 29, 30, 31, 32, 33, 34, 35, 36, 37, 38, 39, 40, 41, 42, 43, 44, 45, 46, 47, 48, 49, 50, 51, 52, 53, 54, 55, 56, 57, 58, 59, 60, 61, 62, 63, 64, 65, 66, 67, 68, 69, 70, 71, 72, 73, 74, 75, 76, 77, 78, 79, 80, 81, 82, 83, 84, 85, 86, 87, 88, 89, 90, 91, 92, 93, 94, 95, 96, 97, 98, 99, 100, 101, 102, 103, 104, 105, 106, 107, 108, 109, 110, 111, 112, 113, 114, 115, 116, 117, 118, 119, 120, 121, 122, 123, 124, 125, 126, 127, 128, 129, 130, 131, 132, 133, 134, 135, 136, 137, 138, 139, 140, 141, 142, 143, 144, 145, 146, 147, 148, 149, 150, 151, 152, 153, 154, 155, 156, 157, 158, 159, 160, 161, 162, 163, 164, 165, 166, 167, 168, 169, 170, 171, 172, 173, 174, 175, 176, 177, 178, 179, 180, 181, 182, 183, 184, 185, 186, 187, 188, 189, 190, 191, 192, 193, 194, 195, 196, 197, 198, 199, 200, 201, 202, 203, 204, 205, 206, 207, 208, 209, 210, 211, 212, 213, 214, 215, 216, 217, 218, 219, 220, 221, 222, 223, 224, 225, 226, 227, 228, 229, 230, 231, 232, 233, 234, 235, 236, 237, 238, 239, 240, 241, 242, 243, 244, 245, 246, 247, 248, 249, 250, 251, 252, 253, 254, 255, 256, 257, 258, 259, 260, 261, 262, 263, 264, 265, 266, 267, 268, 269, 270, 271, 272, 273, 274, 275, 276, 277, 278, 279, 280, 281, 282, 283, 284, 285, 286, 287, 288, 289, 290, 291, 292, 293, 294, 295, 296, 297, 298, 299, 300, 301, 302, 303, 304, 305, 306, 307, 308, 309, 310, 311, 312, 313, 314, 315, 316, 317, 318, 319, 320, 321, 322, 323, 324, 325, 326, 327, 328, 329, 330, 331, 332, 333, 334, 335, 336, 337, 338, 339, 340, 341, 342, 343, 344, 345, 346, 347, 348, 349, 350, 351, 352, 353, 354, 355, 356, 357, 358, 359, 360, 361, 362, 363, 364, 365, 366, 367, 368, 369, 370, 371, 372, 373, 374, 375, 376, 377, 378, 379, 380, 381, 382, 383, 384, 385, 386, 387, 388, 389, 390, 391, 392, 393, 394, 395, 396, 397, 398, 399, 400, 401, 402, 403, 404, 405, 406, 407, 408, 409, 410, 411, 412, 413, 414, 415, 416, 417, 418, 419, 420, 421, 422, 423, 424, 425, 426, 427, 428, 429, 430, 431, 432, 433, 434, 435, 436, 437, 438, 439, 440, 441, 442, 443, 444, 445, 446, 447, 448, 449, 450, 451, 452, 453, 454, 455, 456, 457, 458, 459, 460, 461, 462, 463, 464, 465, 466, 467, 468, 469, 470, 471, 472, 473, 474, 475, 476, 477, 478, 479, 480, 481, 482, 483, 484, 485, 486, 487, 488, 489, 490, 491, 492, 493, 494, 495, 496, 497, 498, 499, 500, 501, 502, 503, 504, 505, 506, 507, 508, 509, 510, 511, 512, 513, 514, 515, 516, 517, 518, 519, 520, 521, 522, 523, 524, 525, 526, 527, 528, 529, 530, 531, 532, 533, 534, 535, 536, 537, 538, 539, 540, 541, 542, 543, 544, 545, 546, 547, 548, 549, 550, 551, 552, 553, 554, 555, 556, 557, 558, 559, 560, 561, 562, 563, 564, 565, 566, 567, 568, 569, 570, 571, 572, 573, 574, 575, 576, 577, 578, 579, 580, 581],
      "AcquisitionTime": ["155820.757500", "155821.545000", "155822.335000", "155823.122500", "155823.910000", "155824.697500", "155825.487500", "155826.275000", "155827.062500", "155827.850000", "155828.640000", "155829.427500", "155830.215000", "155831.005000", "155831.792500", "155832.580000", "155833.367500", "155834.157500", "155834.945000", "155835.732500", "155836.520000", "155837.310000", "155838.097500", "155838.885000", "155839.672500", "155840.462500", "155841.250000", "155842.037500", "155842.825000", "155843.615000", "155844.402500", "155845.190000", "155845.977500", "155846.767500", "155847.555000", "155848.342500", "155849.132500", "155849.920000", "155850.707500", "155851.495000", "155852.285000", "155853.072500", "155853.860000", "155854.647500", "155855.437500", "155856.225000", "155857.012500", "155857.800000", "155858.590000", "155859.377500", "155900.165000", "155900.952500", "155901.742500", "155902.530000", "155903.317500", "155904.105000", "155904.895000", "155905.682500", "155906.470000", "155907.260000", "155908.047500", "155908.835000", "155909.622500", "155910.412500", "155911.200000", "155911.987500", "155912.775000", "155913.565000", "155914.352500", "155915.140000", "155915.927500", "155916.717500", "155917.505000", "155918.292500", "155919.080000", "155919.870000", "155920.657500", "155921.445000", "155922.232500", "155923.022500", "155923.810000", "155924.597500", "155925.387500", "155926.175000", "155926.962500", "155927.750000", "155928.540000", "155929.327500", "155930.115000", "155930.902500", "155931.692500", "155932.480000", "155933.267500", "155934.055000", "155934.845000", "155935.632500", "155936.420000", "155937.207500", "155937.997500", "155938.785000", "155939.572500", "155940.360000", "155941.150000", "155941.937500", "155942.725000", "155943.515000", "155944.302500", "155945.090000", "155945.877500", "155946.667500", "155947.455000", "155948.242500", "155949.030000", "155949.820000", "155950.607500", "155951.395000", "155952.182500", "155952.972500", "155953.760000", "155954.547500", "155955.335000", "155956.125000", "155956.912500", "155957.700000", "155958.487500", "155959.277500", "160000.065000", "160000.852500", "160001.642500", "160002.430000", "160003.217500", "160004.005000", "160004.795000", "160005.582500", "160006.370000", "160007.157500", "160007.947500", "160008.735000", "160009.522500", "160010.310000", "160011.100000", "160011.887500", "160012.675000", "160013.462500", "160014.252500", "160015.040000", "160015.827500", "160016.615000", "160017.405000", "160018.192500", "160018.980000", "160019.770000", "160020.557500", "160021.345000", "160022.132500", "160022.922500", "160023.710000", "160024.497500", "160025.285000", "160026.075000", "160026.862500", "160027.650000", "160028.437500", "160029.227500", "160030.015000", "160030.802500", "160031.590000", "160032.380000", "160033.167500", "160033.955000", "160034.742500", "160035.532500", "160036.320000", "160037.107500", "160037.897500", "160038.685000", "160039.472500", "160040.260000", "160041.050000", "160041.837500", "160042.625000", "160043.412500", "160044.202500", "160044.990000", "160045.777500", "160046.565000", "160047.355000", "160048.142500", "160048.930000", "160049.717500", "160050.507500", "160051.295000", "160052.082500", "160052.870000", "160053.660000", "160054.447500", "160055.235000", "160056.025000", "160056.812500", "160057.600000", "160058.387500", "160059.177500", "160059.965000", "160100.752500", "160101.540000", "160102.330000", "160103.117500", "160103.905000", "160104.692500", "160105.482500", "160106.270000", "160107.057500", "160107.845000", "160108.635000", "160109.422500", "160110.210000", "160110.997500", "160111.787500", "160112.575000", "160113.362500", "160114.152500", "160114.940000", "160115.727500", "160116.515000", "160117.305000", "160118.092500", "160118.880000", "160119.667500", "160120.457500", "160121.245000", "160122.032500", "160122.820000", "160123.610000", "160124.397500", "160125.185000", "160125.972500", "160126.762500", "160127.550000", "160128.337500", "160129.125000", "160129.915000", "160130.702500", "160131.490000", "160132.280000", "160133.067500", "160133.855000", "160134.642500", "160135.432500", "160136.220000", "160137.007500", "160137.795000", "160138.585000", "160139.372500", "160140.160000", "160140.947500", "160141.737500", "160142.525000", "160143.312500", "160144.100000", "160144.890000", "160145.677500", "160146.465000", "160147.255000", "160148.042500", "160148.830000", "160149.617500", "160150.407500", "160151.195000", "160151.982500", "160152.770000", "160153.560000", "160154.347500", "160155.135000", "160155.922500", "160156.712500", "160157.500000", "160158.287500", "160159.075000", "160159.865000", "160200.652500", "160201.440000", "160202.227500", "160203.017500", "160203.805000", "160204.592500", "160205.382500", "160206.170000", "160206.957500", "160207.745000", "160208.535000", "160209.322500", "160210.110000", "160210.897500", "160211.687500", "160212.475000", "160213.262500", "160214.050000", "160214.840000", "160215.627500", "160216.415000", "160217.202500", "160217.992500", "160218.780000", "160219.567500", "160220.355000", "160221.145000", "160221.932500", "160222.720000", "160223.510000", "160224.297500", "160225.085000", "160225.872500", "160226.662500", "160227.450000", "160228.237500", "160229.025000", "160229.815000", "160230.602500", "160231.390000", "160232.177500", "160232.967500", "160233.755000", "160234.542500", "160235.330000", "160236.120000", "160236.907500", "160237.695000", "160238.482500", "160239.272500", "160240.060000", "160240.847500", "160241.637500", "160242.425000", "160243.212500", "160244.000000", "160244.790000", "160245.577500", "160246.365000", "160247.152500", "160247.942500", "160248.730000", "160249.517500", "160250.305000", "160251.095000", "160251.882500", "160252.670000", "160253.457500", "160254.247500", "160255.035000", "160255.822500", "160256.610000", "160257.400000", "160258.187500", "160258.975000", "160259.765000", "160300.552500", "160301.340000", "160302.127500", "160302.917500", "160303.705000", "160304.492500", "160305.280000", "160306.070000", "160306.857500", "160307.645000", "160308.432500", "160309.222500", "160310.010000", "160310.797500", "160311.585000", "160312.375000", "160313.162500", "160313.950000", "160314.737500", "160315.527500", "160316.315000", "160317.102500", "160317.892500", "160318.680000", "160319.467500", "160320.255000", "160321.045000", "160321.832500", "160322.620000", "160323.407500", "160324.197500", "160324.985000", "160325.772500", "160326.560000", "160327.350000", "160328.137500", "160328.925000", "160329.712500", "160330.502500", "160331.290000", "160332.077500", "160332.865000", "160333.655000", "160334.442500", "160335.230000", "160336.020000", "160336.807500", "160337.595000", "160338.382500", "160339.172500", "160339.960000", "160340.747500", "160341.535000", "160342.325000", "160343.112500", "160343.900000", "160344.687500", "160345.477500", "160346.265000", "160347.052500", "160347.840000", "160348.630000", "160349.417500", "160350.205000", "160350.992500", "160351.782500", "160352.570000", "160353.357500", "160354.147500", "160354.935000", "160355.722500", "160356.510000", "160357.300000", "160358.087500", "160358.875000", "160359.662500", "160400.452500", "160401.240000", "160402.027500", "160402.815000", "160403.605000", "160404.392500", "160405.180000", "160405.967500", "160406.757500", "160407.545000", "160408.332500", "160409.120000", "160409.910000", "160410.697500", "160411.485000", "160412.275000", "160413.062500", "160413.850000", "160414.637500", "160415.427500", "160416.215000", "160417.002500", "160417.790000", "160418.580000", "160419.367500", "160420.155000", "160420.942500", "160421.732500", "160422.520000", "160423.307500", "160424.095000", "160424.885000", "160425.672500", "160426.460000", "160427.247500", "160428.037500", "160428.825000", "160429.612500", "160430.402500", "160431.190000", "160431.977500", "160432.765000", "160433.555000", "160434.342500", "160435.130000", "160435.917500", "160436.707500", "160437.495000", "160438.282500", "160439.070000", "160439.860000", "160440.647500", "160441.435000", "160442.222500", "160443.012500", "160443.800000", "160444.587500", "160445.375000", "160446.165000", "160446.952500", "160447.740000", "160448.530000", "160449.317500", "160450.105000", "160450.892500", "160451.682500", "160452.470000", "160453.257500", "160454.045000", "160454.835000", "160455.622500", "160456.410000", "160457.197500", "160457.987500", "160458.775000", "160459.562500", "160500.350000", "160501.140000", "160501.927500", "160502.715000", "160503.505000", "160504.292500", "160505.080000", "160505.867500", "160506.657500", "160507.445000", "160508.232500", "160509.020000", "160509.810000", "160510.597500", "160511.385000", "160512.172500", "160512.962500", "160513.750000", "160514.537500", "160515.325000", "160516.115000", "160516.902500", "160517.690000", "160518.477500", "160519.267500", "160520.055000", "160520.842500", "160521.632500", "160522.420000", "160523.207500", "160523.995000", "160524.785000", "160525.572500", "160526.360000", "160527.147500", "160527.937500", "160528.725000", "160529.512500", "160530.300000", "160531.090000", "160531.877500", "160532.665000", "160533.452500", "160534.242500", "160535.030000", "160535.817500", "160536.605000", "160537.395000", "160538.182500", "160538.970000", "160539.760000", "160540.547500", "160541.335000", "160542.122500", "160542.912500", "160543.700000", "160544.487500", "160545.275000", "160546.065000", "160546.852500", "160547.640000", "160548.427500", "160549.217500", "160550.005000", "160550.792500", "160551.580000", "160552.370000", "160553.157500", "160553.945000", "160554.732500", "160555.522500", "160556.310000", "160557.097500", "160557.887500"],
      "ContentTime": ["170812.421000", "170812.421000", "170812.421000", "170812.421000", "170812.421000", "170812.421000", "170812.421000", "170812.437000", "170812.437000", "170812.437000", "170912.390000", "170912.390000", "170912.390000", "170912.390000", "170912.390000", "170912.390000", "170912.390000", "170912.406000", "170912.406000", "170912.406000", "170912.406000", "170912.406000", "170912.406000", "170912.406000", "170912.421000", "170912.421000", "170912.421000", "170912.421000", "170912.421000", "170912.437000", "170912.437000", "170912.437000", "170912.437000", "170912.437000", "170912.437000", "170912.437000", "170912.437000", "170912.453000", "171012.390000", "171012.390000", "171012.390000", "171012.390000", "171012.390000", "171012.390000", "171012.406000", "171012.406000", "171012.406000", "171012.406000", "171012.406000", "171012.406000", "171012.421000", "171012.421000", "171012.421000", "171012.421000", "171012.421000", "171012.421000", "171012.421000", "171012.437000", "171012.437000", "171012.437000", "171012.437000", "171012.437000", "171012.437000", "171012.437000", "171012.437000", "171012.453000", "171112.390000", "171112.390000", "171112.390000", "171112.390000", "171112.390000", "171112.390000", "171112.390000", "171112.406000", "171112.406000", "171112.406000", "171112.406000", "171112.406000", "171112.406000", "171112.406000", "171112.421000", "171112.421000", "171112.421000", "171112.421000", "171112.421000", "171112.421000", "171112.437000", "171112.437000", "171112.437000", "171112.437000", "171112.437000", "171112.437000", "171112.437000", "171112.453000", "171112.453000", "171212.390000", "171212.390000", "171212.390000", "171212.390000", "171212.390000", "171212.390000", "171212.390000", "171212.406000", "171212.406000", "171212.406000", "171212.406000", "171212.406000", "171212.406000", "171212.406000", "171212.421000", "171212.421000", "171212.421000", "171212.421000", "171212.421000", "171212.421000", "171212.421000", "171212.437000", "171212.437000", "171212.437000", "171212.437000", "171212.437000", "171212.437000", "171212.437000", "171312.390000", "171312.390000", "171312.390000", "171312.390000", "171312.390000", "171312.390000", "171312.390000", "171312.406000", "171312.406000", "171312.406000", "171312.406000", "171312.406000", "171312.406000", "171312.406000", "171312.421000", "171312.421000", "171312.421000", "171312.421000", "171312.421000", "171312.421000", "171312.421000", "171312.437000", "171312.437000", "171312.437000", "171312.437000", "171312.437000", "171312.437000", "171312.437000", "171412.390000", "171412.390000", "171412.390000", "171412.390000", "171412.390000", "171412.390000", "171412.390000", "171412.406000", "171412.406000", "171412.406000", "171412.406000", "171412.406000", "171412.406000", "171412.406000", "171412.421000", "171412.421000", "171412.421000", "171412.421000", "171412.421000", "171412.421000", "171412.421000", "171412.437000", "171412.437000", "171412.437000", "171412.437000", "171412.453000", "171412.453000", "171412.453000", "171512.390000", "171512.390000", "171512.390000", "171512.390000", "171512.390000", "171512.390000", "171512.390000", "171512.406000", "171512.406000", "171512.406000", "171512.406000", "171512.406000", "171512.406000", "171512.406000", "171512.421000", "171512.421000", "171512.421000", "171512.421000", "171512.421000", "171512.421000", "171512.421000", "171512.437000", "171512.437000", "171512.437000", "171512.437000", "171512.437000", "171512.437000", "171512.453000", "171612.390000", "171612.390000", "171612.390000", "171612.390000", "171612.390000", "171612.390000", "171612.390000", "171612.406000", "171612.406000", "171612.406000", "171612.406000", "171612.406000", "171612.406000", "171612.406000", "171612.421000", "171612.421000", "171612.421000", "171612.421000", "171612.421000", "171612.421000", "171612.421000", "171612.437000", "171612.437000", "171612.437000", "171612.437000", "171612.437000", "171612.437000", "171612.437000", "171612.453000", "171712.390000", "171712.390000", "171712.390000", "171712.390000", "171712.390000", "171712.390000", "171712.390000", "171712.406000", "171712.406000", "171712.406000", "171712.406000", "171712.406000", "171712.406000", "171712.406000", "171712.421000", "171712.421000", "171712.421000", "171712.421000", "171712.421000", "171712.421000", "171712.421000", "171712.437000", "171712.437000", "171712.437000", "171712.437000", "171712.437000", "171712.437000", "171712.453000", "171812.390000", "171812.390000", "171812.390000", "171812.390000", "171812.390000", "171812.390000", "171812.390000", "171812.406000", "171812.406000", "171812.406000", "171812.406000", "171812.406000", "171812.406000", "171812.421000", "171812.421000", "171812.421000", "171812.421000", "171812.421000", "171812.421000", "171812.421000", "171812.437000", "171812.437000", "171812.437000", "171812.437000", "171812.437000", "171812.453000", "171812.453000", "171812.453000", "171832.390000", "171832.390000", "171832.390000", "171832.390000", "171832.390000", "171832.390000", "171832.390000", "171832.406000", "171832.406000", "171932.390000", "171932.390000", "171932.390000", "171932.390000", "171932.390000", "171932.390000", "171932.406000", "171932.406000", "171932.406000", "171932.406000", "171932.406000", "171932.406000", "171932.406000", "171932.421000", "171932.421000", "171932.421000", "171932.421000", "171932.421000", "171932.421000", "171932.437000", "171932.437000", "171932.437000", "171932.437000", "171932.437000", "171932.437000", "171932.437000", "171932.453000", "171932.453000", "171932.453000", "172032.390000", "172032.390000", "172032.390000", "172032.390000", "172032.390000", "172032.390000", "172032.406000", "172032.406000", "172032.406000", "172032.406000", "172032.406000", "172032.406000", "172032.406000", "172032.421000", "172032.421000", "172032.421000", "172032.421000", "172032.421000", "172032.421000", "172032.437000", "172032.437000", "172032.437000", "172032.437000", "172032.437000", "172032.437000", "172032.453000", "172032.453000", "172032.453000", "172132.390000", "172132.390000", "172132.390000", "172132.390000", "172132.390000", "172132.390000", "172132.406000", "172132.406000", "172132.406000", "172132.406000", "172132.406000", "172132.406000", "172132.406000", "172132.421000", "172132.421000", "172132.421000", "172132.421000", "172132.421000", "172132.421000", "172132.421000", "172132.437000", "172132.437000", "172132.437000", "172132.437000", "172132.437000", "172132.437000", "172132.437000", "172132.453000", "172232.390000", "172232.390000", "172232.390000", "172232.390000", "172232.390000", "172232.390000", "172232.406000", "172232.406000", "172232.406000", "172232.406000", "172232.406000", "172232.406000", "172232.406000", "172232.421000", "172232.421000", "172232.421000", "172232.421000", "172232.421000", "172232.421000", "172232.421000", "172232.437000", "172232.437000", "172232.437000", "172232.437000", "172232.437000", "172232.437000", "172232.437000", "172232.453000", "172332.390000", "172332.390000", "172332.390000", "172332.390000", "172332.390000", "172332.406000", "172332.406000", "172332.406000", "172332.406000", "172332.406000", "172332.406000", "172332.421000", "172332.421000", "172332.421000", "172332.421000", "172332.421000", "172332.421000", "172332.421000", "172332.437000", "172332.437000", "172332.437000", "172332.437000", "172332.437000", "172332.437000", "172332.437000", "172332.453000", "172332.453000", "172332.453000", "172432.390000", "172432.390000", "172432.390000", "172432.390000", "172432.390000", "172432.406000", "172432.406000", "172432.406000", "172432.406000", "172432.406000", "172432.421000", "172432.421000", "172432.421000", "172432.421000", "172432.421000", "172432.421000", "172432.421000", "172432.437000", "172432.437000", "172432.437000", "172432.437000", "172432.437000", "172432.437000", "172432.437000", "172432.453000", "172432.453000", "172432.453000", "172432.453000", "172532.390000", "172532.390000", "172532.390000", "172532.390000", "172532.390000", "172532.390000", "172532.406000", "172532.406000", "172532.406000", "172532.406000", "172532.406000", "172532.406000", "172532.406000", "172532.421000", "172532.421000", "172532.421000", "172532.421000", "172532.421000", "172532.421000", "172532.421000", "172532.437000", "172532.437000", "172532.437000", "172532.437000", "172532.437000", "172532.437000", "172532.437000", "172532.453000", "172532.453000", "172632.390000", "172632.390000", "172632.390000", "172632.390000", "172632.390000", "172632.390000", "172632.390000", "172632.406000", "172632.406000", "172632.406000", "172632.406000", "172632.406000", "172632.406000", "172632.406000", "172632.421000", "172632.421000", "172632.421000", "172632.421000", "172632.421000", "172632.421000", "172632.437000", "172632.437000", "172632.437000", "172632.437000", "172632.437000", "172632.453000", "172632.453000", "172632.453000", "172732.390000", "172732.390000", "172732.390000", "172732.390000", "172732.390000", "172732.390000", "172732.390000", "172732.406000", "172732.406000", "172732.406000", "172732.406000", "172732.406000", "172732.406000", "172732.406000", "172732.421000", "172732.421000", "172732.421000", "172732.421000", "172732.421000", "172732.421000", "172732.437000", "172732.437000", "172732.437000", "172732.437000", "172732.437000", "172732.437000", "172732.437000", "172732.453000", "172825.531000", "172825.531000", "172825.531000", "172825.531000", "172825.531000", "172825.546000", "172825.546000", "172825.546000", "172825.546000", "172825.546000", "172825.546000", "172825.546000", "172825.562000", "172825.562000", "172825.562000", "172825.562000", "172825.562000", "172825.562000", "172825.578000", "172825.578000", "172825.578000", "172825.578000", "172825.578000", "172825.578000", "172825.593000", "172825.593000"],
      "DataSetTrailingPadding": [
        "\u0000\u0000\u0000\u0000\u0000\u0000\u0000\u0000\u0000\u0000\u0000\u0000\u0000\u0000\u0000\u0000\u0000\u0000\u0000\u0000\u0000\u0000\u0000\u0000\u0000\u0000\u0000\u0000\u0000\u0000\u0000\u0000\u0000\u0000\u0000\u0000\u0000\u0000\u0000\u0000\u0000\u0000\u0000\u0000\u0000\u0000\u0000\u0000\u0000\u0000\u0000\u0000\u0000\u0000\u0000\u0000\u0000\u0000\u0000\u0000\u0000\u0000\u0000\u0000\u0000\u0000\u0000\u0000\u0000\u0000\u0000\u0000\u0000\u0000\u0000\u0000\u0000\u0000\u0000\u0000\u0000\u0000\u0000\u0000\u0000\u0000\u0000\u0000\u0000\u0000\u0000\u0000\u0000\u0000\u0000\u0000\u0000\u0000\u0000\u0000\u0000\u0000\u0000\u0000\u0000\u0000\u0000\u0000\u0000\u0000\u0000\u0000\u0000\u0000\u0000\u0000\u0000\u0000\u0000\u0000\u0000\u0000\u0000\u0000\u0000\u0000\u0000\u0000\u0000\u0000\u0000\u0000\u0000\u0000\u0000\u0000\u0000\u0000\u0000\u0000\u0000\u0000\u0000\u0000\u0000\u0000\u0000\u0000\u0000\u0000\u0000\u0000\u0000\u0000\u0000\u0000\u0000\u0000\u0000\u0000\u0000\u0000\u0000\u0000\u0000\u0000\u0000\u0000\u0000\u0000\u0000\u0000\u0000\u0000\u0000\u0000\u0000\u0000\u0000\u0000\u0000\u0000\u0000\u0000\u0000\u0000\u0000\u0000\u0000\u0000\u0000\u0000\u0000\u0000\u0000\u0000\u0000\u0000\u0000\u0000\u0000\u0000\u0000\u0000\u0000\u0000\u0000\u0000\u0000\u0000\u0000\u0000\u0000\u0000\u0000\u0000\u0000\u0000\u0000\u0000\u0000\u0000\u0000\u0000\u0000\u0000\u0000\u0000\u0000\u0000\u0000\u0000\u0000\u0000\u0000\u0000\u0000\u0000\u0000\u0000\u0000\u0000\u0000\u0000\u0000\u0000\u0000\u0000\u0000\u0000\u0000\u0000\u0000\u0000\u0000\u0000\u0000\u0000\u0000\u0000\u0000\u0000\u0000\u0000\u0000\u0000\u0000\u0000\u0000\u0000\u0000\u0000\u0000\u0000\u0000\u0000\u0000\u0000\u0000\u0000",
