{
  "AcquisitionMatrixPE": 104,
  "AcquisitionNumber": 1,
  "AcquisitionTime": "16:06:23.705000",
  "BandwidthPerPixelPhaseEncode": 13.935,
  "BaseResolution": 104,
  "CoilString": "C:HEA;HEP",
  "ConversionSoftware": "dcm2niix",
  "ConversionSoftwareVersion": "v1.0.20210317",
  "DerivedVendorReportedEchoSpacing": 0.000690017,
  "DeviceSerialNumber": "35450",
  "DwellTime": 2.5e-06,
  "EchoTime": 0.0348,
  "EffectiveEchoSpacing": 0.000690017,
  "FlipAngle": 55,
  "ImageComments": "Unaliased MB8/PE3",
  "ImageOrientationPatientDICOM": [1, 0, 0, 0, 0.988494, -0.151261],
  "ImageType": [
    "ORIGINAL",
    "PRIMARY",
    "M",
    "MB",
    "ND",
    "MOSAIC"
],
  "ImagingFrequency": 123.235,
  "InPlanePhaseEncodingDirectionDICOM": "COL",
  "InstitutionAddress": "Univeristy Ave. 197,Newark,North East,US,07102-1814",
  "InstitutionName": "RUBIC",
  "InstitutionalDepartmentName": "Department",
  "MRAcquisitionType": "2D",
  "MagneticFieldStrength": 3,
  "Manufacturer": "Siemens",
  "ManufacturersModelName": "TrioTim",
  "Modality": "MR",
  "MultibandAccelerationFactor": 8,
  "PartialFourier": 0.875,
  "PatientPosition": "HFS",
  "PercentPhaseFOV": 100,
  "PercentSampling": 100,
  "PhaseEncodingDirection": "j-",
  "PhaseEncodingSteps": 91,
  "PhaseResolution": 1,
  "PixelBandwidth": 1923,
  "ProcedureStepDescription": "Cole^Michael",
  "ProtocolName": "cmrr_mbep2d_bold_2mm_MB8_Task_8x",
  "PulseSequenceDetails": "%CustomerSeq%\\cmrr_mbep2d_bold",
  "ReceiveCoilName": "32Ch_Head",
  "ReconMatrixPE": 104,
  "RepetitionTime": 0.785,
  "SAR": 0.13775,
  "ScanOptions": "PFP\\FS",
  "ScanningSequence": "EP",
  "SequenceName": "epfid2d1_104",
  "SequenceVariant": "SK\\SS",
  "SeriesDescription": "cmrr_mbep2d_bold_2mm_MB8_Task_8x",
  "SeriesNumber": 21,
  "ShimSetting": [2109, -453, -7245, 237, 132, -465, 97, -67],
  "SliceThickness": 2,
  "SliceTiming": [0, 0.44, 0.0875, 0.5275, 0.175, 0.615, 0.265, 0.7025, 0.3525, 0, 0.44, 0.0875, 0.5275, 0.175, 0.615, 0.265, 0.7025, 0.3525, 0, 0.44, 0.0875, 0.5275, 0.175, 0.615, 0.265, 0.7025, 0.3525, 0, 0.44, 0.0875, 0.5275, 0.175, 0.615, 0.265, 0.7025, 0.3525, 0, 0.44, 0.0875, 0.5275, 0.175, 0.615, 0.265, 0.7025, 0.3525, 0, 0.44, 0.0875, 0.5275, 0.175, 0.615, 0.265, 0.7025, 0.3525, 0, 0.44, 0.0875, 0.5275, 0.175, 0.615, 0.265, 0.7025, 0.3525, 0, 0.44, 0.0875, 0.5275, 0.175, 0.615, 0.265, 0.7025, 0.3525],
  "SoftwareVersions": "syngo MR B19",
  "SpacingBetweenSlices": 2,
  "StationName": "MRC35450",
  "TaskName": "cpro",
  "TotalReadoutTime": 0.0710717,
  "TxRefAmp": 318.521,
  "dcmmeta_affine": [
    [-2.0, 0.0, 0.0, 103.32203674316406],
    [0.0, 1.9769877195358276, -0.30252164602279663, -70.42584228515625],
    [0.0, 0.30252164602279663, 1.9769878387451172, -105.27268981933594],
    [0.0, 0.0, 0.0, 1.0]
],
  "dcmmeta_reorient_transform": [
    [0.0, -1.0, 0.0, 103.0],
    [1.0, 0.0, 0.0, 0.0],
    [0.0, 0.0, 1.0, 0.0],
    [0.0, 0.0, 0.0, 1.0]
],
  "dcmmeta_shape": [104, 104, 72, 581],
  "dcmmeta_slice_dim": 2,
  "dcmmeta_version": 0.6,
  "global": {
    "const": {
      "AcquisitionMatrix": [104, 0, 0, 104],
      "AngioFlag": "N",
      "BitsAllocated": 16,
      "BitsStored": 12,
      "Columns": 936,
      "EchoNumbers": 1,
      "EchoTime": 34.8,
      "EchoTrainLength": 1,
      "FlipAngle": 55.0,
      "HighBit": 11,
      "ImageOrientationPatient": [1.0, 0.0, 0.0, 0.0, 0.98849388683562, -0.1512608200712],
      "ImagePositionPatient": [-935.32203388214, -955.63081366164, 51.736041893284],
      "ImageType": [
        "ORIGINAL",
        "PRIMARY",
        "M",
        "MB",
        "ND",
        "MOSAIC"
],
      "ImagedNucleus": "1H",
      "ImagingFrequency": 123.234627,
      "InPlanePhaseEncodingDirection": "COL",
      "MRAcquisitionType": "2D",
      "MagneticFieldStrength": 3.0,
      "Manufacturer": "SIEMENS",
      "ManufacturerModelName": "TrioTim",
      "Modality": "MR",
      "NumberOfAverages": 1.0,
      "NumberOfPhaseEncodingSteps": 91,
      "PercentPhaseFieldOfView": 100.0,
      "PercentSampling": 100.0,
      "PerformedProcedureStepStartTime": "142132.750000",
      "PhotometricInterpretation": "MONOCHROME2",
      "PixelBandwidth": 1923.0,
      "PixelRepresentation": 0,
      "PixelSpacing": [2.0, 2.0],
      "ProtocolName": "cmrr_mbep2d_bold_2mm_MB8_Task_8x",
      "RepetitionTime": 785.0,
      "Rows": 936,
      "SAR": 0.13774956097681,
      "SamplesPerPixel": 1,
      "ScanOptions": [
        "PFP",
        "FS"
],
      "ScanningSequence": "EP",
      "SequenceName": "epfid2d1_104",
      "SequenceVariant": [
        "SK",
        "SS"
],
      "SeriesDescription": "cmrr_mbep2d_bold_2mm_MB8_Task_8x",
      "SeriesNumber": 21,
      "SeriesTime": "172854.828000",
      "SliceLocation": -93.408739419185,
      "SliceThickness": 2.0,
      "SmallestImagePixelValue": 0,
      "SoftwareVersions": "syngo MR B19",
      "SpacingBetweenSlices": 2.0000000375168,
      "SpecificCharacterSet": "ISO_IR 100",
      "StudyID": "1",
      "StudyTime": "142132.703000",
      "TransmitCoilName": "Body",
      "VariableFlipAngleFlag": "N",
      "WindowCenterWidthExplanation": "Algo1",
      "dBdt": 0.0},
    "slices": {}
  },
  "time": {
    "samples": {
      "AcquisitionNumber": [1, 2, 3, 4, 5, 6, 7, 8, 9, 10, 11, 12, 13, 14, 15, 16, 17, 18, 19, 20, 21, 22, 23, 24, 25, 26, 27, 28, 29, 30, 31, 32, 33, 34, 35, 36, 37, 38, 39, 40, 41, 42, 43, 44, 45, 46, 47, 48, 49, 50, 51, 52, 53, 54, 55, 56, 57, 58, 59, 60, 61, 62, 63, 64, 65, 66, 67, 68, 69, 70, 71, 72, 73, 74, 75, 76, 77, 78, 79, 80, 81, 82, 83, 84, 85, 86, 87, 88, 89, 90, 91, 92, 93, 94, 95, 96, 97, 98, 99, 100, 101, 102, 103, 104, 105, 106, 107, 108, 109, 110, 111, 112, 113, 114, 115, 116, 117, 118, 119, 120, 121, 122, 123, 124, 125, 126, 127, 128, 129, 130, 131, 132, 133, 134, 135, 136, 137, 138, 139, 140, 141, 142, 143, 144, 145, 146, 147, 148, 149, 150, 151, 152, 153, 154, 155, 156, 157, 158, 159, 160, 161, 162, 163, 164, 165, 166, 167, 168, 169, 170, 171, 172, 173, 174, 175, 176, 177, 178, 179, 180, 181, 182, 183, 184, 185, 186, 187, 188, 189, 190, 191, 192, 193, 194, 195, 196, 197, 198, 199, 200, 201, 202, 203, 204, 205, 206, 207, 208, 209, 210, 211, 212, 213, 214, 215, 216, 217, 218, 219, 220, 221, 222, 223, 224, 225, 226, 227, 228, 229, 230, 231, 232, 233, 234, 235, 236, 237, 238, 239, 240, 241, 242, 243, 244, 245, 246, 247, 248, 249, 250, 251, 252, 253, 254, 255, 256, 257, 258, 259, 260, 261, 262, 263, 264, 265, 266, 267, 268, 269, 270, 271, 272, 273, 274, 275, 276, 277, 278, 279, 280, 281, 282, 283, 284, 285, 286, 287, 288, 289, 290, 291, 292, 293, 294, 295, 296, 297, 298, 299, 300, 301, 302, 303, 304, 305, 306, 307, 308, 309, 310, 311, 312, 313, 314, 315, 316, 317, 318, 319, 320, 321, 322, 323, 324, 325, 326, 327, 328, 329, 330, 331, 332, 333, 334, 335, 336, 337, 338, 339, 340, 341, 342, 343, 344, 345, 346, 347, 348, 349, 350, 351, 352, 353, 354, 355, 356, 357, 358, 359, 360, 361, 362, 363, 364, 365, 366, 367, 368, 369, 370, 371, 372, 373, 374, 375, 376, 377, 378, 379, 380, 381, 382, 383, 384, 385, 386, 387, 388, 389, 390, 391, 392, 393, 394, 395, 396, 397, 398, 399, 400, 401, 402, 403, 404, 405, 406, 407, 408, 409, 410, 411, 412, 413, 414, 415, 416, 417, 418, 419, 420, 421, 422, 423, 424, 425, 426, 427, 428, 429, 430, 431, 432, 433, 434, 435, 436, 437, 438, 439, 440, 441, 442, 443, 444, 445, 446, 447, 448, 449, 450, 451, 452, 453, 454, 455, 456, 457, 458, 459, 460, 461, 462, 463, 464, 465, 466, 467, 468, 469, 470, 471, 472, 473, 474, 475, 476, 477, 478, 479, 480, 481, 482, 483, 484, 485, 486, 487, 488, 489, 490, 491, 492, 493, 494, 495, 496, 497, 498, 499, 500, 501, 502, 503, 504, 505, 506, 507, 508, 509, 510, 511, 512, 513, 514, 515, 516, 517, 518, 519, 520, 521, 522, 523, 524, 525, 526, 527, 528, 529, 530, 531, 532, 533, 534, 535, 536, 537, 538, 539, 540, 541, 542, 543, 544, 545, 546, 547, 548, 549, 550, 551, 552, 553, 554, 555, 556, 557, 558, 559, 560, 561, 562, 563, 564, 565, 566, 567, 568, 569, 570, 571, 572, 573, 574, 575, 576, 577, 578, 579, 580, 581],
      "AcquisitionTime": ["160623.705000", "160624.495000", "160625.282500", "160626.070000", "160626.860000", "160627.647500", "160628.435000", "160629.222500", "160630.012500", "160630.800000", "160631.587500", "160632.375000", "160633.165000", "160633.952500", "160634.740000", "160635.527500", "160636.317500", "160637.105000", "160637.892500", "160638.680000", "160639.470000", "160640.257500", "160641.045000", "160641.832500", "160642.622500", "160643.410000", "160644.197500", "160644.987500", "160645.775000", "160646.562500", "160647.350000", "160648.140000", "160648.927500", "160649.715000", "160650.502500", "160651.292500", "160652.080000", "160652.867500", "160653.655000", "160654.445000", "160655.232500", "160656.020000", "160656.807500", "160657.597500", "160658.385000", "160659.172500", "160659.960000", "160700.750000", "160701.537500", "160702.325000", "160703.115000", "160703.902500", "160704.690000", "160705.477500", "160706.267500", "160707.055000", "160707.842500", "160708.630000", "160709.420000", "160710.207500", "160710.995000", "160711.782500", "160712.572500", "160713.360000", "160714.147500", "160714.935000", "160715.725000", "160716.512500", "160717.300000", "160718.087500", "160718.877500", "160719.665000", "160720.452500", "160721.242500", "160722.030000", "160722.817500", "160723.605000", "160724.395000", "160725.182500", "160725.970000", "160726.757500", "160727.547500", "160728.335000", "160729.122500", "160729.910000", "160730.700000", "160731.487500", "160732.275000", "160733.062500", "160733.852500", "160734.640000", "160735.427500", "160736.215000", "160737.005000", "160737.792500", "160738.580000", "160739.370000", "160740.157500", "160740.945000", "160741.732500", "160742.522500", "160743.310000", "160744.097500", "160744.885000", "160745.675000", "160746.462500", "160747.250000", "160748.037500", "160748.827500", "160749.615000", "160750.402500", "160751.190000", "160751.980000", "160752.767500", "160753.555000", "160754.342500", "160755.132500", "160755.920000", "160756.707500", "160757.497500", "160758.285000", "160759.072500", "160759.860000", "160800.650000", "160801.437500", "160802.225000", "160803.012500", "160803.802500", "160804.590000", "160805.377500", "160806.165000", "160806.955000", "160807.742500", "160808.530000", "160809.317500", "160810.107500", "160810.895000", "160811.682500", "160812.470000", "160813.260000", "160814.047500", "160814.835000", "160815.625000", "160816.412500", "160817.200000", "160817.987500", "160818.777500", "160819.565000", "160820.352500", "160821.140000", "160821.930000", "160822.717500", "160823.505000", "160824.292500", "160825.082500", "160825.870000", "160826.657500", "160827.445000", "160828.235000", "160829.022500", "160829.810000", "160830.600000", "160831.387500", "160832.175000", "160832.962500", "160833.752500", "160834.540000", "160835.327500", "160836.115000", "160836.905000", "160837.692500", "160838.480000", "160839.267500", "160840.057500", "160840.845000", "160841.632500", "160842.420000", "160843.210000", "160843.997500", "160844.785000", "160845.572500", "160846.362500", "160847.150000", "160847.937500", "160848.727500", "160849.515000", "160850.302500", "160851.090000", "160851.880000", "160852.667500", "160853.455000", "160854.242500", "160855.032500", "160855.820000", "160856.607500", "160857.395000", "160858.185000", "160858.972500", "160859.760000", "160900.547500", "160901.337500", "160902.125000", "160902.912500", "160903.700000", "160904.490000", "160905.277500", "160906.065000", "160906.855000", "160907.642500", "160908.430000", "160909.217500", "160910.007500", "160910.795000", "160911.582500", "160912.370000", "160913.160000", "160913.947500", "160914.735000", "160915.522500", "160916.312500", "160917.100000", "160917.887500", "160918.675000", "160919.465000", "160920.252500", "160921.040000", "160921.827500", "160922.617500", "160923.405000", "160924.192500", "160924.982500", "160925.770000", "160926.557500", "160927.345000", "160928.135000", "160928.922500", "160929.710000", "160930.497500", "160931.287500", "160932.075000", "160932.862500", "160933.650000", "160934.440000", "160935.227500", "160936.015000", "160936.802500", "160937.592500", "160938.380000", "160939.167500", "160939.955000", "160940.745000", "160941.532500", "160942.320000", "160943.110000", "160943.897500", "160944.685000", "160945.472500", "160946.262500", "160947.050000", "160947.837500", "160948.625000", "160949.415000", "160950.202500", "160950.990000", "160951.777500", "160952.567500", "160953.355000", "160954.142500", "160954.930000", "160955.720000", "160956.507500", "160957.295000", "160958.082500", "160958.872500", "160959.660000", "161000.447500", "161001.237500", "161002.025000", "161002.812500", "161003.600000", "161004.390000", "161005.177500", "161005.965000", "161006.752500", "161007.542500", "161008.330000", "161009.117500", "161009.905000", "161010.695000", "161011.482500", "161012.270000", "161013.057500", "161013.847500", "161014.635000", "161015.422500", "161016.210000", "161017.000000", "161017.787500", "161018.575000", "161019.365000", "161020.152500", "161020.940000", "161021.727500", "161022.517500", "161023.305000", "161024.092500", "161024.880000", "161025.670000", "161026.457500", "161027.245000", "161028.032500", "161028.822500", "161029.610000", "161030.397500", "161031.185000", "161031.975000", "161032.762500", "161033.550000", "161034.337500", "161035.127500", "161035.915000", "161036.702500", "161037.492500", "161038.280000", "161039.067500", "161039.855000", "161040.645000", "161041.432500", "161042.220000", "161043.007500", "161043.797500", "161044.585000", "161045.372500", "161046.160000", "161046.950000", "161047.737500", "161048.525000", "161049.312500", "161050.102500", "161050.890000", "161051.677500", "161052.465000", "161053.255000", "161054.042500", "161054.830000", "161055.620000", "161056.407500", "161057.195000", "161057.982500", "161058.772500", "161059.560000", "161100.347500", "161101.135000", "161101.925000", "161102.712500", "161103.500000", "161104.287500", "161105.077500", "161105.865000", "161106.652500", "161107.440000", "161108.230000", "161109.017500", "161109.805000", "161110.592500", "161111.382500", "161112.170000", "161112.957500", "161113.747500", "161114.535000", "161115.322500", "161116.110000", "161116.900000", "161117.687500", "161118.475000", "161119.262500", "161120.052500", "161120.840000", "161121.627500", "161122.415000", "161123.205000", "161123.992500", "161124.780000", "161125.567500", "161126.357500", "161127.145000", "161127.932500", "161128.720000", "161129.510000", "161130.297500", "161131.085000", "161131.875000", "161132.662500", "161133.450000", "161134.237500", "161135.027500", "161135.815000", "161136.602500", "161137.390000", "161138.180000", "161138.967500", "161139.755000", "161140.542500", "161141.332500", "161142.120000", "161142.907500", "161143.695000", "161144.485000", "161145.272500", "161146.060000", "161146.850000", "161147.637500", "161148.425000", "161149.212500", "161150.002500", "161150.790000", "161151.577500", "161152.365000", "161153.155000", "161153.942500", "161154.730000", "161155.517500", "161156.307500", "161157.095000", "161157.882500", "161158.670000", "161159.460000", "161200.247500", "161201.035000", "161201.822500", "161202.612500", "161203.400000", "161204.187500", "161204.977500", "161205.765000", "161206.552500", "161207.340000", "161208.130000", "161208.917500", "161209.705000", "161210.492500", "161211.282500", "161212.070000", "161212.857500", "161213.645000", "161214.435000", "161215.222500", "161216.010000", "161216.797500", "161217.587500", "161218.375000", "161219.162500", "161219.950000", "161220.740000", "161221.527500", "161222.315000", "161223.105000", "161223.892500", "161224.680000", "161225.467500", "161226.257500", "161227.045000", "161227.832500", "161228.620000", "161229.410000", "161230.197500", "161230.985000", "161231.772500", "161232.562500", "161233.350000", "161234.137500", "161234.925000", "161235.715000", "161236.502500", "161237.290000", "161238.077500", "161238.867500", "161239.655000", "161240.442500", "161241.232500", "161242.020000", "161242.807500", "161243.595000", "161244.385000", "161245.172500", "161245.960000", "161246.747500", "161247.537500", "161248.325000", "161249.112500", "161249.900000", "161250.690000", "161251.477500", "161252.265000", "161253.052500", "161253.842500", "161254.630000", "161255.417500", "161256.205000", "161256.995000", "161257.782500", "161258.570000", "161259.360000", "161300.147500", "161300.935000", "161301.722500", "161302.512500", "161303.300000", "161304.087500", "161304.875000", "161305.665000", "161306.452500", "161307.240000", "161308.027500", "161308.817500", "161309.605000", "161310.392500", "161311.180000", "161311.970000", "161312.757500", "161313.545000", "161314.332500", "161315.122500", "161315.910000", "161316.697500", "161317.487500", "161318.275000", "161319.062500", "161319.850000", "161320.640000", "161321.427500", "161322.215000", "161323.002500", "161323.792500", "161324.580000", "161325.367500", "161326.155000", "161326.945000", "161327.732500", "161328.520000", "161329.307500", "161330.097500", "161330.885000", "161331.672500", "161332.460000", "161333.250000", "161334.037500", "161334.825000", "161335.615000", "161336.402500", "161337.190000", "161337.977500", "161338.767500", "161339.555000", "161340.342500", "161341.130000", "161341.920000", "161342.707500", "161343.495000", "161344.282500", "161345.072500", "161345.860000", "161346.647500", "161347.435000", "161348.225000", "161349.012500", "161349.800000", "161350.587500", "161351.377500", "161352.165000", "161352.952500", "161353.742500", "161354.530000", "161355.317500", "161356.105000", "161356.895000", "161357.682500", "161358.470000", "161359.257500", "161400.047500", "161400.835000"],
      "ContentTime": ["172854.828000", "172854.828000", "172854.828000", "172854.843000", "172854.843000", "172854.843000", "172954.812000", "172954.812000", "172954.812000", "172954.812000", "172954.812000", "172954.812000", "172954.812000", "172954.828000", "172954.828000", "172954.828000", "172954.828000", "172954.828000", "172954.828000", "172954.828000", "172954.843000", "172954.843000", "172954.843000", "172954.843000", "172954.843000", "172954.859000", "172954.859000", "172954.859000", "172954.859000", "172954.859000", "172954.859000", "172954.859000", "172954.875000", "172954.875000", "173054.812000", "173054.812000", "173054.812000", "173054.812000", "173054.812000", "173054.828000", "173054.828000", "173054.828000", "173054.828000", "173054.828000", "173054.828000", "173054.843000", "173054.843000", "173054.843000", "173054.843000", "173054.843000", "173054.843000", "173054.843000", "173054.843000", "173054.859000", "173054.859000", "173054.859000", "173054.859000", "173054.859000", "173054.859000", "173054.859000", "173054.875000", "173054.875000", "173154.812000", "173154.812000", "173154.812000", "173154.812000", "173154.812000", "173154.812000", "173154.812000", "173154.828000", "173154.828000", "173154.828000", "173154.828000", "173154.828000", "173154.828000", "173154.828000", "173154.843000", "173154.843000", "173154.843000", "173154.843000", "173154.843000", "173154.843000", "173154.859000", "173154.859000", "173154.859000", "173154.859000", "173154.859000", "173154.859000", "173154.859000", "173154.875000", "173154.875000", "173254.812000", "173254.812000", "173254.812000", "173254.812000", "173254.812000", "173254.812000", "173254.812000", "173254.828000", "173254.828000", "173254.828000", "173254.828000", "173254.828000", "173254.828000", "173254.828000", "173254.843000", "173254.843000", "173254.843000", "173254.843000", "173254.843000", "173254.843000", "173254.859000", "173254.859000", "173254.859000", "173254.859000", "173254.859000", "173254.875000", "173254.875000", "173254.875000", "173354.812000", "173354.812000", "173354.812000", "173354.812000", "173354.812000", "173354.812000", "173354.812000", "173354.828000", "173354.828000", "173354.828000", "173354.828000", "173354.828000", "173354.828000", "173354.828000", "173354.843000", "173354.843000", "173354.843000", "173354.843000", "173354.843000", "173354.843000", "173354.843000", "173354.859000", "173354.859000", "173354.859000", "173354.859000", "173354.875000", "173354.875000", "173354.875000", "173454.812000", "173454.812000", "173454.812000", "173454.812000", "173454.812000", "173454.812000", "173454.812000", "173454.828000", "173454.828000", "173454.828000", "173454.828000", "173454.828000", "173454.828000", "173454.828000", "173454.843000", "173454.843000", "173454.843000", "173454.843000", "173454.843000", "173454.843000", "173454.843000", "173454.859000", "173454.859000", "173454.859000", "173454.859000", "173454.859000", "173454.859000", "173454.859000", "173554.812000", "173554.812000", "173554.812000", "173554.812000", "173554.812000", "173554.812000", "173554.812000", "173554.828000", "173554.828000", "173554.828000", "173554.828000", "173554.828000", "173554.828000", "173554.843000", "173554.843000", "173554.843000", "173554.843000", "173554.843000", "173554.843000", "173554.843000", "173554.859000", "173554.859000", "173554.859000", "173554.859000", "173554.859000", "173554.859000", "173554.859000", "173554.875000", "173554.875000", "173654.812000", "173654.812000", "173654.812000", "173654.812000", "173654.812000", "173654.812000", "173654.812000", "173654.828000", "173654.828000", "173654.828000", "173654.828000", "173654.828000", "173654.828000", "173654.828000", "173654.843000", "173654.843000", "173654.843000", "173654.843000", "173654.843000", "173654.843000", "173654.843000", "173654.859000", "173654.859000", "173654.859000", "173654.859000", "173654.859000", "173654.859000", "173654.875000", "173754.812000", "173754.812000", "173754.812000", "173754.812000", "173754.812000", "173754.812000", "173754.812000", "173754.828000", "173754.828000", "173754.828000", "173754.828000", "173754.828000", "173754.828000", "173754.828000", "173754.843000", "173754.843000", "173754.843000", "173754.843000", "173754.843000", "173754.843000", "173754.843000", "173754.859000", "173754.859000", "173754.859000", "173754.859000", "173754.859000", "173754.875000", "173754.875000", "173854.812000", "173854.812000", "173854.812000", "173854.812000", "173854.812000", "173854.812000", "173854.812000", "173854.828000", "173854.828000", "173854.828000", "173854.828000", "173854.828000", "173854.828000", "173854.828000", "173854.843000", "173854.843000", "173854.843000", "173854.843000", "173854.843000", "173854.843000", "173854.843000", "173854.859000", "173854.859000", "173854.859000", "173854.859000", "173854.859000", "173854.859000", "173854.859000", "173954.812000", "173954.812000", "173954.812000", "173954.812000", "173954.812000", "173954.812000", "173954.812000", "173954.828000", "173954.828000", "173954.828000", "173954.828000", "173954.828000", "173954.828000", "173954.843000", "173954.843000", "173954.843000", "173954.843000", "173954.843000", "173954.843000", "173954.843000", "173954.859000", "173954.859000", "173954.859000", "173954.859000", "173954.859000", "173954.875000", "173954.875000", "173954.875000", "174014.812000", "174014.812000", "174014.812000", "174014.812000", "174014.812000", "174014.812000", "174014.812000", "174014.828000", "174014.828000", "174014.828000", "174114.812000", "174114.812000", "174114.812000", "174114.812000", "174114.812000", "174114.812000", "174114.812000", "174114.828000", "174114.828000", "174114.828000", "174114.828000", "174114.828000", "174114.828000", "174114.843000", "174114.843000", "174114.843000", "174114.843000", "174114.843000", "174114.843000", "174114.859000", "174114.859000", "174114.859000", "174114.859000", "174114.859000", "174114.859000", "174114.859000", "174114.875000", "174114.875000", "174214.812000", "174214.812000", "174214.812000", "174214.812000", "174214.812000", "174214.812000", "174214.812000", "174214.828000", "174214.828000", "174214.828000", "174214.828000", "174214.828000", "174214.828000", "174214.828000", "174214.843000", "174214.843000", "174214.843000", "174214.843000", "174214.843000", "174214.843000", "174214.859000", "174214.859000", "174214.859000", "174214.859000", "174214.859000", "174214.859000", "174214.859000", "174214.875000", "174314.812000", "174314.812000", "174314.812000", "174314.812000", "174314.812000", "174314.812000", "174314.812000", "174314.828000", "174314.828000", "174314.828000", "174314.828000", "174314.828000", "174314.828000", "174314.828000", "174314.843000", "174314.843000", "174314.843000", "174314.843000", "174314.843000", "174314.843000", "174314.843000", "174314.859000", "174314.859000", "174314.859000", "174314.859000", "174314.859000", "174314.859000", "174314.859000", "174314.875000", "174414.812000", "174414.812000", "174414.812000", "174414.812000", "174414.812000", "174414.812000", "174414.812000", "174414.828000", "174414.828000", "174414.828000", "174414.828000", "174414.828000", "174414.828000", "174414.828000", "174414.843000", "174414.843000", "174414.843000", "174414.843000", "174414.843000", "174414.859000", "174414.859000", "174414.859000", "174414.859000", "174414.859000", "174414.859000", "174414.859000", "174414.875000", "174414.875000", "174514.812000", "174514.812000", "174514.812000", "174514.812000", "174514.812000", "174514.812000", "174514.812000", "174514.828000", "174514.828000", "174514.828000", "174514.828000", "174514.828000", "174514.828000", "174514.828000", "174514.843000", "174514.843000", "174514.843000", "174514.843000", "174514.843000", "174514.843000", "174514.843000", "174514.859000", "174514.859000", "174514.859000", "174514.859000", "174514.859000", "174514.875000", "174514.875000", "174614.812000", "174614.812000", "174614.812000", "174614.812000", "174614.812000", "174614.812000", "174614.812000", "174614.828000", "174614.828000", "174614.828000", "174614.828000", "174614.828000", "174614.828000", "174614.828000", "174614.843000", "174614.843000", "174614.843000", "174614.843000", "174614.843000", "174614.843000", "174614.843000", "174614.859000", "174614.859000", "174614.859000", "174614.859000", "174614.859000", "174614.875000", "174614.875000", "174614.875000", "174714.812000", "174714.812000", "174714.812000", "174714.812000", "174714.812000", "174714.812000", "174714.812000", "174714.828000", "174714.828000", "174714.828000", "174714.828000", "174714.828000", "174714.828000", "174714.828000", "174714.843000", "174714.843000", "174714.843000", "174714.843000", "174714.843000", "174714.843000", "174714.843000", "174714.859000", "174714.859000", "174714.859000", "174714.859000", "174714.859000", "174714.859000", "174714.875000", "174814.812000", "174814.812000", "174814.812000", "174814.812000", "174814.812000", "174814.812000", "174814.812000", "174814.828000", "174814.828000", "174814.828000", "174814.828000", "174814.828000", "174814.828000", "174814.828000", "174814.843000", "174814.843000", "174814.843000", "174814.843000", "174814.843000", "174814.843000", "174814.859000", "174814.859000", "174814.859000", "174814.859000", "174814.859000", "174814.875000", "174814.875000", "174814.875000", "174914.671000", "174914.671000", "174914.671000", "174914.671000", "174914.671000", "174914.687000", "174914.687000", "174914.687000", "174914.687000", "174914.687000", "174914.687000", "174914.687000", "174914.703000", "174914.703000", "174914.703000", "174914.703000", "174914.703000", "174914.703000", "174914.718000", "174914.718000", "174914.718000", "174914.718000", "174914.718000", "174914.718000", "174914.734000", "174914.734000", "174914.734000", "174914.734000", "174914.734000"],
      "DataSetTrailingPadding": [
        "\u0000\u0000\u0000\u0000\u0000\u0000\u0000\u0000\u0000\u0000\u0000\u0000\u0000\u0000\u0000\u0000\u0000\u0000\u0000\u0000\u0000\u0000\u0000\u0000\u0000\u0000\u0000\u0000\u0000\u0000\u0000\u0000\u0000\u0000\u0000\u0000\u0000\u0000\u0000\u0000\u0000\u0000\u0000\u0000\u0000\u0000\u0000\u0000\u0000\u0000\u0000\u0000\u0000\u0000\u0000\u0000\u0000\u0000\u0000\u0000\u0000\u0000\u0000\u0000\u0000\u0000\u0000\u0000\u0000\u0000\u0000\u0000\u0000\u0000\u0000\u0000\u0000\u0000\u0000\u0000\u0000\u0000\u0000\u0000\u0000\u0000\u0000\u0000\u0000\u0000\u0000\u0000\u0000\u0000\u0000\u0000\u0000\u0000\u0000\u0000\u0000\u0000\u0000\u0000\u0000\u0000\u0000\u0000\u0000\u0000\u0000\u0000\u0000\u0000\u0000\u0000\u0000\u0000\u0000\u0000\u0000\u0000\u0000\u0000\u0000\u0000\u0000\u0000\u0000\u0000\u0000\u0000\u0000\u0000\u0000\u0000\u0000\u0000\u0000\u0000\u0000\u0000\u0000\u0000\u0000\u0000\u0000\u0000\u0000\u0000\u0000\u0000\u0000\u0000\u0000\u0000\u0000\u0000\u0000\u0000\u0000\u0000\u0000\u0000\u0000\u0000\u0000\u0000\u0000\u0000\u0000\u0000\u0000\u0000\u0000\u0000\u0000\u0000\u0000\u0000\u0000\u0000\u0000\u0000\u0000\u0000\u0000\u0000\u0000\u0000\u0000\u0000\u0000\u0000\u0000\u0000\u0000\u0000\u0000\u0000\u0000\u0000\u0000\u0000\u0000\u0000\u0000\u0000\u0000\u0000\u0000\u0000\u0000\u0000\u0000\u0000\u0000\u0000\u0000\u0000\u0000\u0000\u0000\u0000\u0000\u0000\u0000\u0000\u0000\u0000\u0000\u0000\u0000\u0000\u0000\u0000\u0000\u0000\u0000\u0000\u0000\u0000\u0000\u0000\u0000\u0000\u0000\u0000\u0000\u0000\u0000\u0000\u0000\u0000\u0000\u0000\u0000\u0000\u0000\u0000\u0000\u0000\u0000\u0000\u0000\u0000\u0000\u0000\u0000\u0000\u0000\u0000\u0000\u0000\u0000\u0000\u0000\u0000\u0000\u0000",
