{
  "AcquisitionMatrixPE": 104,
  "AcquisitionNumber": 1,
  "AcquisitionTime": "15:10:28.357500",
  "BandwidthPerPixelPhaseEncode": 13.935,
  "BaseResolution": 104,
  "CoilString": "C:HEA;HEP",
  "ConversionSoftware": "dcm2niix",
  "ConversionSoftwareVersion": "v1.0.20210317",
  "DerivedVendorReportedEchoSpacing": 0.000690017,
  "DeviceSerialNumber": "35450",
  "DwellTime": 2.5e-06,
  "EchoTime": 0.0348,
  "EffectiveEchoSpacing": 0.000690017,
  "FlipAngle": 55,
  "ImageComments": "Unaliased MB8/PE3",
  "ImageOrientationPatientDICOM": [1, 0, 0, 0, 0.988494, -0.151261],
  "ImageType": [
    "ORIGINAL",
    "PRIMARY",
    "M",
    "MB",
    "ND",
    "MOSAIC"
],
  "ImagingFrequency": 123.235,
  "InPlanePhaseEncodingDirectionDICOM": "COL",
  "InstitutionAddress": "Univeristy Ave. 197,Newark,North East,US,07102-1814",
  "InstitutionName": "RUBIC",
  "InstitutionalDepartmentName": "Department",
  "MRAcquisitionType": "2D",
  "MagneticFieldStrength": 3,
  "Manufacturer": "Siemens",
  "ManufacturersModelName": "TrioTim",
  "Modality": "MR",
  "MultibandAccelerationFactor": 8,
  "PartialFourier": 0.875,
  "PatientPosition": "HFS",
  "PercentPhaseFOV": 100,
  "PercentSampling": 100,
  "PhaseEncodingDirection": "j-",
  "PhaseEncodingSteps": 91,
  "PhaseResolution": 1,
  "PixelBandwidth": 1923,
  "ProcedureStepDescription": "Cole^Michael",
  "ProtocolName": "cmrr_mbep2d_bold_2mm_MB8_Rest",
  "PulseSequenceDetails": "%CustomerSeq%\\cmrr_mbep2d_bold",
  "ReceiveCoilName": "32Ch_Head",
  "ReconMatrixPE": 104,
  "RepetitionTime": 0.785,
  "SAR": 0.153061,
  "ScanOptions": "PFP\\FS",
  "ScanningSequence": "EP",
  "SequenceName": "epfid2d1_104",
  "SequenceVariant": "SK\\SS",
  "SeriesDescription": "cmrr_mbep2d_bold_2mm_MB8_Rest",
  "SeriesNumber": 9,
  "ShimSetting": [2109, -453, -7245, 237, 132, -465, 97, -67],
  "SliceThickness": 2,
  "SliceTiming": [0, 0.4375, 0.0875, 0.525, 0.175, 0.6125, 0.2625, 0.7, 0.35, 0, 0.4375, 0.0875, 0.525, 0.175, 0.6125, 0.2625, 0.7, 0.35, 0, 0.4375, 0.0875, 0.525, 0.175, 0.6125, 0.2625, 0.7, 0.35, 0, 0.4375, 0.0875, 0.525, 0.175, 0.6125, 0.2625, 0.7, 0.35, 0, 0.4375, 0.0875, 0.525, 0.175, 0.6125, 0.2625, 0.7, 0.35, 0, 0.4375, 0.0875, 0.525, 0.175, 0.6125, 0.2625, 0.7, 0.35, 0, 0.4375, 0.0875, 0.525, 0.175, 0.6125, 0.2625, 0.7, 0.35, 0, 0.4375, 0.0875, 0.525, 0.175, 0.6125, 0.2625, 0.7, 0.35],
  "SoftwareVersions": "syngo MR B19",
  "SpacingBetweenSlices": 2,
  "StationName": "MRC35450",
  "TaskName": "rest",
  "TotalReadoutTime": 0.0710717,
  "TxRefAmp": 318.521,
  "dcmmeta_affine": [
    [-2.0, 0.0, 0.0, 103.32203674316406],
    [0.0, 1.9769877195358276, -0.30252164602279663, -70.42584228515625],
    [0.0, 0.30252164602279663, 1.9769878387451172, -105.27268981933594],
    [0.0, 0.0, 0.0, 1.0]
],
  "dcmmeta_reorient_transform": [
    [0.0, -1.0, 0.0, 103.0],
    [1.0, 0.0, 0.0, 0.0],
    [0.0, 0.0, 1.0, 0.0],
    [0.0, 0.0, 0.0, 1.0]
],
  "dcmmeta_shape": [104, 104, 72, 1070],
  "dcmmeta_slice_dim": 2,
  "dcmmeta_version": 0.6,
  "global": {
    "const": {
      "AcquisitionMatrix": [104, 0, 0, 104],
      "AngioFlag": "N",
      "BitsAllocated": 16,
      "BitsStored": 12,
      "Columns": 936,
      "EchoNumbers": 1,
      "EchoTime": 34.8,
      "EchoTrainLength": 1,
      "FlipAngle": 55.0,
      "HighBit": 11,
      "ImageOrientationPatient": [1.0, 0.0, 0.0, 0.0, 0.98849388683562, -0.1512608200712],
      "ImagePositionPatient": [-935.32203388214, -955.63081366164, 51.736041893284],
      "ImageType": [
        "ORIGINAL",
        "PRIMARY",
        "M",
        "MB",
        "ND",
        "MOSAIC"
],
      "ImagedNucleus": "1H",
      "ImagingFrequency": 123.234563,
      "InPlanePhaseEncodingDirection": "COL",
      "MRAcquisitionType": "2D",
      "MagneticFieldStrength": 3.0,
      "Manufacturer": "SIEMENS",
      "ManufacturerModelName": "TrioTim",
      "Modality": "MR",
      "NumberOfAverages": 1.0,
      "NumberOfPhaseEncodingSteps": 91,
      "PercentPhaseFieldOfView": 100.0,
      "PercentSampling": 100.0,
      "PerformedProcedureStepStartTime": "142132.750000",
      "PhotometricInterpretation": "MONOCHROME2",
      "PixelBandwidth": 1923.0,
      "PixelRepresentation": 0,
      "PixelSpacing": [2.0, 2.0],
      "ProtocolName": "cmrr_mbep2d_bold_2mm_MB8_Rest",
      "RepetitionTime": 785.0,
      "Rows": 936,
      "SAR": 0.15306137865672,
      "SamplesPerPixel": 1,
      "ScanOptions": [
        "PFP",
        "FS"
],
      "ScanningSequence": "EP",
      "SequenceName": "epfid2d1_104",
      "SequenceVariant": [
        "SK",
        "SS"
],
      "SeriesDescription": "cmrr_mbep2d_bold_2mm_MB8_Rest",
      "SeriesNumber": 9,
      "SeriesTime": "151051.109000",
      "SliceLocation": -93.408739419185,
      "SliceThickness": 2.0,
      "SmallestImagePixelValue": 0,
      "SoftwareVersions": "syngo MR B19",
      "SpacingBetweenSlices": 2.0000000375168,
      "SpecificCharacterSet": "ISO_IR 100",
      "StudyID": "1",
      "StudyTime": "142132.703000",
      "TransmitCoilName": "Body",
      "VariableFlipAngleFlag": "N",
      "WindowCenterWidthExplanation": "Algo1",
      "dBdt": 0.0},
    "slices": {}
  },
  "time": {
    "samples": {
      "AcquisitionNumber": [1, 2, 3, 4, 5, 6, 7, 8, 9, 10, 11, 12, 13, 14, 15, 16, 17, 18, 19, 20, 21, 22, 23, 24, 25, 26, 27, 28, 29, 30, 31, 32, 33, 34, 35, 36, 37, 38, 39, 40, 41, 42, 43, 44, 45, 46, 47, 48, 49, 50, 51, 52, 53, 54, 55, 56, 57, 58, 59, 60, 61, 62, 63, 64, 65, 66, 67, 68, 69, 70, 71, 72, 73, 74, 75, 76, 77, 78, 79, 80, 81, 82, 83, 84, 85, 86, 87, 88, 89, 90, 91, 92, 93, 94, 95, 96, 97, 98, 99, 100, 101, 102, 103, 104, 105, 106, 107, 108, 109, 110, 111, 112, 113, 114, 115, 116, 117, 118, 119, 120, 121, 122, 123, 124, 125, 126, 127, 128, 129, 130, 131, 132, 133, 134, 135, 136, 137, 138, 139, 140, 141, 142, 143, 144, 145, 146, 147, 148, 149, 150, 151, 152, 153, 154, 155, 156, 157, 158, 159, 160, 161, 162, 163, 164, 165, 166, 167, 168, 169, 170, 171, 172, 173, 174, 175, 176, 177, 178, 179, 180, 181, 182, 183, 184, 185, 186, 187, 188, 189, 190, 191, 192, 193, 194, 195, 196, 197, 198, 199, 200, 201, 202, 203, 204, 205, 206, 207, 208, 209, 210, 211, 212, 213, 214, 215, 216, 217, 218, 219, 220, 221, 222, 223, 224, 225, 226, 227, 228, 229, 230, 231, 232, 233, 234, 235, 236, 237, 238, 239, 240, 241, 242, 243, 244, 245, 246, 247, 248, 249, 250, 251, 252, 253, 254, 255, 256, 257, 258, 259, 260, 261, 262, 263, 264, 265, 266, 267, 268, 269, 270, 271, 272, 273, 274, 275, 276, 277, 278, 279, 280, 281, 282, 283, 284, 285, 286, 287, 288, 289, 290, 291, 292, 293, 294, 295, 296, 297, 298, 299, 300, 301, 302, 303, 304, 305, 306, 307, 308, 309, 310, 311, 312, 313, 314, 315, 316, 317, 318, 319, 320, 321, 322, 323, 324, 325, 326, 327, 328, 329, 330, 331, 332, 333, 334, 335, 336, 337, 338, 339, 340, 341, 342, 343, 344, 345, 346, 347, 348, 349, 350, 351, 352, 353, 354, 355, 356, 357, 358, 359, 360, 361, 362, 363, 364, 365, 366, 367, 368, 369, 370, 371, 372, 373, 374, 375, 376, 377, 378, 379, 380, 381, 382, 383, 384, 385, 386, 387, 388, 389, 390, 391, 392, 393, 394, 395, 396, 397, 398, 399, 400, 401, 402, 403, 404, 405, 406, 407, 408, 409, 410, 411, 412, 413, 414, 415, 416, 417, 418, 419, 420, 421, 422, 423, 424, 425, 426, 427, 428, 429, 430, 431, 432, 433, 434, 435, 436, 437, 438, 439, 440, 441, 442, 443, 444, 445, 446, 447, 448, 449, 450, 451, 452, 453, 454, 455, 456, 457, 458, 459, 460, 461, 462, 463, 464, 465, 466, 467, 468, 469, 470, 471, 472, 473, 474, 475, 476, 477, 478, 479, 480, 481, 482, 483, 484, 485, 486, 487, 488, 489, 490, 491, 492, 493, 494, 495, 496, 497, 498, 499, 500, 501, 502, 503, 504, 505, 506, 507, 508, 509, 510, 511, 512, 513, 514, 515, 516, 517, 518, 519, 520, 521, 522, 523, 524, 525, 526, 527, 528, 529, 530, 531, 532, 533, 534, 535, 536, 537, 538, 539, 540, 541, 542, 543, 544, 545, 546, 547, 548, 549, 550, 551, 552, 553, 554, 555, 556, 557, 558, 559, 560, 561, 562, 563, 564, 565, 566, 567, 568, 569, 570, 571, 572, 573, 574, 575, 576, 577, 578, 579, 580, 581, 582, 583, 584, 585, 586, 587, 588, 589, 590, 591, 592, 593, 594, 595, 596, 597, 598, 599, 600, 601, 602, 603, 604, 605, 606, 607, 608, 609, 610, 611, 612, 613, 614, 615, 616, 617, 618, 619, 620, 621, 622, 623, 624, 625, 626, 627, 628, 629, 630, 631, 632, 633, 634, 635, 636, 637, 638, 639, 640, 641, 642, 643, 644, 645, 646, 647, 648, 649, 650, 651, 652, 653, 654, 655, 656, 657, 658, 659, 660, 661, 662, 663, 664, 665, 666, 667, 668, 669, 670, 671, 672, 673, 674, 675, 676, 677, 678, 679, 680, 681, 682, 683, 684, 685, 686, 687, 688, 689, 690, 691, 692, 693, 694, 695, 696, 697, 698, 699, 700, 701, 702, 703, 704, 705, 706, 707, 708, 709, 710, 711, 712, 713, 714, 715, 716, 717, 718, 719, 720, 721, 722, 723, 724, 725, 726, 727, 728, 729, 730, 731, 732, 733, 734, 735, 736, 737, 738, 739, 740, 741, 742, 743, 744, 745, 746, 747, 748, 749, 750, 751, 752, 753, 754, 755, 756, 757, 758, 759, 760, 761, 762, 763, 764, 765, 766, 767, 768, 769, 770, 771, 772, 773, 774, 775, 776, 777, 778, 779, 780, 781, 782, 783, 784, 785, 786, 787, 788, 789, 790, 791, 792, 793, 794, 795, 796, 797, 798, 799, 800, 801, 802, 803, 804, 805, 806, 807, 808, 809, 810, 811, 812, 813, 814, 815, 816, 817, 818, 819, 820, 821, 822, 823, 824, 825, 826, 827, 828, 829, 830, 831, 832, 833, 834, 835, 836, 837, 838, 839, 840, 841, 842, 843, 844, 845, 846, 847, 848, 849, 850, 851, 852, 853, 854, 855, 856, 857, 858, 859, 860, 861, 862, 863, 864, 865, 866, 867, 868, 869, 870, 871, 872, 873, 874, 875, 876, 877, 878, 879, 880, 881, 882, 883, 884, 885, 886, 887, 888, 889, 890, 891, 892, 893, 894, 895, 896, 897, 898, 899, 900, 901, 902, 903, 904, 905, 906, 907, 908, 909, 910, 911, 912, 913, 914, 915, 916, 917, 918, 919, 920, 921, 922, 923, 924, 925, 926, 927, 928, 929, 930, 931, 932, 933, 934, 935, 936, 937, 938, 939, 940, 941, 942, 943, 944, 945, 946, 947, 948, 949, 950, 951, 952, 953, 954, 955, 956, 957, 958, 959, 960, 961, 962, 963, 964, 965, 966, 967, 968, 969, 970, 971, 972, 973, 974, 975, 976, 977, 978, 979, 980, 981, 982, 983, 984, 985, 986, 987, 988, 989, 990, 991, 992, 993, 994, 995, 996, 997, 998, 999, 1000, 1001, 1002, 1003, 1004, 1005, 1006, 1007, 1008, 1009, 1010, 1011, 1012, 1013, 1014, 1015, 1016, 1017, 1018, 1019, 1020, 1021, 1022, 1023, 1024, 1025, 1026, 1027, 1028, 1029, 1030, 1031, 1032, 1033, 1034, 1035, 1036, 1037, 1038, 1039, 1040, 1041, 1042, 1043, 1044, 1045, 1046, 1047, 1048, 1049, 1050, 1051, 1052, 1053, 1054, 1055, 1056, 1057, 1058, 1059, 1060, 1061, 1062, 1063, 1064, 1065, 1066, 1067, 1068, 1069, 1070],
      "AcquisitionTime": ["151028.357500", "151029.145000", "151029.935000", "151030.722500", "151031.510000", "151032.300000", "151033.087500", "151033.875000", "151034.662500", "151035.452500", "151036.240000", "151037.027500", "151037.815000", "151038.605000", "151039.392500", "151040.180000", "151040.967500", "151041.757500", "151042.545000", "151043.332500", "151044.120000", "151044.910000", "151045.697500", "151046.485000", "151047.272500", "151048.062500", "151048.850000", "151049.637500", "151050.427500", "151051.215000", "151052.002500", "151052.790000", "151053.580000", "151054.367500", "151055.155000", "151055.942500", "151056.732500", "151057.520000", "151058.307500", "151059.095000", "151059.885000", "151100.672500", "151101.460000", "151102.247500", "151103.037500", "151103.825000", "151104.612500", "151105.400000", "151106.190000", "151106.977500", "151107.765000", "151108.555000", "151109.342500", "151110.130000", "151110.917500", "151111.707500", "151112.495000", "151113.282500", "151114.070000", "151114.860000", "151115.647500", "151116.435000", "151117.222500", "151118.012500", "151118.800000", "151119.587500", "151120.375000", "151121.165000", "151121.952500", "151122.740000", "151123.527500", "151124.317500", "151125.105000", "151125.892500", "151126.682500", "151127.470000", "151128.257500", "151129.045000", "151129.835000", "151130.622500", "151131.410000", "151132.197500", "151132.987500", "151133.775000", "151134.562500", "151135.350000", "151136.140000", "151136.927500", "151137.715000", "151138.502500", "151139.292500", "151140.080000", "151140.867500", "151141.655000", "151142.445000", "151143.232500", "151144.020000", "151144.810000", "151145.597500", "151146.385000", "151147.172500", "151147.962500", "151148.750000", "151149.537500", "151150.325000", "151151.115000", "151151.902500", "151152.690000", "151153.477500", "151154.267500", "151155.055000", "151155.842500", "151156.630000", "151157.420000", "151158.207500", "151158.995000", "151159.782500", "151200.572500", "151201.360000", "151202.147500", "151202.937500", "151203.725000", "151204.512500", "151205.300000", "151206.090000", "151206.877500", "151207.665000", "151208.452500", "151209.242500", "151210.030000", "151210.817500", "151211.605000", "151212.395000", "151213.182500", "151213.970000", "151214.757500", "151215.547500", "151216.335000", "151217.122500", "151217.910000", "151218.700000", "151219.487500", "151220.275000", "151221.065000", "151221.852500", "151222.640000", "151223.427500", "151224.217500", "151225.005000", "151225.792500", "151226.580000", "151227.370000", "151228.157500", "151228.945000", "151229.732500", "151230.522500", "151231.310000", "151232.097500", "151232.885000", "151233.675000", "151234.462500", "151235.250000", "151236.040000", "151236.827500", "151237.615000", "151238.402500", "151239.192500", "151239.980000", "151240.767500", "151241.555000", "151242.345000", "151243.132500", "151243.920000", "151244.707500", "151245.497500", "151246.285000", "151247.072500", "151247.860000", "151248.650000", "151249.437500", "151250.225000", "151251.012500", "151251.802500", "151252.590000", "151253.377500", "151254.167500", "151254.955000", "151255.742500", "151256.530000", "151257.320000", "151258.107500", "151258.895000", "151259.682500", "151300.472500", "151301.260000", "151302.047500", "151302.835000", "151303.625000", "151304.412500", "151305.200000", "151305.987500", "151306.777500", "151307.565000", "151308.352500", "151309.140000", "151309.930000", "151310.717500", "151311.505000", "151312.295000", "151313.082500", "151313.870000", "151314.657500", "151315.447500", "151316.235000", "151317.022500", "151317.810000", "151318.600000", "151319.387500", "151320.175000", "151320.962500", "151321.752500", "151322.540000", "151323.327500", "151324.115000", "151324.905000", "151325.692500", "151326.480000", "151327.267500", "151328.057500", "151328.845000", "151329.632500", "151330.422500", "151331.210000", "151331.997500", "151332.785000", "151333.575000", "151334.362500", "151335.150000", "151335.937500", "151336.727500", "151337.515000", "151338.302500", "151339.090000", "151339.880000", "151340.667500", "151341.455000", "151342.242500", "151343.032500", "151343.820000", "151344.607500", "151345.395000", "151346.185000", "151346.972500", "151347.760000", "151348.550000", "151349.337500", "151350.125000", "151350.912500", "151351.702500", "151352.490000", "151353.277500", "151354.065000", "151354.855000", "151355.642500", "151356.430000", "151357.217500", "151358.007500", "151358.795000", "151359.582500", "151400.370000", "151401.160000", "151401.947500", "151402.735000", "151403.522500", "151404.312500", "151405.100000", "151405.887500", "151406.677500", "151407.465000", "151408.252500", "151409.040000", "151409.830000", "151410.617500", "151411.405000", "151412.192500", "151412.982500", "151413.770000", "151414.557500", "151415.345000", "151416.135000", "151416.922500", "151417.710000", "151418.497500", "151419.287500", "151420.075000", "151420.862500", "151421.650000", "151422.440000", "151423.227500", "151424.015000", "151424.805000", "151425.592500", "151426.380000", "151427.167500", "151427.957500", "151428.745000", "151429.532500", "151430.320000", "151431.110000", "151431.897500", "151432.685000", "151433.472500", "151434.262500", "151435.050000", "151435.837500", "151436.625000", "151437.415000", "151438.202500", "151438.990000", "151439.777500", "151440.567500", "151441.355000", "151442.142500", "151442.932500", "151443.720000", "151444.507500", "151445.295000", "151446.085000", "151446.872500", "151447.660000", "151448.447500", "151449.237500", "151450.025000", "151450.812500", "151451.600000", "151452.390000", "151453.177500", "151453.965000", "151454.752500", "151455.542500", "151456.330000", "151457.117500", "151457.905000", "151458.695000", "151459.482500", "151500.270000", "151501.060000", "151501.847500", "151502.635000", "151503.422500", "151504.212500", "151505.000000", "151505.787500", "151506.575000", "151507.365000", "151508.152500", "151508.940000", "151509.727500", "151510.517500", "151511.305000", "151512.092500", "151512.880000", "151513.670000", "151514.457500", "151515.245000", "151516.032500", "151516.822500", "151517.610000", "151518.397500", "151519.187500", "151519.975000", "151520.762500", "151521.550000", "151522.340000", "151523.127500", "151523.915000", "151524.702500", "151525.492500", "151526.280000", "151527.067500", "151527.855000", "151528.645000", "151529.432500", "151530.220000", "151531.007500", "151531.797500", "151532.585000", "151533.372500", "151534.160000", "151534.950000", "151535.737500", "151536.525000", "151537.315000", "151538.102500", "151538.890000", "151539.677500", "151540.467500", "151541.255000", "151542.042500", "151542.830000", "151543.620000", "151544.407500", "151545.195000", "151545.982500", "151546.772500", "151547.560000", "151548.347500", "151549.135000", "151549.925000", "151550.712500", "151551.500000", "151552.290000", "151553.077500", "151553.865000", "151554.652500", "151555.442500", "151556.230000", "151557.017500", "151557.805000", "151558.595000", "151559.382500", "151600.170000", "151600.957500", "151601.747500", "151602.535000", "151603.322500", "151604.110000", "151604.900000", "151605.687500", "151606.475000", "151607.262500", "151608.052500", "151608.840000", "151609.627500", "151610.417500", "151611.205000", "151611.992500", "151612.780000", "151613.570000", "151614.357500", "151615.145000", "151615.932500", "151616.722500", "151617.510000", "151618.297500", "151619.085000", "151619.875000", "151620.662500", "151621.450000", "151622.237500", "151623.027500", "151623.815000", "151624.602500", "151625.390000", "151626.180000", "151626.967500", "151627.755000", "151628.545000", "151629.332500", "151630.120000", "151630.907500", "151631.697500", "151632.485000", "151633.272500", "151634.060000", "151634.850000", "151635.637500", "151636.425000", "151637.212500", "151638.002500", "151638.790000", "151639.577500", "151640.365000", "151641.155000", "151641.942500", "151642.730000", "151643.517500", "151644.307500", "151645.095000", "151645.882500", "151646.672500", "151647.460000", "151648.247500", "151649.035000", "151649.825000", "151650.612500", "151651.400000", "151652.187500", "151652.977500", "151653.765000", "151654.552500", "151655.340000", "151656.130000", "151656.917500", "151657.705000", "151658.492500", "151659.282500", "151700.070000", "151700.857500", "151701.645000", "151702.435000", "151703.222500", "151704.010000", "151704.800000", "151705.587500", "151706.375000", "151707.162500", "151707.952500", "151708.740000", "151709.527500", "151710.315000", "151711.105000", "151711.892500", "151712.680000", "151713.467500", "151714.257500", "151715.045000", "151715.832500", "151716.620000", "151717.410000", "151718.197500", "151718.985000", "151719.772500", "151720.562500", "151721.350000", "151722.137500", "151722.927500", "151723.715000", "151724.502500", "151725.290000", "151726.080000", "151726.867500", "151727.655000", "151728.442500", "151729.232500", "151730.020000", "151730.807500", "151731.595000", "151732.385000", "151733.172500", "151733.960000", "151734.747500", "151735.537500", "151736.325000", "151737.112500", "151737.900000", "151738.690000", "151739.477500", "151740.265000", "151741.055000", "151741.842500", "151742.630000", "151743.417500", "151744.207500", "151744.995000", "151745.782500", "151746.570000", "151747.360000", "151748.147500", "151748.935000", "151749.722500", "151750.512500", "151751.300000", "151752.087500", "151752.875000", "151753.665000", "151754.452500", "151755.240000", "151756.027500", "151756.817500", "151757.605000", "151758.392500", "151759.182500", "151759.970000", "151800.757500", "151801.545000", "151802.335000", "151803.122500", "151803.910000", "151804.697500", "151805.487500", "151806.275000", "151807.062500", "151807.850000", "151808.640000", "151809.427500", "151810.215000", "151811.002500", "151811.792500", "151812.580000", "151813.367500", "151814.155000", "151814.945000", "151815.732500", "151816.520000", "151817.310000", "151818.097500", "151818.885000", "151819.672500", "151820.462500", "151821.250000", "151822.037500", "151822.825000", "151823.615000", "151824.402500", "151825.190000", "151825.977500", "151826.767500", "151827.555000", "151828.342500", "151829.130000", "151829.920000", "151830.707500", "151831.495000", "151832.282500", "151833.072500", "151833.860000", "151834.647500", "151835.437500", "151836.225000", "151837.012500", "151837.800000", "151838.590000", "151839.377500", "151840.165000", "151840.952500", "151841.742500", "151842.530000", "151843.317500", "151844.105000", "151844.895000", "151845.682500", "151846.470000", "151847.257500", "151848.047500", "151848.835000", "151849.622500", "151850.410000", "151851.200000", "151851.987500", "151852.775000", "151853.565000", "151854.352500", "151855.140000", "151855.927500", "151856.717500", "151857.505000", "151858.292500", "151859.080000", "151859.870000", "151900.657500", "151901.445000", "151902.232500", "151903.022500", "151903.810000", "151904.597500", "151905.385000", "151906.175000", "151906.962500", "151907.750000", "151908.540000", "151909.327500", "151910.115000", "151910.902500", "151911.692500", "151912.480000", "151913.267500", "151914.055000", "151914.845000", "151915.632500", "151916.420000", "151917.207500", "151917.997500", "151918.785000", "151919.572500", "151920.360000", "151921.150000", "151921.937500", "151922.725000", "151923.512500", "151924.302500", "151925.090000", "151925.877500", "151926.667500", "151927.455000", "151928.242500", "151929.030000", "151929.820000", "151930.607500", "151931.395000", "151932.182500", "151932.972500", "151933.760000", "151934.547500", "151935.335000", "151936.125000", "151936.912500", "151937.700000", "151938.487500", "151939.277500", "151940.065000", "151940.852500", "151941.640000", "151942.430000", "151943.217500", "151944.005000", "151944.795000", "151945.582500", "151946.370000", "151947.157500", "151947.947500", "151948.735000", "151949.522500", "151950.310000", "151951.100000", "151951.887500", "151952.675000", "151953.462500", "151954.252500", "151955.040000", "151955.827500", "151956.615000", "151957.405000", "151958.192500", "151958.980000", "151959.767500", "152000.557500", "152001.345000", "152002.132500", "152002.922500", "152003.710000", "152004.497500", "152005.285000", "152006.075000", "152006.862500", "152007.650000", "152008.437500", "152009.227500", "152010.015000", "152010.802500", "152011.590000", "152012.380000", "152013.167500", "152013.955000", "152014.742500", "152015.532500", "152016.320000", "152017.107500", "152017.895000", "152018.685000", "152019.472500", "152020.260000", "152021.050000", "152021.837500", "152022.625000", "152023.412500", "152024.202500", "152024.990000", "152025.777500", "152026.565000", "152027.355000", "152028.142500", "152028.930000", "152029.717500", "152030.507500", "152031.295000", "152032.082500", "152032.870000", "152033.660000", "152034.447500", "152035.235000", "152036.022500", "152036.812500", "152037.600000", "152038.387500", "152039.177500", "152039.965000", "152040.752500", "152041.540000", "152042.330000", "152043.117500", "152043.905000", "152044.692500", "152045.482500", "152046.270000", "152047.057500", "152047.845000", "152048.635000", "152049.422500", "152050.210000", "152050.997500", "152051.787500", "152052.575000", "152053.362500", "152054.150000", "152054.940000", "152055.727500", "152056.515000", "152057.305000", "152058.092500", "152058.880000", "152059.667500", "152100.457500", "152101.245000", "152102.032500", "152102.820000", "152103.610000", "152104.397500", "152105.185000", "152105.972500", "152106.762500", "152107.550000", "152108.337500", "152109.125000", "152109.915000", "152110.702500", "152111.490000", "152112.277500", "152113.067500", "152113.855000", "152114.642500", "152115.432500", "152116.220000", "152117.007500", "152117.795000", "152118.585000", "152119.372500", "152120.160000", "152120.947500", "152121.737500", "152122.525000", "152123.312500", "152124.100000", "152124.890000", "152125.677500", "152126.465000", "152127.252500", "152128.042500", "152128.830000", "152129.617500", "152130.405000", "152131.195000", "152131.982500", "152132.770000", "152133.560000", "152134.347500", "152135.135000", "152135.922500", "152136.712500", "152137.500000", "152138.287500", "152139.075000", "152139.865000", "152140.652500", "152141.440000", "152142.227500", "152143.017500", "152143.805000", "152144.592500", "152145.380000", "152146.170000", "152146.957500", "152147.745000", "152148.532500", "152149.322500", "152150.110000", "152150.897500", "152151.687500", "152152.475000", "152153.262500", "152154.050000", "152154.840000", "152155.627500", "152156.415000", "152157.202500", "152157.992500", "152158.780000", "152159.567500", "152200.355000", "152201.145000", "152201.932500", "152202.720000", "152203.507500", "152204.297500", "152205.085000", "152205.872500", "152206.660000", "152207.450000", "152208.237500", "152209.025000", "152209.815000", "152210.602500", "152211.390000", "152212.177500", "152212.967500", "152213.755000", "152214.542500", "152215.330000", "152216.120000", "152216.907500", "152217.695000", "152218.482500", "152219.272500", "152220.060000", "152220.847500", "152221.635000", "152222.425000", "152223.212500", "152224.000000", "152224.790000", "152225.577500", "152226.365000", "152227.152500", "152227.942500", "152228.730000", "152229.517500", "152230.305000", "152231.095000", "152231.882500", "152232.670000", "152233.457500", "152234.247500", "152235.035000", "152235.822500", "152236.610000", "152237.400000", "152238.187500", "152238.975000", "152239.762500", "152240.552500", "152241.340000", "152242.127500", "152242.917500", "152243.705000", "152244.492500", "152245.280000", "152246.070000", "152246.857500", "152247.645000", "152248.432500", "152249.222500", "152250.010000", "152250.797500", "152251.585000", "152252.375000", "152253.162500", "152253.950000", "152254.737500", "152255.527500", "152256.315000", "152257.102500", "152257.890000", "152258.680000", "152259.467500", "152300.255000", "152301.045000", "152301.832500", "152302.620000", "152303.407500", "152304.197500", "152304.985000", "152305.772500", "152306.560000", "152307.350000", "152308.137500", "152308.925000", "152309.712500", "152310.502500", "152311.290000", "152312.077500", "152312.865000", "152313.655000", "152314.442500", "152315.230000", "152316.017500", "152316.807500", "152317.595000", "152318.382500", "152319.172500", "152319.960000", "152320.747500", "152321.535000", "152322.325000", "152323.112500", "152323.900000", "152324.687500", "152325.477500", "152326.265000", "152327.052500", "152327.840000", "152328.630000", "152329.417500", "152330.205000", "152330.992500", "152331.782500", "152332.570000", "152333.357500", "152334.145000", "152334.935000", "152335.722500", "152336.510000", "152337.300000", "152338.087500", "152338.875000", "152339.662500", "152340.452500", "152341.240000", "152342.027500", "152342.815000", "152343.605000", "152344.392500", "152345.180000", "152345.967500", "152346.757500", "152347.545000", "152348.332500", "152349.120000", "152349.910000", "152350.697500", "152351.485000", "152352.272500", "152353.062500", "152353.850000", "152354.637500", "152355.427500", "152356.215000", "152357.002500", "152357.790000", "152358.580000", "152359.367500", "152400.155000", "152400.942500", "152401.732500", "152402.520000", "152403.307500", "152404.095000", "152404.885000", "152405.672500", "152406.460000", "152407.247500", "152408.037500", "152408.825000", "152409.612500", "152410.400000", "152411.190000", "152411.977500", "152412.765000", "152413.555000", "152414.342500", "152415.130000", "152415.917500", "152416.707500", "152417.495000", "152418.282500", "152419.070000", "152419.860000", "152420.647500", "152421.435000", "152422.222500", "152423.012500", "152423.800000", "152424.587500", "152425.375000", "152426.165000", "152426.952500", "152427.740000", "152428.527500", "152429.317500", "152430.105000", "152430.892500"],
