{
  "AcquisitionMatrixPE": 104,
  "AcquisitionNumber": 1,
  "AcquisitionTime": "15:50:16.725000",
  "BandwidthPerPixelPhaseEncode": 13.935,
  "BaseResolution": 104,
  "CoilString": "C:HEA;HEP",
  "ConversionSoftware": "dcm2niix",
  "ConversionSoftwareVersion": "v1.0.20210317",
  "DerivedVendorReportedEchoSpacing": 0.000690017,
  "DeviceSerialNumber": "35450",
  "DwellTime": 2.5e-06,
  "EchoTime": 0.0348,
  "EffectiveEchoSpacing": 0.000690017,
  "FlipAngle": 55,
  "ImageComments": "Unaliased MB8/PE3",
  "ImageOrientationPatientDICOM": [1, 0, 0, 0, 0.988494, -0.151261],
  "ImageType": [
    "ORIGINAL",
    "PRIMARY",
    "M",
    "MB",
    "ND",
    "MOSAIC"
],
  "ImagingFrequency": 123.235,
  "InPlanePhaseEncodingDirectionDICOM": "COL",
  "InstitutionAddress": "Univeristy Ave. 197,Newark,North East,US,07102-1814",
  "InstitutionName": "RUBIC",
  "InstitutionalDepartmentName": "Department",
  "MRAcquisitionType": "2D",
  "MagneticFieldStrength": 3,
  "Manufacturer": "Siemens",
  "ManufacturersModelName": "TrioTim",
  "Modality": "MR",
  "MultibandAccelerationFactor": 8,
  "PartialFourier": 0.875,
  "PatientPosition": "HFS",
  "PercentPhaseFOV": 100,
  "PercentSampling": 100,
  "PhaseEncodingDirection": "j-",
  "PhaseEncodingSteps": 91,
  "PhaseResolution": 1,
  "PixelBandwidth": 1923,
  "ProcedureStepDescription": "Cole^Michael",
  "ProtocolName": "cmrr_mbep2d_bold_2mm_MB8_Task_8x",
  "PulseSequenceDetails": "%CustomerSeq%\\cmrr_mbep2d_bold",
  "ReceiveCoilName": "32Ch_Head",
  "ReconMatrixPE": 104,
  "RepetitionTime": 0.785,
  "SAR": 0.13775,
  "ScanOptions": "PFP\\FS",
  "ScanningSequence": "EP",
  "SequenceName": "epfid2d1_104",
  "SequenceVariant": "SK\\SS",
  "SeriesDescription": "cmrr_mbep2d_bold_2mm_MB8_Task_8x",
  "SeriesNumber": 17,
  "ShimSetting": [2109, -453, -7245, 237, 132, -465, 97, -67],
  "SliceThickness": 2,
  "SliceTiming": [0, 0.4375, 0.0875, 0.525, 0.175, 0.6125, 0.2625, 0.7, 0.35, 0, 0.4375, 0.0875, 0.525, 0.175, 0.6125, 0.2625, 0.7, 0.35, 0, 0.4375, 0.0875, 0.525, 0.175, 0.6125, 0.2625, 0.7, 0.35, 0, 0.4375, 0.0875, 0.525, 0.175, 0.6125, 0.2625, 0.7, 0.35, 0, 0.4375, 0.0875, 0.525, 0.175, 0.6125, 0.2625, 0.7, 0.35, 0, 0.4375, 0.0875, 0.525, 0.175, 0.6125, 0.2625, 0.7, 0.35, 0, 0.4375, 0.0875, 0.525, 0.175, 0.6125, 0.2625, 0.7, 0.35, 0, 0.4375, 0.0875, 0.525, 0.175, 0.6125, 0.2625, 0.7, 0.35],
  "SoftwareVersions": "syngo MR B19",
  "SpacingBetweenSlices": 2,
  "StationName": "MRC35450",
  "TaskName": "cpro",
  "TotalReadoutTime": 0.0710717,
  "TxRefAmp": 318.521,
  "dcmmeta_affine": [
    [-2.0, 0.0, 0.0, 103.32203674316406],
    [0.0, 1.9769877195358276, -0.30252164602279663, -70.42584228515625],
    [0.0, 0.30252164602279663, 1.9769878387451172, -105.27268981933594],
    [0.0, 0.0, 0.0, 1.0]
],
  "dcmmeta_reorient_transform": [
    [0.0, -1.0, 0.0, 103.0],
    [1.0, 0.0, 0.0, 0.0],
    [0.0, 0.0, 1.0, 0.0],
    [0.0, 0.0, 0.0, 1.0]
],
  "dcmmeta_shape": [104, 104, 72, 581],
  "dcmmeta_slice_dim": 2,
  "dcmmeta_version": 0.6,
  "global": {
    "const": {
      "AcquisitionMatrix": [104, 0, 0, 104],
      "AngioFlag": "N",
      "BitsAllocated": 16,
      "BitsStored": 12,
      "Columns": 936,
      "EchoNumbers": 1,
      "EchoTime": 34.8,
      "EchoTrainLength": 1,
      "FlipAngle": 55.0,
      "HighBit": 11,
      "ImageOrientationPatient": [1.0, 0.0, 0.0, 0.0, 0.98849388683562, -0.1512608200712],
      "ImagePositionPatient": [-935.32203388214, -955.63081366164, 51.736041893284],
      "ImageType": [
        "ORIGINAL",
        "PRIMARY",
        "M",
        "MB",
        "ND",
        "MOSAIC"
],
      "ImagedNucleus": "1H",
      "ImagingFrequency": 123.234627,
      "InPlanePhaseEncodingDirection": "COL",
      "MRAcquisitionType": "2D",
      "MagneticFieldStrength": 3.0,
      "Manufacturer": "SIEMENS",
      "ManufacturerModelName": "TrioTim",
      "Modality": "MR",
      "NumberOfAverages": 1.0,
      "NumberOfPhaseEncodingSteps": 91,
      "PercentPhaseFieldOfView": 100.0,
      "PercentSampling": 100.0,
      "PerformedProcedureStepStartTime": "142132.750000",
      "PhotometricInterpretation": "MONOCHROME2",
      "PixelBandwidth": 1923.0,
      "PixelRepresentation": 0,
      "PixelSpacing": [2.0, 2.0],
      "ProtocolName": "cmrr_mbep2d_bold_2mm_MB8_Task_8x",
      "RepetitionTime": 785.0,
      "Rows": 936,
      "SAR": 0.13774956097681,
      "SamplesPerPixel": 1,
      "ScanOptions": [
        "PFP",
        "FS"
],
      "ScanningSequence": "EP",
      "SequenceName": "epfid2d1_104",
      "SequenceVariant": [
        "SK",
        "SS"
],
      "SeriesDescription": "cmrr_mbep2d_bold_2mm_MB8_Task_8x",
      "SeriesNumber": 17,
      "SeriesTime": "164711.093000",
      "SliceLocation": -93.408739419185,
      "SliceThickness": 2.0,
      "SmallestImagePixelValue": 0,
      "SoftwareVersions": "syngo MR B19",
      "SpacingBetweenSlices": 2.0000000375168,
      "SpecificCharacterSet": "ISO_IR 100",
      "StudyID": "1",
      "StudyTime": "142132.703000",
      "TransmitCoilName": "Body",
      "VariableFlipAngleFlag": "N",
      "WindowCenterWidthExplanation": "Algo1",
      "dBdt": 0.0},
    "slices": {}
  },
  "time": {
    "samples": {
      "AcquisitionNumber": [1, 2, 3, 4, 5, 6, 7, 8, 9, 10, 11, 12, 13, 14, 15, 16, 17, 18, 19, 20, 21, 22, 23, 24, 25, 26, 27, 28, 29, 30, 31, 32, 33, 34, 35, 36, 37, 38, 39, 40, 41, 42, 43, 44, 45, 46, 47, 48, 49, 50, 51, 52, 53, 54, 55, 56, 57, 58, 59, 60, 61, 62, 63, 64, 65, 66, 67, 68, 69, 70, 71, 72, 73, 74, 75, 76, 77, 78, 79, 80, 81, 82, 83, 84, 85, 86, 87, 88, 89, 90, 91, 92, 93, 94, 95, 96, 97, 98, 99, 100, 101, 102, 103, 104, 105, 106, 107, 108, 109, 110, 111, 112, 113, 114, 115, 116, 117, 118, 119, 120, 121, 122, 123, 124, 125, 126, 127, 128, 129, 130, 131, 132, 133, 134, 135, 136, 137, 138, 139, 140, 141, 142, 143, 144, 145, 146, 147, 148, 149, 150, 151, 152, 153, 154, 155, 156, 157, 158, 159, 160, 161, 162, 163, 164, 165, 166, 167, 168, 169, 170, 171, 172, 173, 174, 175, 176, 177, 178, 179, 180, 181, 182, 183, 184, 185, 186, 187, 188, 189, 190, 191, 192, 193, 194, 195, 196, 197, 198, 199, 200, 201, 202, 203, 204, 205, 206, 207, 208, 209, 210, 211, 212, 213, 214, 215, 216, 217, 218, 219, 220, 221, 222, 223, 224, 225, 226, 227, 228, 229, 230, 231, 232, 233, 234, 235, 236, 237, 238, 239, 240, 241, 242, 243, 244, 245, 246, 247, 248, 249, 250, 251, 252, 253, 254, 255, 256, 257, 258, 259, 260, 261, 262, 263, 264, 265, 266, 267, 268, 269, 270, 271, 272, 273, 274, 275, 276, 277, 278, 279, 280, 281, 282, 283, 284, 285, 286, 287, 288, 289, 290, 291, 292, 293, 294, 295, 296, 297, 298, 299, 300, 301, 302, 303, 304, 305, 306, 307, 308, 309, 310, 311, 312, 313, 314, 315, 316, 317, 318, 319, 320, 321, 322, 323, 324, 325, 326, 327, 328, 329, 330, 331, 332, 333, 334, 335, 336, 337, 338, 339, 340, 341, 342, 343, 344, 345, 346, 347, 348, 349, 350, 351, 352, 353, 354, 355, 356, 357, 358, 359, 360, 361, 362, 363, 364, 365, 366, 367, 368, 369, 370, 371, 372, 373, 374, 375, 376, 377, 378, 379, 380, 381, 382, 383, 384, 385, 386, 387, 388, 389, 390, 391, 392, 393, 394, 395, 396, 397, 398, 399, 400, 401, 402, 403, 404, 405, 406, 407, 408, 409, 410, 411, 412, 413, 414, 415, 416, 417, 418, 419, 420, 421, 422, 423, 424, 425, 426, 427, 428, 429, 430, 431, 432, 433, 434, 435, 436, 437, 438, 439, 440, 441, 442, 443, 444, 445, 446, 447, 448, 449, 450, 451, 452, 453, 454, 455, 456, 457, 458, 459, 460, 461, 462, 463, 464, 465, 466, 467, 468, 469, 470, 471, 472, 473, 474, 475, 476, 477, 478, 479, 480, 481, 482, 483, 484, 485, 486, 487, 488, 489, 490, 491, 492, 493, 494, 495, 496, 497, 498, 499, 500, 501, 502, 503, 504, 505, 506, 507, 508, 509, 510, 511, 512, 513, 514, 515, 516, 517, 518, 519, 520, 521, 522, 523, 524, 525, 526, 527, 528, 529, 530, 531, 532, 533, 534, 535, 536, 537, 538, 539, 540, 541, 542, 543, 544, 545, 546, 547, 548, 549, 550, 551, 552, 553, 554, 555, 556, 557, 558, 559, 560, 561, 562, 563, 564, 565, 566, 567, 568, 569, 570, 571, 572, 573, 574, 575, 576, 577, 578, 579, 580, 581],
      "AcquisitionTime": ["155016.725000", "155017.512500", "155018.300000", "155019.090000", "155019.877500", "155020.665000", "155021.452500", "155022.242500", "155023.030000", "155023.817500", "155024.607500", "155025.395000", "155026.182500", "155026.970000", "155027.760000", "155028.547500", "155029.335000", "155030.122500", "155030.912500", "155031.700000", "155032.487500", "155033.275000", "155034.065000", "155034.852500", "155035.640000", "155036.427500", "155037.217500", "155038.005000", "155038.792500", "155039.580000", "155040.370000", "155041.157500", "155041.945000", "155042.735000", "155043.522500", "155044.310000", "155045.097500", "155045.887500", "155046.675000", "155047.462500", "155048.250000", "155049.040000", "155049.827500", "155050.615000", "155051.402500", "155052.192500", "155052.980000", "155053.767500", "155054.555000", "155055.345000", "155056.132500", "155056.920000", "155057.707500", "155058.497500", "155059.285000", "155100.072500", "155100.862500", "155101.650000", "155102.437500", "155103.225000", "155104.015000", "155104.802500", "155105.590000", "155106.377500", "155107.167500", "155107.955000", "155108.742500", "155109.530000", "155110.320000", "155111.107500", "155111.895000", "155112.682500", "155113.472500", "155114.260000", "155115.047500", "155115.837500", "155116.625000", "155117.412500", "155118.200000", "155118.990000", "155119.777500", "155120.565000", "155121.352500", "155122.142500", "155122.930000", "155123.717500", "155124.505000", "155125.295000", "155126.082500", "155126.870000", "155127.657500", "155128.447500", "155129.235000", "155130.022500", "155130.810000", "155131.600000", "155132.387500", "155133.175000", "155133.965000", "155134.752500", "155135.540000", "155136.327500", "155137.117500", "155137.905000", "155138.692500", "155139.480000", "155140.270000", "155141.057500", "155141.845000", "155142.632500", "155143.422500", "155144.210000", "155144.997500", "155145.785000", "155146.575000", "155147.362500", "155148.150000", "155148.937500", "155149.727500", "155150.515000", "155151.302500", "155152.092500", "155152.880000", "155153.667500", "155154.455000", "155155.245000", "155156.032500", "155156.820000", "155157.607500", "155158.397500", "155159.185000", "155159.972500", "155200.760000", "155201.550000", "155202.337500", "155203.125000", "155203.912500", "155204.702500", "155205.490000", "155206.277500", "155207.065000", "155207.855000", "155208.642500", "155209.430000", "155210.220000", "155211.007500", "155211.795000", "155212.582500", "155213.372500", "155214.160000", "155214.947500", "155215.735000", "155216.525000", "155217.312500", "155218.100000", "155218.887500", "155219.677500", "155220.465000", "155221.252500", "155222.040000", "155222.830000", "155223.617500", "155224.405000", "155225.192500", "155225.982500", "155226.770000", "155227.557500", "155228.347500", "155229.135000", "155229.922500", "155230.710000", "155231.500000", "155232.287500", "155233.075000", "155233.862500", "155234.652500", "155235.440000", "155236.227500", "155237.015000", "155237.805000", "155238.592500", "155239.380000", "155240.167500", "155240.957500", "155241.745000", "155242.532500", "155243.320000", "155244.110000", "155244.897500", "155245.685000", "155246.475000", "155247.262500", "155248.050000", "155248.837500", "155249.627500", "155250.415000", "155251.202500", "155251.990000", "155252.780000", "155253.567500", "155254.355000", "155255.142500", "155255.932500", "155256.720000", "155257.507500", "155258.295000", "155259.085000", "155259.872500", "155300.660000", "155301.447500", "155302.237500", "155303.025000", "155303.812500", "155304.602500", "155305.390000", "155306.177500", "155306.965000", "155307.755000", "155308.542500", "155309.330000", "155310.117500", "155310.907500", "155311.695000", "155312.482500", "155313.270000", "155314.060000", "155314.847500", "155315.635000", "155316.422500", "155317.212500", "155318.000000", "155318.787500", "155319.575000", "155320.365000", "155321.152500", "155321.940000", "155322.730000", "155323.517500", "155324.305000", "155325.092500", "155325.882500", "155326.670000", "155327.457500", "155328.245000", "155329.035000", "155329.822500", "155330.610000", "155331.397500", "155332.187500", "155332.975000", "155333.762500", "155334.550000", "155335.340000", "155336.127500", "155336.915000", "155337.702500", "155338.492500", "155339.280000", "155340.067500", "155340.857500", "155341.645000", "155342.432500", "155343.220000", "155344.010000", "155344.797500", "155345.585000", "155346.372500", "155347.162500", "155347.950000", "155348.737500", "155349.525000", "155350.315000", "155351.102500", "155351.890000", "155352.677500", "155353.467500", "155354.255000", "155355.042500", "155355.830000", "155356.620000", "155357.407500", "155358.195000", "155358.985000", "155359.772500", "155400.560000", "155401.347500", "155402.137500", "155402.925000", "155403.712500", "155404.500000", "155405.290000", "155406.077500", "155406.865000", "155407.652500", "155408.442500", "155409.230000", "155410.017500", "155410.805000", "155411.595000", "155412.382500", "155413.170000", "155413.957500", "155414.747500", "155415.535000", "155416.322500", "155417.112500", "155417.900000", "155418.687500", "155419.475000", "155420.265000", "155421.052500", "155421.840000", "155422.627500", "155423.417500", "155424.205000", "155424.992500", "155425.780000", "155426.570000", "155427.357500", "155428.145000", "155428.932500", "155429.722500", "155430.510000", "155431.297500", "155432.087500", "155432.875000", "155433.662500", "155434.450000", "155435.240000", "155436.027500", "155436.815000", "155437.602500", "155438.392500", "155439.180000", "155439.967500", "155440.755000", "155441.545000", "155442.332500", "155443.120000", "155443.907500", "155444.697500", "155445.485000", "155446.272500", "155447.060000", "155447.850000", "155448.637500", "155449.425000", "155450.215000", "155451.002500", "155451.790000", "155452.577500", "155453.367500", "155454.155000", "155454.942500", "155455.730000", "155456.520000", "155457.307500", "155458.095000", "155458.882500", "155459.672500", "155500.460000", "155501.247500", "155502.035000", "155502.825000", "155503.612500", "155504.400000", "155505.187500", "155505.977500", "155506.765000", "155507.552500", "155508.342500", "155509.130000", "155509.917500", "155510.705000", "155511.495000", "155512.282500", "155513.070000", "155513.857500", "155514.647500", "155515.435000", "155516.222500", "155517.010000", "155517.800000", "155518.587500", "155519.375000", "155520.162500", "155520.952500", "155521.740000", "155522.527500", "155523.315000", "155524.105000", "155524.892500", "155525.680000", "155526.470000", "155527.257500", "155528.045000", "155528.832500", "155529.622500", "155530.410000", "155531.197500", "155531.985000", "155532.775000", "155533.562500", "155534.350000", "155535.137500", "155535.927500", "155536.715000", "155537.502500", "155538.290000", "155539.080000", "155539.867500", "155540.655000", "155541.442500", "155542.232500", "155543.020000", "155543.807500", "155544.597500", "155545.385000", "155546.172500", "155546.960000", "155547.750000", "155548.537500", "155549.325000", "155550.112500", "155550.902500", "155551.690000", "155552.477500", "155553.265000", "155554.055000", "155554.842500", "155555.630000", "155556.417500", "155557.207500", "155557.995000", "155558.782500", "155559.570000", "155600.360000", "155601.147500", "155601.935000", "155602.725000", "155603.512500", "155604.300000", "155605.087500", "155605.877500", "155606.665000", "155607.452500", "155608.240000", "155609.030000", "155609.817500", "155610.605000", "155611.392500", "155612.182500", "155612.970000", "155613.757500", "155614.545000", "155615.335000", "155616.122500", "155616.910000", "155617.697500", "155618.487500", "155619.275000", "155620.062500", "155620.852500", "155621.640000", "155622.427500", "155623.215000", "155624.005000", "155624.792500", "155625.580000", "155626.367500", "155627.157500", "155627.945000", "155628.732500", "155629.520000", "155630.310000", "155631.097500", "155631.885000", "155632.672500", "155633.462500", "155634.250000", "155635.037500", "155635.825000", "155636.615000", "155637.402500", "155638.190000", "155638.980000", "155639.767500", "155640.555000", "155641.342500", "155642.132500", "155642.920000", "155643.707500", "155644.495000", "155645.285000", "155646.072500", "155646.860000", "155647.647500", "155648.437500", "155649.225000", "155650.012500", "155650.800000", "155651.590000", "155652.377500", "155653.165000", "155653.952500", "155654.742500", "155655.530000", "155656.317500", "155657.107500", "155657.895000", "155658.682500", "155659.470000", "155700.260000", "155701.047500", "155701.835000", "155702.622500", "155703.412500", "155704.200000", "155704.987500", "155705.775000", "155706.565000", "155707.352500", "155708.140000", "155708.927500", "155709.717500", "155710.505000", "155711.292500", "155712.080000", "155712.870000", "155713.657500", "155714.445000", "155715.235000", "155716.022500", "155716.810000", "155717.597500", "155718.387500", "155719.175000", "155719.962500", "155720.750000", "155721.540000", "155722.327500", "155723.115000", "155723.902500", "155724.692500", "155725.480000", "155726.267500", "155727.055000", "155727.845000", "155728.632500", "155729.420000", "155730.207500", "155730.997500", "155731.785000", "155732.572500", "155733.362500", "155734.150000", "155734.937500", "155735.725000", "155736.515000", "155737.302500", "155738.090000", "155738.877500", "155739.667500", "155740.455000", "155741.242500", "155742.030000", "155742.820000", "155743.607500", "155744.395000", "155745.182500", "155745.972500", "155746.760000", "155747.547500", "155748.337500", "155749.125000", "155749.912500", "155750.700000", "155751.490000", "155752.277500", "155753.065000", "155753.852500"],
      "ContentTime": ["164711.093000", "164711.093000", "164711.093000", "164711.093000", "164711.109000", "164711.109000", "164811.078000", "164811.078000", "164811.078000", "164811.078000", "164811.078000", "164811.078000", "164811.078000", "164811.093000", "164811.093000", "164811.093000", "164811.093000", "164811.093000", "164811.093000", "164811.093000", "164811.109000", "164811.109000", "164811.109000", "164811.109000", "164811.109000", "164811.109000", "164811.109000", "164811.125000", "164811.125000", "164811.125000", "164811.125000", "164811.125000", "164811.125000", "164811.140000", "164911.078000", "164911.078000", "164911.078000", "164911.078000", "164911.078000", "164911.078000", "164911.078000", "164911.093000", "164911.093000", "164911.093000", "164911.093000", "164911.093000", "164911.093000", "164911.093000", "164911.109000", "164911.109000", "164911.109000", "164911.109000", "164911.109000", "164911.109000", "164911.109000", "164911.125000", "164911.125000", "164911.125000", "164911.125000", "164911.125000", "164911.140000", "164911.140000", "165011.078000", "165011.078000", "165011.078000", "165011.078000", "165011.078000", "165011.078000", "165011.078000", "165011.093000", "165011.093000", "165011.093000", "165011.093000", "165011.093000", "165011.093000", "165011.093000", "165011.109000", "165011.109000", "165011.109000", "165011.109000", "165011.109000", "165011.109000", "165011.109000", "165011.125000", "165011.125000", "165011.125000", "165011.125000", "165011.125000", "165011.125000", "165011.125000", "165111.078000", "165111.078000", "165111.078000", "165111.078000", "165111.078000", "165111.078000", "165111.078000", "165111.093000", "165111.093000", "165111.093000", "165111.093000", "165111.093000", "165111.093000", "165111.109000", "165111.109000", "165111.109000", "165111.109000", "165111.109000", "165111.109000", "165111.109000", "165111.125000", "165111.125000", "165111.125000", "165111.125000", "165111.125000", "165111.125000", "165111.125000", "165111.140000", "165211.078000", "165211.078000", "165211.078000", "165211.078000", "165211.078000", "165211.078000", "165211.078000", "165211.093000", "165211.093000", "165211.093000", "165211.093000", "165211.093000", "165211.093000", "165211.093000", "165211.109000", "165211.109000", "165211.109000", "165211.109000", "165211.109000", "165211.109000", "165211.109000", "165211.125000", "165211.125000", "165211.125000", "165211.125000", "165211.125000", "165211.125000", "165211.125000", "165311.078000", "165311.078000", "165311.078000", "165311.078000", "165311.078000", "165311.078000", "165311.078000", "165311.093000", "165311.093000", "165311.093000", "165311.093000", "165311.093000", "165311.109000", "165311.109000", "165311.109000", "165311.125000", "165311.125000", "165311.125000", "165311.125000", "165311.125000", "165311.125000", "165311.125000", "165311.140000", "165311.140000", "165311.140000", "165311.140000", "165311.140000", "165311.140000", "165411.078000", "165411.078000", "165411.078000", "165411.078000", "165411.078000", "165411.078000", "165411.078000", "165411.093000", "165411.093000", "165411.093000", "165411.093000", "165411.093000", "165411.093000", "165411.109000", "165411.109000", "165411.109000", "165411.109000", "165411.109000", "165411.109000", "165411.109000", "165411.125000", "165411.125000", "165411.125000", "165411.125000", "165411.125000", "165411.125000", "165411.125000", "165411.140000", "165411.140000", "165511.078000", "165511.078000", "165511.078000", "165511.078000", "165511.078000", "165511.078000", "165511.078000", "165511.093000", "165511.093000", "165511.093000", "165511.093000", "165511.093000", "165511.093000", "165511.093000", "165511.109000", "165511.109000", "165511.109000", "165511.109000", "165511.109000", "165511.109000", "165511.109000", "165511.125000", "165511.125000", "165511.125000", "165511.125000", "165511.140000", "165511.140000", "165511.140000", "165611.078000", "165611.078000", "165611.078000", "165611.078000", "165611.078000", "165611.078000", "165611.078000", "165611.093000", "165611.093000", "165611.093000", "165611.093000", "165611.093000", "165611.093000", "165611.093000", "165611.109000", "165611.109000", "165611.109000", "165611.109000", "165611.109000", "165611.109000", "165611.125000", "165611.125000", "165611.125000", "165611.125000", "165611.125000", "165611.125000", "165611.125000", "165611.140000", "165711.078000", "165711.078000", "165711.078000", "165711.078000", "165711.078000", "165711.078000", "165711.078000", "165711.093000", "165711.093000", "165711.093000", "165711.093000", "165711.093000", "165711.109000", "165711.109000", "165711.109000", "165711.109000", "165711.109000", "165711.109000", "165711.109000", "165711.125000", "165711.125000", "165711.125000", "165711.125000", "165711.125000", "165711.125000", "165711.125000", "165711.140000", "165711.140000", "165811.078000", "165811.078000", "165811.078000", "165811.078000", "165811.078000", "165811.078000", "165811.093000", "165811.093000", "165811.093000", "165811.093000", "165811.093000", "165811.093000", "165811.093000", "165811.109000", "165811.109000", "165811.109000", "165811.109000", "165811.109000", "165811.109000", "165811.109000", "165811.125000", "165811.125000", "165811.125000", "165811.125000", "165811.125000", "165811.125000", "165811.125000", "165811.140000", "165811.140000", "165911.078000", "165911.078000", "165911.078000", "165911.078000", "165911.078000", "165911.078000", "165911.078000", "165911.093000", "165911.093000", "165911.093000", "165911.093000", "165911.093000", "165911.093000", "165911.093000", "165911.109000", "165911.109000", "165911.109000", "165911.109000", "165911.109000", "165911.109000", "165911.109000", "165911.125000", "165911.125000", "165911.125000", "165911.125000", "165911.125000", "165911.125000", "165911.140000", "170011.078000", "170011.078000", "170011.078000", "170011.078000", "170011.078000", "170011.078000", "170011.078000", "170011.093000", "170011.093000", "170011.093000", "170011.093000", "170011.093000", "170011.093000", "170011.093000", "170011.109000", "170011.109000", "170011.109000", "170011.109000", "170011.109000", "170011.109000", "170011.125000", "170011.125000", "170011.125000", "170011.125000", "170011.125000", "170011.125000", "170011.140000", "170011.140000", "170111.078000", "170111.078000", "170111.078000", "170111.078000", "170111.078000", "170111.078000", "170111.078000", "170111.093000", "170111.093000", "170111.093000", "170111.093000", "170111.093000", "170111.093000", "170111.093000", "170111.109000", "170111.109000", "170111.109000", "170111.109000", "170111.109000", "170111.109000", "170111.109000", "170111.125000", "170111.125000", "170111.125000", "170111.125000", "170111.125000", "170111.125000", "170111.125000", "170211.078000", "170211.078000", "170211.078000", "170211.078000", "170211.078000", "170211.078000", "170211.078000", "170211.093000", "170211.093000", "170211.093000", "170211.093000", "170211.093000", "170211.093000", "170211.093000", "170211.109000", "170211.109000", "170211.109000", "170211.109000", "170211.125000", "170211.125000", "170211.125000", "170211.125000", "170211.125000", "170211.125000", "170211.125000", "170211.140000", "170211.140000", "170211.140000", "170311.078000", "170311.078000", "170311.078000", "170311.078000", "170311.078000", "170311.078000", "170311.078000", "170311.093000", "170311.093000", "170311.093000", "170311.093000", "170311.093000", "170311.093000", "170311.093000", "170311.109000", "170311.109000", "170311.109000", "170311.109000", "170311.109000", "170311.125000", "170311.125000", "170311.125000", "170311.140000", "170311.140000", "170311.140000", "170311.140000", "170311.140000", "170311.156000", "170311.156000", "170411.078000", "170411.078000", "170411.078000", "170411.078000", "170411.078000", "170411.078000", "170411.078000", "170411.093000", "170411.093000", "170411.093000", "170411.093000", "170411.093000", "170411.093000", "170411.093000", "170411.109000", "170411.109000", "170411.109000", "170411.109000", "170411.109000", "170411.109000", "170411.109000", "170411.125000", "170411.125000", "170411.125000", "170411.125000", "170411.125000", "170411.125000", "170411.125000", "170511.078000", "170511.078000", "170511.078000", "170511.078000", "170511.078000", "170511.078000", "170511.078000", "170511.093000", "170511.093000", "170511.093000", "170511.093000", "170511.093000", "170511.093000", "170511.093000", "170511.109000", "170511.109000", "170511.109000", "170511.109000", "170511.109000", "170511.109000", "170511.109000", "170511.125000", "170511.125000", "170511.125000", "170511.125000", "170511.125000", "170511.140000", "170511.140000", "170611.078000", "170611.078000", "170611.078000", "170611.078000", "170611.078000", "170611.078000", "170611.078000", "170611.093000", "170611.093000", "170611.093000", "170611.093000", "170611.093000", "170611.093000", "170611.093000", "170611.109000", "170611.109000", "170611.109000", "170611.109000", "170611.109000", "170611.109000", "170611.109000", "170611.125000", "170611.125000", "170611.125000", "170611.125000", "170611.125000", "170611.125000", "170611.125000", "170711.078000", "170711.078000", "170711.078000", "170711.078000", "170711.078000", "170711.078000", "170711.078000", "170711.093000", "170711.093000", "170711.093000", "170711.093000", "170711.093000", "170711.093000", "170711.109000", "170711.109000", "170711.109000", "170711.109000", "170711.109000", "170711.109000", "170711.109000", "170711.125000", "170711.125000", "170711.125000", "170711.125000", "170711.125000", "170711.125000", "170711.125000", "170711.140000", "170734.437000", "170734.437000", "170734.453000", "170734.453000", "170734.453000", "170734.453000", "170734.453000", "170734.453000", "170734.453000", "170734.468000", "170734.468000", "170734.468000"],
      "DataSetTrailingPadding": [
        "\u0000\u0000\u0000\u0000\u0000\u0000\u0000\u0000\u0000\u0000\u0000\u0000\u0000\u0000\u0000\u0000\u0000\u0000\u0000\u0000\u0000\u0000\u0000\u0000\u0000\u0000\u0000\u0000\u0000\u0000\u0000\u0000\u0000\u0000\u0000\u0000\u0000\u0000\u0000\u0000\u0000\u0000\u0000\u0000\u0000\u0000\u0000\u0000\u0000\u0000\u0000\u0000\u0000\u0000\u0000\u0000\u0000\u0000\u0000\u0000\u0000\u0000\u0000\u0000\u0000\u0000\u0000\u0000\u0000\u0000\u0000\u0000\u0000\u0000\u0000\u0000\u0000\u0000\u0000\u0000\u0000\u0000\u0000\u0000\u0000\u0000\u0000\u0000\u0000\u0000\u0000\u0000\u0000\u0000\u0000\u0000\u0000\u0000\u0000\u0000\u0000\u0000\u0000\u0000\u0000\u0000\u0000\u0000\u0000\u0000\u0000\u0000\u0000\u0000\u0000\u0000\u0000\u0000\u0000\u0000\u0000\u0000\u0000\u0000\u0000\u0000\u0000\u0000\u0000\u0000\u0000\u0000\u0000\u0000\u0000\u0000\u0000\u0000\u0000\u0000\u0000\u0000\u0000\u0000\u0000\u0000\u0000\u0000\u0000\u0000\u0000\u0000\u0000\u0000\u0000\u0000\u0000\u0000\u0000\u0000\u0000\u0000\u0000\u0000\u0000\u0000\u0000\u0000\u0000\u0000\u0000\u0000\u0000\u0000\u0000\u0000\u0000\u0000\u0000\u0000\u0000\u0000\u0000\u0000\u0000\u0000\u0000\u0000\u0000\u0000\u0000\u0000\u0000\u0000\u0000\u0000\u0000\u0000\u0000\u0000\u0000\u0000\u0000\u0000\u0000\u0000\u0000\u0000\u0000\u0000\u0000\u0000\u0000\u0000\u0000\u0000\u0000\u0000\u0000\u0000\u0000\u0000\u0000\u0000\u0000\u0000\u0000\u0000\u0000\u0000\u0000\u0000\u0000\u0000\u0000\u0000\u0000\u0000\u0000\u0000\u0000\u0000\u0000\u0000\u0000\u0000\u0000\u0000\u0000\u0000\u0000\u0000\u0000\u0000\u0000\u0000\u0000\u0000\u0000\u0000\u0000\u0000\u0000\u0000\u0000\u0000\u0000\u0000\u0000\u0000\u0000\u0000\u0000\u0000\u0000\u0000\u0000\u0000\u0000\u0000",
