{
  "AcquisitionMatrixPE": 104,
  "AcquisitionNumber": 1,
  "AcquisitionTime": "15:14:3.705000",
  "BandwidthPerPixelPhaseEncode": 13.935,
  "BaseResolution": 104,
  "CoilString": "C:HEA;HEP",
  "ConversionSoftware": "dcm2niix",
  "ConversionSoftwareVersion": "v1.0.20210317",
  "DerivedVendorReportedEchoSpacing": 0.000690017,
  "DeviceSerialNumber": "35450",
  "DwellTime": 2.5e-06,
  "EchoTime": 0.0348,
  "EffectiveEchoSpacing": 0.000690017,
  "FlipAngle": 55,
  "ImageComments": "Unaliased MB8/PE3 (remote)",
  "ImageOrientationPatientDICOM": [0.999976, 0.000596284, 0.00695574, 3.36649e-08, 0.996345, -0.0854169],
  "ImageType": [
    "ORIGINAL",
    "PRIMARY",
    "M",
    "MB",
    "ND",
    "MOSAIC"
],
  "ImagingFrequency": 123.235,
  "InPlanePhaseEncodingDirectionDICOM": "COL",
  "InstitutionAddress": "Univeristy Ave. 197,Newark,North East,US,07102-1814",
  "InstitutionName": "RUBIC",
  "InstitutionalDepartmentName": "Department",
  "MRAcquisitionType": "2D",
  "MagneticFieldStrength": 3,
  "Manufacturer": "Siemens",
  "ManufacturersModelName": "TrioTim",
  "Modality": "MR",
  "MultibandAccelerationFactor": 8,
  "PartialFourier": 0.875,
  "PatientPosition": "HFS",
  "PercentPhaseFOV": 100,
  "PercentSampling": 100,
  "PhaseEncodingDirection": "j-",
  "PhaseEncodingSteps": 91,
  "PhaseResolution": 1,
  "PixelBandwidth": 1923,
  "ProcedureStepDescription": "Cole^Michael",
  "ProtocolName": "cmrr_mbep2d_bold_2mm_MB8_Task_8x",
  "PulseSequenceDetails": "%CustomerSeq%\\cmrr_mbep2d_bold",
  "ReceiveCoilName": "32Ch_Head",
  "ReconMatrixPE": 104,
  "RepetitionTime": 0.785,
  "SAR": 0.135054,
  "ScanOptions": "PFP\\FS",
  "ScanningSequence": "EP",
  "SequenceName": "epfid2d1_104",
  "SequenceVariant": "SK\\SS",
  "SeriesDescription": "cmrr_mbep2d_bold_2mm_MB8_Task_8x",
  "SeriesNumber": 17,
  "ShimSetting": [2123, -356, -7519, 575, 113, 169, -261, 80],
  "SliceThickness": 2,
  "SliceTiming": [0, 0.4375, 0.0875, 0.525, 0.175, 0.6125, 0.2625, 0.7, 0.35, 0, 0.4375, 0.0875, 0.525, 0.175, 0.6125, 0.2625, 0.7, 0.35, 0, 0.4375, 0.0875, 0.525, 0.175, 0.6125, 0.2625, 0.7, 0.35, 0, 0.4375, 0.0875, 0.525, 0.175, 0.6125, 0.2625, 0.7, 0.35, 0, 0.4375, 0.0875, 0.525, 0.175, 0.6125, 0.2625, 0.7, 0.35, 0, 0.4375, 0.0875, 0.525, 0.175, 0.6125, 0.2625, 0.7, 0.35, 0, 0.4375, 0.0875, 0.525, 0.175, 0.6125, 0.2625, 0.7, 0.35, 0, 0.4375, 0.0875, 0.525, 0.175, 0.6125, 0.2625, 0.7, 0.35],
  "SoftwareVersions": "syngo MR B19",
  "SpacingBetweenSlices": 2,
  "StationName": "MRC35450",
  "TaskName": "cpro",
  "TotalReadoutTime": 0.0710717,
  "TxRefAmp": 344.365,
  "dcmmeta_affine": [
    [-1.9999512434005737, 6.732970803113858e-08, 0.013962511904537678, 103.50179290771484],
    [-0.0011925677536055446, 1.9926905632019043, -0.1708296686410904, -82.31025695800781],
    [0.013911489397287369, 0.17083384096622467, 1.9926420450210571, -110.3884048461914],
    [0.0, 0.0, 0.0, 1.0]
],
  "dcmmeta_reorient_transform": [
    [0.0, -1.0, 0.0, 103.0],
    [1.0, 0.0, 0.0, 0.0],
    [0.0, 0.0, 1.0, 0.0],
    [0.0, 0.0, 0.0, 1.0]
],
  "dcmmeta_shape": [104, 104, 72, 581],
  "dcmmeta_slice_dim": 2,
  "dcmmeta_version": 0.6,
  "global": {
    "const": {
      "AcquisitionMatrix": [104, 0, 0, 104],
      "AngioFlag": "N",
      "BitsAllocated": 16,
      "BitsStored": 12,
      "Columns": 936,
      "EchoNumbers": 1,
      "EchoTime": 34.8,
      "EchoTrainLength": 1,
      "FlipAngle": 55.0,
      "HighBit": 11,
      "ImageOrientationPatient": [0.99997563073306, 0.00059628386872, 0.00695574478872, 3.3664854e-08, 0.9963452965109, -0.0854169194048],
      "ImagePositionPatient": [-935.48155239231, -952.39227071238, -27.512824690175],
      "ImageType": [
        "ORIGINAL",
        "PRIMARY",
        "M",
        "MB",
        "ND",
        "MOSAIC"
],
      "ImagedNucleus": "1H",
      "ImagingFrequency": 123.234711,
      "InPlanePhaseEncodingDirection": "COL",
      "MRAcquisitionType": "2D",
      "MagneticFieldStrength": 3.0,
      "Manufacturer": "SIEMENS",
      "ManufacturerModelName": "TrioTim",
      "Modality": "MR",
      "NumberOfAverages": 1.0,
      "NumberOfPhaseEncodingSteps": 91,
      "PercentPhaseFieldOfView": 100.0,
      "PercentSampling": 100.0,
      "PerformedProcedureStepStartTime": "134130.437000",
      "PhotometricInterpretation": "MONOCHROME2",
      "PixelBandwidth": 1923.0,
      "PixelRepresentation": 0,
      "PixelSpacing": [2.0, 2.0],
      "ProtocolName": "cmrr_mbep2d_bold_2mm_MB8_Task_8x",
      "RepetitionTime": 785.0,
      "Rows": 936,
      "SAR": 0.13505422233751,
      "SamplesPerPixel": 1,
      "ScanOptions": [
        "PFP",
        "FS"
],
      "ScanningSequence": "EP",
      "SequenceName": "epfid2d1_104",
      "SequenceVariant": [
        "SK",
        "SS"
],
      "SeriesDescription": "cmrr_mbep2d_bold_2mm_MB8_Task_8x",
      "SeriesNumber": 17,
      "SeriesTime": "151436.531000",
      "SliceLocation": -102.22920054448,
      "SliceThickness": 2.0,
      "SmallestImagePixelValue": 0,
      "SoftwareVersions": "syngo MR B19",
      "SpacingBetweenSlices": 1.9999999535702,
      "SpecificCharacterSet": "ISO_IR 100",
      "StudyID": "1",
      "StudyTime": "134130.406000",
      "TransmitCoilName": "Body",
      "VariableFlipAngleFlag": "N",
      "WindowCenterWidthExplanation": "Algo1",
      "dBdt": 0.0},
    "slices": {}
  },
  "time": {
    "samples": {
      "AcquisitionNumber": [1, 2, 3, 4, 5, 6, 7, 8, 9, 10, 11, 12, 13, 14, 15, 16, 17, 18, 19, 20, 21, 22, 23, 24, 25, 26, 27, 28, 29, 30, 31, 32, 33, 34, 35, 36, 37, 38, 39, 40, 41, 42, 43, 44, 45, 46, 47, 48, 49, 50, 51, 52, 53, 54, 55, 56, 57, 58, 59, 60, 61, 62, 63, 64, 65, 66, 67, 68, 69, 70, 71, 72, 73, 74, 75, 76, 77, 78, 79, 80, 81, 82, 83, 84, 85, 86, 87, 88, 89, 90, 91, 92, 93, 94, 95, 96, 97, 98, 99, 100, 101, 102, 103, 104, 105, 106, 107, 108, 109, 110, 111, 112, 113, 114, 115, 116, 117, 118, 119, 120, 121, 122, 123, 124, 125, 126, 127, 128, 129, 130, 131, 132, 133, 134, 135, 136, 137, 138, 139, 140, 141, 142, 143, 144, 145, 146, 147, 148, 149, 150, 151, 152, 153, 154, 155, 156, 157, 158, 159, 160, 161, 162, 163, 164, 165, 166, 167, 168, 169, 170, 171, 172, 173, 174, 175, 176, 177, 178, 179, 180, 181, 182, 183, 184, 185, 186, 187, 188, 189, 190, 191, 192, 193, 194, 195, 196, 197, 198, 199, 200, 201, 202, 203, 204, 205, 206, 207, 208, 209, 210, 211, 212, 213, 214, 215, 216, 217, 218, 219, 220, 221, 222, 223, 224, 225, 226, 227, 228, 229, 230, 231, 232, 233, 234, 235, 236, 237, 238, 239, 240, 241, 242, 243, 244, 245, 246, 247, 248, 249, 250, 251, 252, 253, 254, 255, 256, 257, 258, 259, 260, 261, 262, 263, 264, 265, 266, 267, 268, 269, 270, 271, 272, 273, 274, 275, 276, 277, 278, 279, 280, 281, 282, 283, 284, 285, 286, 287, 288, 289, 290, 291, 292, 293, 294, 295, 296, 297, 298, 299, 300, 301, 302, 303, 304, 305, 306, 307, 308, 309, 310, 311, 312, 313, 314, 315, 316, 317, 318, 319, 320, 321, 322, 323, 324, 325, 326, 327, 328, 329, 330, 331, 332, 333, 334, 335, 336, 337, 338, 339, 340, 341, 342, 343, 344, 345, 346, 347, 348, 349, 350, 351, 352, 353, 354, 355, 356, 357, 358, 359, 360, 361, 362, 363, 364, 365, 366, 367, 368, 369, 370, 371, 372, 373, 374, 375, 376, 377, 378, 379, 380, 381, 382, 383, 384, 385, 386, 387, 388, 389, 390, 391, 392, 393, 394, 395, 396, 397, 398, 399, 400, 401, 402, 403, 404, 405, 406, 407, 408, 409, 410, 411, 412, 413, 414, 415, 416, 417, 418, 419, 420, 421, 422, 423, 424, 425, 426, 427, 428, 429, 430, 431, 432, 433, 434, 435, 436, 437, 438, 439, 440, 441, 442, 443, 444, 445, 446, 447, 448, 449, 450, 451, 452, 453, 454, 455, 456, 457, 458, 459, 460, 461, 462, 463, 464, 465, 466, 467, 468, 469, 470, 471, 472, 473, 474, 475, 476, 477, 478, 479, 480, 481, 482, 483, 484, 485, 486, 487, 488, 489, 490, 491, 492, 493, 494, 495, 496, 497, 498, 499, 500, 501, 502, 503, 504, 505, 506, 507, 508, 509, 510, 511, 512, 513, 514, 515, 516, 517, 518, 519, 520, 521, 522, 523, 524, 525, 526, 527, 528, 529, 530, 531, 532, 533, 534, 535, 536, 537, 538, 539, 540, 541, 542, 543, 544, 545, 546, 547, 548, 549, 550, 551, 552, 553, 554, 555, 556, 557, 558, 559, 560, 561, 562, 563, 564, 565, 566, 567, 568, 569, 570, 571, 572, 573, 574, 575, 576, 577, 578, 579, 580, 581],
      "AcquisitionTime": ["151403.705000", "151404.492500", "151405.280000", "151406.067500", "151406.857500", "151407.645000", "151408.432500", "151409.220000", "151410.010000", "151410.797500", "151411.585000", "151412.372500", "151413.162500", "151413.950000", "151414.737500", "151415.527500", "151416.315000", "151417.102500", "151417.890000", "151418.680000", "151419.467500", "151420.255000", "151421.042500", "151421.832500", "151422.620000", "151423.407500", "151424.195000", "151424.985000", "151425.772500", "151426.560000", "151427.347500", "151428.137500", "151428.925000", "151429.712500", "151430.500000", "151431.290000", "151432.077500", "151432.865000", "151433.655000", "151434.442500", "151435.230000", "151436.017500", "151436.807500", "151437.595000", "151438.382500", "151439.170000", "151439.960000", "151440.747500", "151441.535000", "151442.322500", "151443.112500", "151443.900000", "151444.687500", "151445.475000", "151446.265000", "151447.052500", "151447.840000", "151448.627500", "151449.417500", "151450.205000", "151450.992500", "151451.782500", "151452.570000", "151453.357500", "151454.145000", "151454.935000", "151455.722500", "151456.510000", "151457.297500", "151458.087500", "151458.875000", "151459.662500", "151500.450000", "151501.240000", "151502.027500", "151502.815000", "151503.602500", "151504.392500", "151505.180000", "151505.967500", "151506.755000", "151507.545000", "151508.332500", "151509.120000", "151509.910000", "151510.697500", "151511.485000", "151512.272500", "151513.062500", "151513.850000", "151514.637500", "151515.425000", "151516.215000", "151517.002500", "151517.790000", "151518.577500", "151519.367500", "151520.155000", "151520.942500", "151521.730000", "151522.520000", "151523.307500", "151524.095000", "151524.882500", "151525.672500", "151526.460000", "151527.247500", "151528.037500", "151528.825000", "151529.612500", "151530.400000", "151531.190000", "151531.977500", "151532.765000", "151533.552500", "151534.342500", "151535.130000", "151535.917500", "151536.705000", "151537.495000", "151538.282500", "151539.070000", "151539.857500", "151540.647500", "151541.435000", "151542.222500", "151543.010000", "151543.800000", "151544.587500", "151545.375000", "151546.165000", "151546.952500", "151547.740000", "151548.527500", "151549.317500", "151550.105000", "151550.892500", "151551.680000", "151552.470000", "151553.257500", "151554.045000", "151554.832500", "151555.622500", "151556.410000", "151557.197500", "151557.985000", "151558.775000", "151559.562500", "151600.350000", "151601.137500", "151601.927500", "151602.715000", "151603.502500", "151604.292500", "151605.080000", "151605.867500", "151606.655000", "151607.445000", "151608.232500", "151609.020000", "151609.807500", "151610.597500", "151611.385000", "151612.172500", "151612.960000", "151613.750000", "151614.537500", "151615.325000", "151616.112500", "151616.902500", "151617.690000", "151618.477500", "151619.265000", "151620.055000", "151620.842500", "151621.630000", "151622.420000", "151623.207500", "151623.995000", "151624.782500", "151625.572500", "151626.360000", "151627.147500", "151627.935000", "151628.725000", "151629.512500", "151630.300000", "151631.087500", "151631.877500", "151632.665000", "151633.452500", "151634.240000", "151635.030000", "151635.817500", "151636.605000", "151637.392500", "151638.182500", "151638.970000", "151639.757500", "151640.547500", "151641.335000", "151642.122500", "151642.910000", "151643.700000", "151644.487500", "151645.275000", "151646.062500", "151646.852500", "151647.640000", "151648.427500", "151649.215000", "151650.005000", "151650.792500", "151651.580000", "151652.367500", "151653.157500", "151653.945000", "151654.732500", "151655.522500", "151656.310000", "151657.097500", "151657.885000", "151658.675000", "151659.462500", "151700.250000", "151701.037500", "151701.827500", "151702.615000", "151703.402500", "151704.190000", "151704.980000", "151705.767500", "151706.555000", "151707.342500", "151708.132500", "151708.920000", "151709.707500", "151710.495000", "151711.285000", "151712.072500", "151712.860000", "151713.650000", "151714.437500", "151715.225000", "151716.012500", "151716.802500", "151717.590000", "151718.377500", "151719.165000", "151719.955000", "151720.742500", "151721.530000", "151722.317500", "151723.107500", "151723.895000", "151724.682500", "151725.470000", "151726.260000", "151727.047500", "151727.835000", "151728.622500", "151729.412500", "151730.200000", "151730.987500", "151731.777500", "151732.565000", "151733.352500", "151734.140000", "151734.930000", "151735.717500", "151736.505000", "151737.292500", "151738.082500", "151738.870000", "151739.657500", "151740.445000", "151741.235000", "151742.022500", "151742.810000", "151743.597500", "151744.387500", "151745.175000", "151745.962500", "151746.750000", "151747.540000", "151748.327500", "151749.115000", "151749.905000", "151750.692500", "151751.480000", "151752.267500", "151753.057500", "151753.845000", "151754.632500", "151755.420000", "151756.210000", "151756.997500", "151757.785000", "151758.572500", "151759.362500", "151800.150000", "151800.937500", "151801.725000", "151802.515000", "151803.302500", "151804.090000", "151804.877500", "151805.667500", "151806.455000", "151807.242500", "151808.032500", "151808.820000", "151809.607500", "151810.395000", "151811.185000", "151811.972500", "151812.760000", "151813.547500", "151814.337500", "151815.125000", "151815.912500", "151816.700000", "151817.490000", "151818.277500", "151819.065000", "151819.852500", "151820.642500", "151821.430000", "151822.217500", "151823.005000", "151823.795000", "151824.582500", "151825.370000", "151826.160000", "151826.947500", "151827.735000", "151828.522500", "151829.312500", "151830.100000", "151830.887500", "151831.675000", "151832.465000", "151833.252500", "151834.040000", "151834.827500", "151835.617500", "151836.405000", "151837.192500", "151837.980000", "151838.770000", "151839.557500", "151840.345000", "151841.132500", "151841.922500", "151842.710000", "151843.497500", "151844.287500", "151845.075000", "151845.862500", "151846.650000", "151847.440000", "151848.227500", "151849.015000", "151849.802500", "151850.592500", "151851.380000", "151852.167500", "151852.955000", "151853.745000", "151854.532500", "151855.320000", "151856.107500", "151856.897500", "151857.685000", "151858.472500", "151859.260000", "151900.050000", "151900.837500", "151901.625000", "151902.415000", "151903.202500", "151903.990000", "151904.777500", "151905.567500", "151906.355000", "151907.142500", "151907.930000", "151908.720000", "151909.507500", "151910.295000", "151911.082500", "151911.872500", "151912.660000", "151913.447500", "151914.235000", "151915.025000", "151915.812500", "151916.600000", "151917.387500", "151918.177500", "151918.965000", "151919.752500", "151920.542500", "151921.330000", "151922.117500", "151922.905000", "151923.695000", "151924.482500", "151925.270000", "151926.057500", "151926.847500", "151927.635000", "151928.422500", "151929.210000", "151930.000000", "151930.787500", "151931.575000", "151932.362500", "151933.152500", "151933.940000", "151934.727500", "151935.515000", "151936.305000", "151937.092500", "151937.880000", "151938.670000", "151939.457500", "151940.245000", "151941.032500", "151941.822500", "151942.610000", "151943.397500", "151944.185000", "151944.975000", "151945.762500", "151946.550000", "151947.337500", "151948.127500", "151948.915000", "151949.702500", "151950.490000", "151951.280000", "151952.067500", "151952.855000", "151953.642500", "151954.432500", "151955.220000", "151956.007500", "151956.797500", "151957.585000", "151958.372500", "151959.160000", "151959.950000", "152000.737500", "152001.525000", "152002.312500", "152003.102500", "152003.890000", "152004.677500", "152005.465000", "152006.255000", "152007.042500", "152007.830000", "152008.617500", "152009.407500", "152010.195000", "152010.982500", "152011.772500", "152012.560000", "152013.347500", "152014.135000", "152014.925000", "152015.712500", "152016.500000", "152017.287500", "152018.077500", "152018.865000", "152019.652500", "152020.440000", "152021.230000", "152022.017500", "152022.805000", "152023.592500", "152024.382500", "152025.170000", "152025.957500", "152026.745000", "152027.535000", "152028.322500", "152029.110000", "152029.900000", "152030.687500", "152031.475000", "152032.262500", "152033.052500", "152033.840000", "152034.627500", "152035.415000", "152036.205000", "152036.992500", "152037.780000", "152038.567500", "152039.357500", "152040.145000", "152040.932500", "152041.720000", "152042.510000", "152043.297500", "152044.085000", "152044.872500", "152045.662500", "152046.450000", "152047.237500", "152048.027500", "152048.815000", "152049.602500", "152050.390000", "152051.180000", "152051.967500", "152052.755000", "152053.542500", "152054.332500", "152055.120000", "152055.907500", "152056.695000", "152057.485000", "152058.272500", "152059.060000", "152059.847500", "152100.637500", "152101.425000", "152102.212500", "152103.000000", "152103.790000", "152104.577500", "152105.365000", "152106.155000", "152106.942500", "152107.730000", "152108.517500", "152109.307500", "152110.095000", "152110.882500", "152111.670000", "152112.460000", "152113.247500", "152114.035000", "152114.822500", "152115.612500", "152116.400000", "152117.187500", "152117.975000", "152118.765000", "152119.552500", "152120.340000", "152121.127500", "152121.917500", "152122.705000", "152123.492500", "152124.282500", "152125.070000", "152125.857500", "152126.645000", "152127.435000", "152128.222500", "152129.010000", "152129.797500", "152130.587500", "152131.375000", "152132.162500", "152132.950000", "152133.740000", "152134.527500", "152135.315000", "152136.102500", "152136.892500", "152137.680000", "152138.467500", "152139.255000", "152140.045000", "152140.832500"],
      "ContentTime": ["151436.531000", "151436.531000", "151436.531000", "151436.531000", "151436.546000", "151436.546000", "151436.546000", "151436.546000", "151436.546000", "151436.546000", "151436.546000", "151436.562000", "151436.562000", "151436.562000", "151436.562000", "151436.562000", "151436.562000", "151436.562000", "151436.578000", "151436.578000", "151436.578000", "151436.578000", "151436.578000", "151436.578000", "151436.578000", "151436.593000", "151436.593000", "151436.593000", "151436.593000", "151436.593000", "151436.593000", "151436.593000", "151436.593000", "151436.609000", "151436.609000", "151436.609000", "151436.609000", "151436.609000", "151436.609000", "151456.515000", "151456.515000", "151456.515000", "151456.515000", "151456.515000", "151456.515000", "151456.515000", "151456.531000", "151456.531000", "151456.531000", "151456.531000", "151456.531000", "151456.531000", "151456.531000", "151456.546000", "151456.546000", "151456.546000", "151456.546000", "151456.546000", "151456.546000", "151456.546000", "151456.562000", "151456.562000", "151456.562000", "151456.562000", "151456.562000", "151516.515000", "151516.515000", "151516.515000", "151516.515000", "151516.515000", "151516.515000", "151516.515000", "151516.531000", "151516.531000", "151516.531000", "151516.531000", "151516.546000", "151516.546000", "151516.546000", "151516.546000", "151516.546000", "151516.546000", "151516.546000", "151516.546000", "151516.562000", "151516.562000", "151516.562000", "151516.562000", "151516.562000", "151516.562000", "151536.515000", "151536.515000", "151536.515000", "151536.515000", "151536.515000", "151536.515000", "151536.531000", "151536.531000", "151536.531000", "151536.531000", "151536.531000", "151536.546000", "151536.546000", "151536.546000", "151536.546000", "151536.546000", "151536.546000", "151536.562000", "151536.562000", "151536.562000", "151536.562000", "151536.562000", "151536.562000", "151536.562000", "151536.562000", "151536.578000", "151556.515000", "151556.515000", "151556.515000", "151556.515000", "151556.515000", "151556.531000", "151556.531000", "151556.531000", "151556.531000", "151556.531000", "151556.531000", "151556.531000", "151556.531000", "151556.546000", "151556.546000", "151556.546000", "151556.546000", "151556.562000", "151556.562000", "151556.562000", "151556.562000", "151556.562000", "151556.562000", "151556.578000", "151556.578000", "151616.515000", "151616.515000", "151616.515000", "151616.515000", "151616.515000", "151616.515000", "151616.515000", "151616.531000", "151616.531000", "151616.531000", "151616.531000", "151616.531000", "151616.531000", "151616.531000", "151616.546000", "151616.546000", "151616.546000", "151616.546000", "151616.546000", "151616.546000", "151616.546000", "151616.562000", "151616.562000", "151616.562000", "151616.562000", "151616.562000", "151636.515000", "151636.515000", "151636.515000", "151636.515000", "151636.515000", "151636.515000", "151636.515000", "151636.531000", "151636.531000", "151636.531000", "151636.531000", "151636.531000", "151636.531000", "151636.531000", "151636.546000", "151636.546000", "151636.546000", "151636.546000", "151636.546000", "151636.546000", "151636.546000", "151636.562000", "151636.562000", "151636.562000", "151636.562000", "151656.515000", "151656.515000", "151656.515000", "151656.515000", "151656.515000", "151656.515000", "151656.515000", "151656.531000", "151656.531000", "151656.531000", "151656.531000", "151656.531000", "151656.531000", "151656.531000", "151656.546000", "151656.546000", "151656.546000", "151656.546000", "151656.546000", "151656.546000", "151656.546000", "151656.546000", "151656.562000", "151656.562000", "151656.562000", "151656.562000", "151716.515000", "151716.515000", "151716.515000", "151716.515000", "151716.515000", "151716.515000", "151716.515000", "151716.531000", "151716.531000", "151716.531000", "151716.531000", "151716.531000", "151716.531000", "151716.531000", "151716.531000", "151716.546000", "151716.546000", "151716.546000", "151716.546000", "151716.562000", "151716.562000", "151716.562000", "151716.562000", "151716.562000", "151716.562000", "151736.515000", "151736.515000", "151736.515000", "151736.515000", "151736.515000", "151736.531000", "151736.531000", "151736.531000", "151736.531000", "151736.531000", "151736.531000", "151736.546000", "151736.546000", "151736.546000", "151736.546000", "151736.546000", "151736.546000", "151736.546000", "151736.562000", "151736.562000", "151736.562000", "151736.562000", "151736.562000", "151736.562000", "151736.562000", "151736.562000", "151756.515000", "151756.515000", "151756.515000", "151756.515000", "151756.515000", "151756.515000", "151756.515000", "151756.531000", "151756.531000", "151756.531000", "151756.531000", "151756.531000", "151756.531000", "151756.531000", "151756.531000", "151756.546000", "151756.546000", "151756.546000", "151756.546000", "151756.546000", "151756.546000", "151756.546000", "151756.562000", "151756.562000", "151756.562000", "151816.515000", "151816.515000", "151816.515000", "151816.515000", "151816.515000", "151816.531000", "151816.531000", "151816.531000", "151816.531000", "151816.531000", "151816.546000", "151816.546000", "151816.546000", "151816.546000", "151816.546000", "151816.546000", "151816.562000", "151816.562000", "151816.562000", "151816.562000", "151816.562000", "151816.562000", "151816.562000", "151816.562000", "151816.578000", "151836.515000", "151836.515000", "151836.515000", "151836.515000", "151836.515000", "151836.515000", "151836.515000", "151836.531000", "151836.531000", "151836.531000", "151836.531000", "151836.531000", "151836.531000", "151836.531000", "151836.531000", "151836.546000", "151836.546000", "151836.546000", "151836.546000", "151836.546000", "151836.546000", "151836.562000", "151836.562000", "151836.562000", "151836.562000", "151836.562000", "151856.515000", "151856.515000", "151856.515000", "151856.515000", "151856.515000", "151856.515000", "151856.531000", "151856.531000", "151856.531000", "151856.531000", "151856.546000", "151856.546000", "151856.546000", "151856.546000", "151856.546000", "151856.546000", "151856.546000", "151856.562000", "151856.562000", "151856.562000", "151856.562000", "151856.562000", "151856.562000", "151856.562000", "151856.578000", "151916.515000", "151916.515000", "151916.515000", "151916.515000", "151916.515000", "151916.515000", "151916.515000", "151916.531000", "151916.531000", "151916.531000", "151916.531000", "151916.531000", "151916.531000", "151916.531000", "151916.546000", "151916.546000", "151916.546000", "151916.546000", "151916.546000", "151916.546000", "151916.546000", "151916.546000", "151916.562000", "151916.562000", "151916.562000", "151916.562000", "151936.515000", "151936.515000", "151936.515000", "151936.515000", "151936.515000", "151936.515000", "151936.515000", "151936.531000", "151936.531000", "151936.531000", "151936.531000", "151936.531000", "151936.531000", "151936.546000", "151936.546000", "151936.546000", "151936.546000", "151936.546000", "151936.546000", "151936.562000", "151936.562000", "151936.562000", "151936.562000", "151936.562000", "151936.562000", "151956.515000", "151956.515000", "151956.515000", "151956.515000", "151956.515000", "151956.515000", "151956.515000", "151956.531000", "151956.531000", "151956.531000", "151956.531000", "151956.531000", "151956.531000", "151956.531000", "151956.546000", "151956.546000", "151956.546000", "151956.546000", "151956.546000", "151956.546000", "151956.546000", "151956.546000", "151956.562000", "151956.562000", "151956.562000", "151956.562000", "152016.515000", "152016.515000", "152016.515000", "152016.515000", "152016.515000", "152016.515000", "152016.515000", "152016.531000", "152016.531000", "152016.531000", "152016.531000", "152016.531000", "152016.546000", "152016.546000", "152016.546000", "152016.546000", "152016.546000", "152016.546000", "152016.546000", "152016.562000", "152016.562000", "152016.562000", "152016.562000", "152016.562000", "152016.562000", "152036.515000", "152036.515000", "152036.515000", "152036.515000", "152036.515000", "152036.515000", "152036.515000", "152036.531000", "152036.531000", "152036.531000", "152036.531000", "152036.531000", "152036.531000", "152036.546000", "152036.546000", "152036.546000", "152036.546000", "152036.546000", "152036.546000", "152036.546000", "152036.546000", "152036.562000", "152036.562000", "152036.562000", "152036.562000", "152036.562000", "152056.515000", "152056.515000", "152056.515000", "152056.515000", "152056.515000", "152056.515000", "152056.515000", "152056.531000", "152056.531000", "152056.531000", "152056.531000", "152056.531000", "152056.531000", "152056.546000", "152056.546000", "152056.546000", "152056.546000", "152056.546000", "152056.546000", "152056.562000", "152056.562000", "152056.562000", "152056.562000", "152056.562000", "152056.562000", "152116.515000", "152116.515000", "152116.515000", "152116.515000", "152116.515000", "152116.515000", "152116.515000", "152116.531000", "152116.531000", "152116.531000", "152116.531000", "152116.531000", "152116.531000", "152116.531000", "152116.546000", "152116.546000", "152116.546000", "152116.546000", "152116.546000", "152116.546000", "152116.546000", "152116.562000", "152116.562000", "152116.562000", "152116.562000", "152116.562000", "152136.515000", "152136.515000", "152136.515000", "152136.515000", "152136.515000", "152136.515000", "152136.515000", "152136.531000", "152136.531000", "152136.531000", "152136.531000", "152136.531000", "152136.531000", "152136.531000", "152136.546000", "152136.546000", "152136.546000", "152136.546000", "152136.546000", "152136.546000", "152136.546000", "152136.562000", "152136.562000", "152136.562000", "152136.562000", "152141.515000", "152141.515000", "152141.515000", "152141.515000", "152141.515000", "152141.531000", "152141.531000"],
