{
  "AcquisitionMatrixPE": 104,
  "AcquisitionNumber": 1,
  "AcquisitionTime": "16:17:56.677500",
  "BandwidthPerPixelPhaseEncode": 13.935,
  "BaseResolution": 104,
  "CoilString": "C:HEA;HEP",
  "ConversionSoftware": "dcm2niix",
  "ConversionSoftwareVersion": "v1.0.20210317",
  "DerivedVendorReportedEchoSpacing": 0.000690017,
  "DeviceSerialNumber": "35450",
  "DwellTime": 2.5e-06,
  "EchoTime": 0.0348,
  "EffectiveEchoSpacing": 0.000690017,
  "FlipAngle": 55,
  "ImageComments": "Unaliased MB8/PE3 (remote)",
  "ImageOrientationPatientDICOM": [0.999875, 0.00238777, 0.015606, -4.03403e-08, 0.988497, -0.151241],
  "ImageType": [
    "ORIGINAL",
    "PRIMARY",
    "M",
    "MB",
    "ND",
    "MOSAIC"
],
  "ImagingFrequency": 123.235,
  "InPlanePhaseEncodingDirectionDICOM": "COL",
  "InstitutionAddress": "Univeristy Ave. 197,Newark,North East,US,07102-1814",
  "InstitutionName": "RUBIC",
  "InstitutionalDepartmentName": "Department",
  "MRAcquisitionType": "2D",
  "MagneticFieldStrength": 3,
  "Manufacturer": "Siemens",
  "ManufacturersModelName": "TrioTim",
  "Modality": "MR",
  "MultibandAccelerationFactor": 8,
  "PartialFourier": 0.875,
  "PatientPosition": "HFS",
  "PercentPhaseFOV": 100,
  "PercentSampling": 100,
  "PhaseEncodingDirection": "j-",
  "PhaseEncodingSteps": 91,
  "PhaseResolution": 1,
  "PixelBandwidth": 1923,
  "ProcedureStepDescription": "Cole^Michael",
  "ProtocolName": "cmrr_mbep2d_bold_2mm_MB8_Task_8x",
  "PulseSequenceDetails": "%CustomerSeq%\\cmrr_mbep2d_bold",
  "ReceiveCoilName": "32Ch_Head",
  "ReconMatrixPE": 104,
  "RepetitionTime": 0.785,
  "SAR": 0.122333,
  "ScanOptions": "PFP\\FS",
  "ScanningSequence": "EP",
  "SequenceName": "epfid2d1_104",
  "SequenceVariant": "SK\\SS",
  "SeriesDescription": "cmrr_mbep2d_bold_2mm_MB8_Task_8x",
  "SeriesNumber": 23,
  "ShimSetting": [2121, -415, -7230, 493, 41, -82, 288, -71],
  "SliceThickness": 2,
  "SliceTiming": [0, 0.4375, 0.0875, 0.525, 0.175, 0.6125, 0.2625, 0.7, 0.35, 0, 0.4375, 0.0875, 0.525, 0.175, 0.6125, 0.2625, 0.7, 0.35, 0, 0.4375, 0.0875, 0.525, 0.175, 0.6125, 0.2625, 0.7, 0.35, 0, 0.4375, 0.0875, 0.525, 0.175, 0.6125, 0.2625, 0.7, 0.35, 0, 0.4375, 0.0875, 0.525, 0.175, 0.6125, 0.2625, 0.7, 0.35, 0, 0.4375, 0.0875, 0.525, 0.175, 0.6125, 0.2625, 0.7, 0.35, 0, 0.4375, 0.0875, 0.525, 0.175, 0.6125, 0.2625, 0.7, 0.35, 0, 0.4375, 0.0875, 0.525, 0.175, 0.6125, 0.2625, 0.7, 0.35],
  "SoftwareVersions": "syngo MR B19",
  "SpacingBetweenSlices": 2,
  "StationName": "MRC35450",
  "TaskName": "cpro",
  "TotalReadoutTime": 0.0710717,
  "TxRefAmp": 327.654,
  "dcmmeta_affine": [
    [-1.9997507333755493, -8.068052181897656e-08, 0.03157525882124901, 106.49131774902344],
    [-0.004775544628500938, 1.9769939184188843, -0.30244380235671997, -85.14537811279297],
    [0.031212031841278076, 0.302481472492218, 1.9767476320266724, -106.7633056640625],
    [0.0, 0.0, 0.0, 1.0]
],
  "dcmmeta_reorient_transform": [
    [0.0, -1.0, 0.0, 103.0],
    [1.0, 0.0, 0.0, 0.0],
    [0.0, 0.0, 1.0, 0.0],
    [0.0, 0.0, 0.0, 1.0]
],
  "dcmmeta_shape": [104, 104, 72, 581],
  "dcmmeta_slice_dim": 2,
  "dcmmeta_version": 0.6,
  "global": {
    "const": {
      "AcquisitionMatrix": [104, 0, 0, 104],
      "AngioFlag": "N",
      "BitsAllocated": 16,
      "BitsStored": 12,
      "Columns": 936,
      "EchoNumbers": 1,
      "EchoTime": 34.8,
      "EchoTrainLength": 1,
      "FlipAngle": 55.0,
      "HighBit": 11,
      "ImageOrientationPatient": [0.99987536763266, 0.00238777242792, 0.01560601628488, -4.034026e-08, 0.98849695932957, -0.1512407398692],
      "ImagePositionPatient": [-938.38758500551, -942.90108946242, 37.240379045961],
      "ImageType": [
        "ORIGINAL",
        "PRIMARY",
        "M",
        "MB",
        "ND",
        "MOSAIC"
],
      "ImagedNucleus": "1H",
      "ImagingFrequency": 123.234936,
      "InPlanePhaseEncodingDirection": "COL",
      "MRAcquisitionType": "2D",
      "MagneticFieldStrength": 3.0,
      "Manufacturer": "SIEMENS",
      "ManufacturerModelName": "TrioTim",
      "Modality": "MR",
      "NumberOfAverages": 1.0,
      "NumberOfPhaseEncodingSteps": 91,
      "PercentPhaseFieldOfView": 100.0,
      "PercentSampling": 100.0,
      "PerformedProcedureStepStartTime": "142703.562000",
      "PhotometricInterpretation": "MONOCHROME2",
      "PixelBandwidth": 1923.0,
      "PixelRepresentation": 0,
      "PixelSpacing": [2.0, 2.0],
      "ProtocolName": "cmrr_mbep2d_bold_2mm_MB8_Task_8x",
      "RepetitionTime": 785.0,
      "Rows": 936,
      "SAR": 0.12233345433063,
      "SamplesPerPixel": 1,
      "ScanOptions": [
        "PFP",
        "FS"
],
      "ScanningSequence": "EP",
      "SequenceName": "epfid2d1_104",
      "SequenceVariant": [
        "SK",
        "SS"
],
      "SeriesDescription": "cmrr_mbep2d_bold_2mm_MB8_Task_8x",
      "SeriesNumber": 23,
      "SeriesTime": "161818.546000",
      "SliceLocation": -90.964956887892,
      "SliceThickness": 2.0,
      "SmallestImagePixelValue": 0,
      "SoftwareVersions": "syngo MR B19",
      "SpacingBetweenSlices": 2.0000000690522,
      "SpecificCharacterSet": "ISO_IR 100",
      "StudyID": "1",
      "StudyTime": "142703.531000",
      "TransmitCoilName": "Body",
      "VariableFlipAngleFlag": "N",
      "WindowCenterWidthExplanation": "Algo1",
      "dBdt": 0.0},
    "slices": {}
  },
  "time": {
    "samples": {
      "AcquisitionNumber": [1, 2, 3, 4, 5, 6, 7, 8, 9, 10, 11, 12, 13, 14, 15, 16, 17, 18, 19, 20, 21, 22, 23, 24, 25, 26, 27, 28, 29, 30, 31, 32, 33, 34, 35, 36, 37, 38, 39, 40, 41, 42, 43, 44, 45, 46, 47, 48, 49, 50, 51, 52, 53, 54, 55, 56, 57, 58, 59, 60, 61, 62, 63, 64, 65, 66, 67, 68, 69, 70, 71, 72, 73, 74, 75, 76, 77, 78, 79, 80, 81, 82, 83, 84, 85, 86, 87, 88, 89, 90, 91, 92, 93, 94, 95, 96, 97, 98, 99, 100, 101, 102, 103, 104, 105, 106, 107, 108, 109, 110, 111, 112, 113, 114, 115, 116, 117, 118, 119, 120, 121, 122, 123, 124, 125, 126, 127, 128, 129, 130, 131, 132, 133, 134, 135, 136, 137, 138, 139, 140, 141, 142, 143, 144, 145, 146, 147, 148, 149, 150, 151, 152, 153, 154, 155, 156, 157, 158, 159, 160, 161, 162, 163, 164, 165, 166, 167, 168, 169, 170, 171, 172, 173, 174, 175, 176, 177, 178, 179, 180, 181, 182, 183, 184, 185, 186, 187, 188, 189, 190, 191, 192, 193, 194, 195, 196, 197, 198, 199, 200, 201, 202, 203, 204, 205, 206, 207, 208, 209, 210, 211, 212, 213, 214, 215, 216, 217, 218, 219, 220, 221, 222, 223, 224, 225, 226, 227, 228, 229, 230, 231, 232, 233, 234, 235, 236, 237, 238, 239, 240, 241, 242, 243, 244, 245, 246, 247, 248, 249, 250, 251, 252, 253, 254, 255, 256, 257, 258, 259, 260, 261, 262, 263, 264, 265, 266, 267, 268, 269, 270, 271, 272, 273, 274, 275, 276, 277, 278, 279, 280, 281, 282, 283, 284, 285, 286, 287, 288, 289, 290, 291, 292, 293, 294, 295, 296, 297, 298, 299, 300, 301, 302, 303, 304, 305, 306, 307, 308, 309, 310, 311, 312, 313, 314, 315, 316, 317, 318, 319, 320, 321, 322, 323, 324, 325, 326, 327, 328, 329, 330, 331, 332, 333, 334, 335, 336, 337, 338, 339, 340, 341, 342, 343, 344, 345, 346, 347, 348, 349, 350, 351, 352, 353, 354, 355, 356, 357, 358, 359, 360, 361, 362, 363, 364, 365, 366, 367, 368, 369, 370, 371, 372, 373, 374, 375, 376, 377, 378, 379, 380, 381, 382, 383, 384, 385, 386, 387, 388, 389, 390, 391, 392, 393, 394, 395, 396, 397, 398, 399, 400, 401, 402, 403, 404, 405, 406, 407, 408, 409, 410, 411, 412, 413, 414, 415, 416, 417, 418, 419, 420, 421, 422, 423, 424, 425, 426, 427, 428, 429, 430, 431, 432, 433, 434, 435, 436, 437, 438, 439, 440, 441, 442, 443, 444, 445, 446, 447, 448, 449, 450, 451, 452, 453, 454, 455, 456, 457, 458, 459, 460, 461, 462, 463, 464, 465, 466, 467, 468, 469, 470, 471, 472, 473, 474, 475, 476, 477, 478, 479, 480, 481, 482, 483, 484, 485, 486, 487, 488, 489, 490, 491, 492, 493, 494, 495, 496, 497, 498, 499, 500, 501, 502, 503, 504, 505, 506, 507, 508, 509, 510, 511, 512, 513, 514, 515, 516, 517, 518, 519, 520, 521, 522, 523, 524, 525, 526, 527, 528, 529, 530, 531, 532, 533, 534, 535, 536, 537, 538, 539, 540, 541, 542, 543, 544, 545, 546, 547, 548, 549, 550, 551, 552, 553, 554, 555, 556, 557, 558, 559, 560, 561, 562, 563, 564, 565, 566, 567, 568, 569, 570, 571, 572, 573, 574, 575, 576, 577, 578, 579, 580, 581],
      "AcquisitionTime": ["161756.677500", "161757.465000", "161758.252500", "161759.042500", "161759.830000", "161800.617500", "161801.407500", "161802.195000", "161802.982500", "161803.770000", "161804.560000", "161805.347500", "161806.135000", "161806.922500", "161807.712500", "161808.500000", "161809.287500", "161810.075000", "161810.865000", "161811.652500", "161812.440000", "161813.227500", "161814.017500", "161814.805000", "161815.592500", "161816.380000", "161817.170000", "161817.957500", "161818.745000", "161819.535000", "161820.322500", "161821.110000", "161821.897500", "161822.687500", "161823.475000", "161824.262500", "161825.050000", "161825.840000", "161826.627500", "161827.415000", "161828.202500", "161828.992500", "161829.780000", "161830.567500", "161831.355000", "161832.145000", "161832.932500", "161833.720000", "161834.507500", "161835.297500", "161836.085000", "161836.872500", "161837.662500", "161838.450000", "161839.237500", "161840.025000", "161840.815000", "161841.602500", "161842.390000", "161843.177500", "161843.967500", "161844.755000", "161845.542500", "161846.330000", "161847.120000", "161847.907500", "161848.695000", "161849.482500", "161850.272500", "161851.060000", "161851.847500", "161852.635000", "161853.425000", "161854.212500", "161855.000000", "161855.790000", "161856.577500", "161857.365000", "161858.152500", "161858.942500", "161859.730000", "161900.517500", "161901.305000", "161902.095000", "161902.882500", "161903.670000", "161904.457500", "161905.247500", "161906.035000", "161906.822500", "161907.610000", "161908.400000", "161909.187500", "161909.975000", "161910.762500", "161911.552500", "161912.340000", "161913.127500", "161913.917500", "161914.705000", "161915.492500", "161916.280000", "161917.070000", "161917.857500", "161918.645000", "161919.432500", "161920.222500", "161921.010000", "161921.797500", "161922.585000", "161923.375000", "161924.162500", "161924.950000", "161925.737500", "161926.527500", "161927.315000", "161928.102500", "161928.890000", "161929.680000", "161930.467500", "161931.255000", "161932.045000", "161932.832500", "161933.620000", "161934.407500", "161935.197500", "161935.985000", "161936.772500", "161937.560000", "161938.350000", "161939.137500", "161939.925000", "161940.712500", "161941.502500", "161942.290000", "161943.077500", "161943.865000", "161944.655000", "161945.442500", "161946.230000", "161947.017500", "161947.807500", "161948.595000", "161949.382500", "161950.172500", "161950.960000", "161951.747500", "161952.535000", "161953.325000", "161954.112500", "161954.900000", "161955.687500", "161956.477500", "161957.265000", "161958.052500", "161958.840000", "161959.630000", "162000.417500", "162001.205000", "162001.992500", "162002.782500", "162003.570000", "162004.357500", "162005.145000", "162005.935000", "162006.722500", "162007.510000", "162008.300000", "162009.087500", "162009.875000", "162010.662500", "162011.452500", "162012.240000", "162013.027500", "162013.815000", "162014.605000", "162015.392500", "162016.180000", "162016.967500", "162017.757500", "162018.545000", "162019.332500", "162020.120000", "162020.910000", "162021.697500", "162022.485000", "162023.272500", "162024.062500", "162024.850000", "162025.637500", "162026.427500", "162027.215000", "162028.002500", "162028.790000", "162029.580000", "162030.367500", "162031.155000", "162031.942500", "162032.732500", "162033.520000", "162034.307500", "162035.095000", "162035.885000", "162036.672500", "162037.460000", "162038.247500", "162039.037500", "162039.825000", "162040.612500", "162041.400000", "162042.190000", "162042.977500", "162043.765000", "162044.555000", "162045.342500", "162046.130000", "162046.917500", "162047.707500", "162048.495000", "162049.282500", "162050.070000", "162050.860000", "162051.647500", "162052.435000", "162053.222500", "162054.012500", "162054.800000", "162055.587500", "162056.375000", "162057.165000", "162057.952500", "162058.740000", "162059.530000", "162100.317500", "162101.105000", "162101.892500", "162102.682500", "162103.470000", "162104.257500", "162105.045000", "162105.835000", "162106.622500", "162107.410000", "162108.197500", "162108.987500", "162109.775000", "162110.562500", "162111.350000", "162112.140000", "162112.927500", "162113.715000", "162114.502500", "162115.292500", "162116.080000", "162116.867500", "162117.657500", "162118.445000", "162119.232500", "162120.020000", "162120.810000", "162121.597500", "162122.385000", "162123.172500", "162123.962500", "162124.750000", "162125.537500", "162126.325000", "162127.115000", "162127.902500", "162128.690000", "162129.477500", "162130.267500", "162131.055000", "162131.842500", "162132.630000", "162133.420000", "162134.207500", "162134.995000", "162135.785000", "162136.572500", "162137.360000", "162138.147500", "162138.937500", "162139.725000", "162140.512500", "162141.300000", "162142.090000", "162142.877500", "162143.665000", "162144.452500", "162145.242500", "162146.030000", "162146.817500", "162147.605000", "162148.395000", "162149.182500", "162149.970000", "162150.757500", "162151.547500", "162152.335000", "162153.122500", "162153.912500", "162154.700000", "162155.487500", "162156.275000", "162157.065000", "162157.852500", "162158.640000", "162159.427500", "162200.217500", "162201.005000", "162201.792500", "162202.580000", "162203.370000", "162204.157500", "162204.945000", "162205.732500", "162206.522500", "162207.310000", "162208.097500", "162208.885000", "162209.675000", "162210.462500", "162211.250000", "162212.040000", "162212.827500", "162213.615000", "162214.402500", "162215.192500", "162215.980000", "162216.767500", "162217.555000", "162218.345000", "162219.132500", "162219.920000", "162220.707500", "162221.497500", "162222.285000", "162223.072500", "162223.860000", "162224.650000", "162225.437500", "162226.225000", "162227.012500", "162227.802500", "162228.590000", "162229.377500", "162230.167500", "162230.955000", "162231.742500", "162232.530000", "162233.320000", "162234.107500", "162234.895000", "162235.682500", "162236.472500", "162237.260000", "162238.047500", "162238.835000", "162239.625000", "162240.412500", "162241.200000", "162241.987500", "162242.777500", "162243.565000", "162244.352500", "162245.140000", "162245.930000", "162246.717500", "162247.505000", "162248.295000", "162249.082500", "162249.870000", "162250.657500", "162251.447500", "162252.235000", "162253.022500", "162253.810000", "162254.600000", "162255.387500", "162256.175000", "162256.962500", "162257.752500", "162258.540000", "162259.327500", "162300.115000", "162300.905000", "162301.692500", "162302.480000", "162303.267500", "162304.057500", "162304.845000", "162305.632500", "162306.422500", "162307.210000", "162307.997500", "162308.785000", "162309.575000", "162310.362500", "162311.150000", "162311.937500", "162312.727500", "162313.515000", "162314.302500", "162315.090000", "162315.880000", "162316.667500", "162317.455000", "162318.242500", "162319.032500", "162319.820000", "162320.607500", "162321.395000", "162322.185000", "162322.972500", "162323.760000", "162324.550000", "162325.337500", "162326.125000", "162326.912500", "162327.702500", "162328.490000", "162329.277500", "162330.065000", "162330.855000", "162331.642500", "162332.430000", "162333.217500", "162334.007500", "162334.795000", "162335.582500", "162336.370000", "162337.160000", "162337.947500", "162338.735000", "162339.522500", "162340.312500", "162341.100000", "162341.887500", "162342.677500", "162343.465000", "162344.252500", "162345.040000", "162345.830000", "162346.617500", "162347.405000", "162348.192500", "162348.982500", "162349.770000", "162350.557500", "162351.345000", "162352.135000", "162352.922500", "162353.710000", "162354.497500", "162355.287500", "162356.075000", "162356.862500", "162357.650000", "162358.440000", "162359.227500", "162400.015000", "162400.805000", "162401.592500", "162402.380000", "162403.167500", "162403.957500", "162404.745000", "162405.532500", "162406.320000", "162407.110000", "162407.897500", "162408.685000", "162409.472500", "162410.262500", "162411.050000", "162411.837500", "162412.625000", "162413.415000", "162414.202500", "162414.990000", "162415.780000", "162416.567500", "162417.355000", "162418.142500", "162418.932500", "162419.720000", "162420.507500", "162421.295000", "162422.085000", "162422.872500", "162423.660000", "162424.447500", "162425.237500", "162426.025000", "162426.812500", "162427.600000", "162428.390000", "162429.177500", "162429.965000", "162430.752500", "162431.542500", "162432.330000", "162433.117500", "162433.907500", "162434.695000", "162435.482500", "162436.270000", "162437.060000", "162437.847500", "162438.635000", "162439.422500", "162440.212500", "162441.000000", "162441.787500", "162442.575000", "162443.365000", "162444.152500", "162444.940000", "162445.727500", "162446.517500", "162447.305000", "162448.092500", "162448.880000", "162449.670000", "162450.457500", "162451.245000", "162452.035000", "162452.822500", "162453.610000", "162454.397500", "162455.187500", "162455.975000", "162456.762500", "162457.550000", "162458.340000", "162459.127500", "162459.915000", "162500.702500", "162501.492500", "162502.280000", "162503.067500", "162503.855000", "162504.645000", "162505.432500", "162506.220000", "162507.007500", "162507.797500", "162508.585000", "162509.372500", "162510.162500", "162510.950000", "162511.737500", "162512.525000", "162513.315000", "162514.102500", "162514.890000", "162515.677500", "162516.467500", "162517.255000", "162518.042500", "162518.830000", "162519.620000", "162520.407500", "162521.195000", "162521.982500", "162522.772500", "162523.560000", "162524.347500", "162525.135000", "162525.925000", "162526.712500", "162527.500000", "162528.290000", "162529.077500", "162529.865000", "162530.652500", "162531.442500", "162532.230000", "162533.017500", "162533.805000"],
      "ContentTime": ["161818.546000", "161818.546000", "161818.546000", "161818.562000", "161818.562000", "161818.562000", "161818.562000", "161818.562000", "161818.562000", "161818.562000", "161818.578000", "161818.578000", "161818.578000", "161818.578000", "161818.578000", "161818.593000", "161818.593000", "161818.593000", "161818.593000", "161818.593000", "161818.593000", "161818.609000", "161818.609000", "161818.609000", "161818.609000", "161838.531000", "161838.531000", "161838.531000", "161838.531000", "161838.531000", "161838.531000", "161838.531000", "161838.546000", "161838.546000", "161838.546000", "161838.546000", "161838.546000", "161838.546000", "161838.546000", "161838.562000", "161838.562000", "161838.562000", "161838.562000", "161838.562000", "161838.562000", "161838.578000", "161838.578000", "161838.578000", "161838.578000", "161838.578000", "161858.531000", "161858.531000", "161858.531000", "161858.531000", "161858.531000", "161858.531000", "161858.531000", "161858.546000", "161858.546000", "161858.546000", "161858.546000", "161858.546000", "161858.546000", "161858.562000", "161858.562000", "161858.562000", "161858.562000", "161858.562000", "161858.578000", "161858.578000", "161858.578000", "161858.578000", "161858.578000", "161858.578000", "161858.593000", "161858.593000", "161918.531000", "161918.531000", "161918.531000", "161918.531000", "161918.531000", "161918.531000", "161918.531000", "161918.546000", "161918.546000", "161918.546000", "161918.546000", "161918.546000", "161918.546000", "161918.546000", "161918.562000", "161918.562000", "161918.562000", "161918.562000", "161918.562000", "161918.562000", "161918.578000", "161918.578000", "161918.578000", "161918.593000", "161918.593000", "161938.531000", "161938.531000", "161938.531000", "161938.531000", "161938.531000", "161938.531000", "161938.531000", "161938.546000", "161938.546000", "161938.546000", "161938.546000", "161938.546000", "161938.546000", "161938.562000", "161938.562000", "161938.562000", "161938.562000", "161938.562000", "161938.562000", "161938.562000", "161938.578000", "161938.578000", "161938.578000", "161938.578000", "161938.578000", "161938.593000", "161958.531000", "161958.531000", "161958.531000", "161958.531000", "161958.531000", "161958.531000", "161958.531000", "161958.546000", "161958.546000", "161958.546000", "161958.546000", "161958.546000", "161958.546000", "161958.546000", "161958.562000", "161958.562000", "161958.562000", "161958.562000", "161958.562000", "161958.562000", "161958.578000", "161958.578000", "161958.578000", "161958.578000", "161958.578000", "162018.531000", "162018.531000", "162018.531000", "162018.531000", "162018.531000", "162018.531000", "162018.531000", "162018.546000", "162018.546000", "162018.546000", "162018.546000", "162018.546000", "162018.546000", "162018.546000", "162018.562000", "162018.562000", "162018.562000", "162018.562000", "162018.562000", "162018.562000", "162018.578000", "162018.578000", "162018.578000", "162018.578000", "162018.578000", "162018.578000", "162038.531000", "162038.531000", "162038.531000", "162038.531000", "162038.531000", "162038.531000", "162038.531000", "162038.546000", "162038.546000", "162038.546000", "162038.546000", "162038.546000", "162038.546000", "162038.546000", "162038.562000", "162038.562000", "162038.562000", "162038.562000", "162038.562000", "162038.562000", "162038.578000", "162038.578000", "162038.578000", "162038.578000", "162038.578000", "162058.531000", "162058.531000", "162058.531000", "162058.531000", "162058.531000", "162058.531000", "162058.531000", "162058.546000", "162058.546000", "162058.546000", "162058.546000", "162058.546000", "162058.546000", "162058.546000", "162058.562000", "162058.562000", "162058.562000", "162058.562000", "162058.562000", "162058.562000", "162058.562000", "162058.578000", "162058.578000", "162058.578000", "162058.578000", "162058.578000", "162118.531000", "162118.531000", "162118.531000", "162118.531000", "162118.531000", "162118.531000", "162118.531000", "162118.546000", "162118.546000", "162118.546000", "162118.546000", "162118.546000", "162118.546000", "162118.546000", "162118.562000", "162118.562000", "162118.562000", "162118.562000", "162118.562000", "162118.562000", "162118.578000", "162118.578000", "162118.578000", "162118.578000", "162118.578000", "162138.531000", "162138.531000", "162138.531000", "162138.531000", "162138.531000", "162138.531000", "162138.531000", "162138.546000", "162138.546000", "162138.546000", "162138.546000", "162138.546000", "162138.546000", "162138.546000", "162138.562000", "162138.562000", "162138.562000", "162138.562000", "162138.578000", "162138.578000", "162138.578000", "162138.578000", "162138.578000", "162138.593000", "162138.593000", "162138.593000", "162158.531000", "162158.531000", "162158.531000", "162158.531000", "162158.531000", "162158.531000", "162158.531000", "162158.546000", "162158.546000", "162158.546000", "162158.546000", "162158.546000", "162158.546000", "162158.546000", "162158.562000", "162158.562000", "162158.562000", "162158.562000", "162158.562000", "162158.562000", "162158.562000", "162158.578000", "162158.578000", "162158.578000", "162158.578000", "162218.531000", "162218.531000", "162218.531000", "162218.531000", "162218.531000", "162218.531000", "162218.531000", "162218.546000", "162218.546000", "162218.546000", "162218.546000", "162218.546000", "162218.546000", "162218.546000", "162218.562000", "162218.562000", "162218.562000", "162218.562000", "162218.562000", "162218.578000", "162218.578000", "162218.578000", "162218.578000", "162218.578000", "162218.578000", "162218.578000", "162238.531000", "162238.531000", "162238.531000", "162238.531000", "162238.531000", "162238.531000", "162238.531000", "162238.546000", "162238.546000", "162238.546000", "162238.546000", "162238.546000", "162238.546000", "162238.546000", "162238.562000", "162238.562000", "162238.562000", "162238.562000", "162238.578000", "162238.578000", "162238.578000", "162238.578000", "162238.578000", "162238.578000", "162238.578000", "162258.531000", "162258.531000", "162258.531000", "162258.531000", "162258.531000", "162258.531000", "162258.531000", "162258.546000", "162258.546000", "162258.546000", "162258.546000", "162258.546000", "162258.546000", "162258.562000", "162258.562000", "162258.562000", "162258.562000", "162258.562000", "162258.562000", "162258.578000", "162258.578000", "162258.578000", "162258.578000", "162258.578000", "162258.578000", "162258.578000", "162318.531000", "162318.531000", "162318.531000", "162318.531000", "162318.531000", "162318.531000", "162318.531000", "162318.546000", "162318.546000", "162318.546000", "162318.546000", "162318.546000", "162318.546000", "162318.546000", "162318.562000", "162318.562000", "162318.562000", "162318.562000", "162318.562000", "162318.562000", "162318.562000", "162318.578000", "162318.578000", "162318.578000", "162318.578000", "162338.531000", "162338.531000", "162338.531000", "162338.531000", "162338.531000", "162338.531000", "162338.531000", "162338.546000", "162338.546000", "162338.546000", "162338.546000", "162338.546000", "162338.546000", "162338.546000", "162338.562000", "162338.562000", "162338.562000", "162338.562000", "162338.578000", "162338.578000", "162338.578000", "162338.578000", "162338.578000", "162338.578000", "162338.578000", "162338.593000", "162358.531000", "162358.531000", "162358.531000", "162358.531000", "162358.531000", "162358.531000", "162358.531000", "162358.546000", "162358.546000", "162358.546000", "162358.546000", "162358.546000", "162358.546000", "162358.546000", "162358.562000", "162358.562000", "162358.562000", "162358.562000", "162358.562000", "162358.562000", "162358.562000", "162358.578000", "162358.578000", "162358.578000", "162358.578000", "162418.531000", "162418.531000", "162418.531000", "162418.531000", "162418.531000", "162418.531000", "162418.531000", "162418.546000", "162418.546000", "162418.546000", "162418.546000", "162418.546000", "162418.546000", "162418.562000", "162418.562000", "162418.562000", "162418.562000", "162418.562000", "162418.562000", "162418.578000", "162418.578000", "162418.578000", "162418.578000", "162418.578000", "162418.578000", "162418.578000", "162438.531000", "162438.531000", "162438.531000", "162438.531000", "162438.531000", "162438.531000", "162438.531000", "162438.546000", "162438.546000", "162438.546000", "162438.546000", "162438.546000", "162438.546000", "162438.546000", "162438.562000", "162438.562000", "162438.562000", "162438.562000", "162438.562000", "162438.562000", "162438.578000", "162438.578000", "162438.578000", "162438.578000", "162438.578000", "162458.531000", "162458.531000", "162458.531000", "162458.531000", "162458.531000", "162458.531000", "162458.531000", "162458.546000", "162458.546000", "162458.546000", "162458.546000", "162458.546000", "162458.546000", "162458.546000", "162458.562000", "162458.562000", "162458.562000", "162458.562000", "162458.562000", "162458.562000", "162458.562000", "162458.578000", "162458.578000", "162458.578000", "162458.578000", "162458.578000", "162518.531000", "162518.531000", "162518.531000", "162518.531000", "162518.531000", "162518.531000", "162518.531000", "162518.546000", "162518.546000", "162518.546000", "162518.546000", "162518.546000", "162518.546000", "162518.546000", "162518.562000", "162518.562000", "162518.562000", "162518.562000", "162518.562000", "162518.562000", "162518.578000", "162518.578000", "162518.578000", "162518.578000", "162518.578000", "162534.625000", "162534.625000", "162534.640000", "162534.640000", "162534.640000", "162534.640000", "162534.640000", "162534.640000", "162534.656000", "162534.656000", "162534.656000", "162534.656000", "162534.656000", "162534.671000", "162534.671000", "162534.671000", "162534.671000", "162534.671000", "162534.671000", "162534.671000", "162534.687000"],
      "DataSetTrailingPadding": [
        "\u0000\u0000\u0000\u0000\u0000\u0000\u0000\u0000\u0000\u0000\u0000\u0000\u0000\u0000\u0000\u0000\u0000\u0000\u0000\u0000\u0000\u0000\u0000\u0000\u0000\u0000\u0000\u0000\u0000\u0000\u0000\u0000\u0000\u0000\u0000\u0000\u0000\u0000\u0000\u0000\u0000\u0000\u0000\u0000\u0000\u0000\u0000\u0000\u0000\u0000\u0000\u0000\u0000\u0000\u0000\u0000\u0000\u0000\u0000\u0000\u0000\u0000\u0000\u0000\u0000\u0000\u0000\u0000\u0000\u0000\u0000\u0000\u0000\u0000\u0000\u0000\u0000\u0000\u0000\u0000\u0000\u0000\u0000\u0000\u0000\u0000\u0000\u0000\u0000\u0000\u0000\u0000\u0000\u0000",
        "\u0000\u0000\u0000\u0000\u0000\u0000\u0000\u0000\u0000\u0000\u0000\u0000\u0000\u0000\u0000\u0000\u0000\u0000\u0000\u0000\u0000\u0000\u0000\u0000\u0000\u0000\u0000\u0000\u0000\u0000\u0000\u0000\u0000\u0000\u0000\u0000\u0000\u0000\u0000\u0000\u0000\u0000\u0000\u0000\u0000\u0000\u0000\u0000\u0000\u0000\u0000\u0000\u0000\u0000\u0000\u0000\u0000\u0000\u0000\u0000\u0000\u0000\u0000\u0000\u0000\u0000\u0000\u0000\u0000\u0000\u0000\u0000\u0000\u0000\u0000\u0000\u0000\u0000\u0000\u0000\u0000\u0000\u0000\u0000\u0000\u0000\u0000\u0000\u0000\u0000\u0000\u0000\u0000\u0000",
        "\u0000\u0000\u0000\u0000\u0000\u0000\u0000\u0000\u0000\u0000\u0000\u0000\u0000\u0000\u0000\u0000\u0000\u0000\u0000\u0000\u0000\u0000\u0000\u0000\u0000\u0000\u0000\u0000\u0000\u0000\u0000\u0000\u0000\u0000\u0000\u0000\u0000\u0000\u0000\u0000\u0000\u0000\u0000\u0000\u0000\u0000\u0000\u0000\u0000\u0000\u0000\u0000\u0000\u0000\u0000\u0000\u0000\u0000\u0000\u0000\u0000\u0000\u0000\u0000\u0000\u0000\u0000\u0000\u0000\u0000\u0000\u0000\u0000\u0000\u0000\u0000\u0000\u0000\u0000\u0000\u0000\u0000\u0000\u0000\u0000\u0000\u0000\u0000\u0000\u0000\u0000\u0000",
