{
  "AcquisitionMatrixPE": 104,
  "AcquisitionNumber": 1,
  "AcquisitionTime": "16:01:37.722500",
  "BandwidthPerPixelPhaseEncode": 13.935,
  "BaseResolution": 104,
  "CoilString": "C:HEA;HEP",
  "ConversionSoftware": "dcm2niix",
  "ConversionSoftwareVersion": "v1.0.20210317",
  "DerivedVendorReportedEchoSpacing": 0.000690017,
  "DeviceSerialNumber": "35450",
  "DwellTime": 2.5e-06,
  "EchoTime": 0.0348,
  "EffectiveEchoSpacing": 0.000690017,
  "FlipAngle": 55,
  "ImageComments": "Unaliased MB8/PE3 (remote)",
  "ImageOrientationPatientDICOM": [0.999875, 0.00238777, 0.015606, -4.03403e-08, 0.988497, -0.151241],
  "ImageType": [
    "ORIGINAL",
    "PRIMARY",
    "M",
    "MB",
    "ND",
    "MOSAIC"
],
  "ImagingFrequency": 123.235,
  "InPlanePhaseEncodingDirectionDICOM": "COL",
  "InstitutionAddress": "Univeristy Ave. 197,Newark,North East,US,07102-1814",
  "InstitutionName": "RUBIC",
  "InstitutionalDepartmentName": "Department",
  "MRAcquisitionType": "2D",
  "MagneticFieldStrength": 3,
  "Manufacturer": "Siemens",
  "ManufacturersModelName": "TrioTim",
  "Modality": "MR",
  "MultibandAccelerationFactor": 8,
  "PartialFourier": 0.875,
  "PatientPosition": "HFS",
  "PercentPhaseFOV": 100,
  "PercentSampling": 100,
  "PhaseEncodingDirection": "j-",
  "PhaseEncodingSteps": 91,
  "PhaseResolution": 1,
  "PixelBandwidth": 1923,
  "ProcedureStepDescription": "Cole^Michael",
  "ProtocolName": "cmrr_mbep2d_bold_2mm_MB8_Task_8x",
  "PulseSequenceDetails": "%CustomerSeq%\\cmrr_mbep2d_bold",
  "ReceiveCoilName": "32Ch_Head",
  "ReconMatrixPE": 104,
  "RepetitionTime": 0.785,
  "SAR": 0.122333,
  "ScanOptions": "PFP\\FS",
  "ScanningSequence": "EP",
  "SequenceName": "epfid2d1_104",
  "SequenceVariant": "SK\\SS",
  "SeriesDescription": "cmrr_mbep2d_bold_2mm_MB8_Task_8x",
  "SeriesNumber": 19,
  "ShimSetting": [2121, -415, -7230, 493, 41, -82, 288, -71],
  "SliceThickness": 2,
  "SliceTiming": [0, 0.4375, 0.0875, 0.525, 0.175, 0.6125, 0.2625, 0.7, 0.35, 0, 0.4375, 0.0875, 0.525, 0.175, 0.6125, 0.2625, 0.7, 0.35, 0, 0.4375, 0.0875, 0.525, 0.175, 0.6125, 0.2625, 0.7, 0.35, 0, 0.4375, 0.0875, 0.525, 0.175, 0.6125, 0.2625, 0.7, 0.35, 0, 0.4375, 0.0875, 0.525, 0.175, 0.6125, 0.2625, 0.7, 0.35, 0, 0.4375, 0.0875, 0.525, 0.175, 0.6125, 0.2625, 0.7, 0.35, 0, 0.4375, 0.0875, 0.525, 0.175, 0.6125, 0.2625, 0.7, 0.35, 0, 0.4375, 0.0875, 0.525, 0.175, 0.6125, 0.2625, 0.7, 0.35],
  "SoftwareVersions": "syngo MR B19",
  "SpacingBetweenSlices": 2,
  "StationName": "MRC35450",
  "TaskName": "cpro",
  "TotalReadoutTime": 0.0710717,
  "TxRefAmp": 327.654,
  "dcmmeta_affine": [
    [-1.9997507333755493, -8.068052181897656e-08, 0.03157525882124901, 106.49131774902344],
    [-0.004775544628500938, 1.9769939184188843, -0.30244380235671997, -85.14537811279297],
    [0.031212031841278076, 0.302481472492218, 1.9767476320266724, -106.7633056640625],
    [0.0, 0.0, 0.0, 1.0]
],
  "dcmmeta_reorient_transform": [
    [0.0, -1.0, 0.0, 103.0],
    [1.0, 0.0, 0.0, 0.0],
    [0.0, 0.0, 1.0, 0.0],
    [0.0, 0.0, 0.0, 1.0]
],
  "dcmmeta_shape": [104, 104, 72, 581],
  "dcmmeta_slice_dim": 2,
  "dcmmeta_version": 0.6,
  "global": {
    "const": {
      "AcquisitionMatrix": [104, 0, 0, 104],
      "AngioFlag": "N",
      "BitsAllocated": 16,
      "BitsStored": 12,
      "Columns": 936,
      "EchoNumbers": 1,
      "EchoTime": 34.8,
      "EchoTrainLength": 1,
      "FlipAngle": 55.0,
      "HighBit": 11,
      "ImageOrientationPatient": [0.99987536763266, 0.00238777242792, 0.01560601628488, -4.034026e-08, 0.98849695932957, -0.1512407398692],
      "ImagePositionPatient": [-938.38758500551, -942.90108946242, 37.240379045961],
      "ImageType": [
        "ORIGINAL",
        "PRIMARY",
        "M",
        "MB",
        "ND",
        "MOSAIC"
],
      "ImagedNucleus": "1H",
      "ImagingFrequency": 123.234936,
      "InPlanePhaseEncodingDirection": "COL",
      "MRAcquisitionType": "2D",
      "MagneticFieldStrength": 3.0,
      "Manufacturer": "SIEMENS",
      "ManufacturerModelName": "TrioTim",
      "Modality": "MR",
      "NumberOfAverages": 1.0,
      "NumberOfPhaseEncodingSteps": 91,
      "PercentPhaseFieldOfView": 100.0,
      "PercentSampling": 100.0,
      "PerformedProcedureStepStartTime": "142703.562000",
      "PhotometricInterpretation": "MONOCHROME2",
      "PixelBandwidth": 1923.0,
      "PixelRepresentation": 0,
      "PixelSpacing": [2.0, 2.0],
      "ProtocolName": "cmrr_mbep2d_bold_2mm_MB8_Task_8x",
      "RepetitionTime": 785.0,
      "Rows": 936,
      "SAR": 0.12233345433063,
      "SamplesPerPixel": 1,
      "ScanOptions": [
        "PFP",
        "FS"
],
      "ScanningSequence": "EP",
      "SequenceName": "epfid2d1_104",
      "SequenceVariant": [
        "SK",
        "SS"
],
      "SeriesDescription": "cmrr_mbep2d_bold_2mm_MB8_Task_8x",
      "SeriesNumber": 19,
      "SeriesTime": "160203.406000",
      "SliceLocation": -90.964956887892,
      "SliceThickness": 2.0,
      "SmallestImagePixelValue": 0,
      "SoftwareVersions": "syngo MR B19",
      "SpacingBetweenSlices": 2.0000000690522,
      "SpecificCharacterSet": "ISO_IR 100",
      "StudyID": "1",
      "StudyTime": "142703.531000",
      "TransmitCoilName": "Body",
      "VariableFlipAngleFlag": "N",
      "WindowCenterWidthExplanation": "Algo1",
      "dBdt": 0.0},
    "slices": {}
  },
  "time": {
    "samples": {
      "AcquisitionNumber": [1, 2, 3, 4, 5, 6, 7, 8, 9, 10, 11, 12, 13, 14, 15, 16, 17, 18, 19, 20, 21, 22, 23, 24, 25, 26, 27, 28, 29, 30, 31, 32, 33, 34, 35, 36, 37, 38, 39, 40, 41, 42, 43, 44, 45, 46, 47, 48, 49, 50, 51, 52, 53, 54, 55, 56, 57, 58, 59, 60, 61, 62, 63, 64, 65, 66, 67, 68, 69, 70, 71, 72, 73, 74, 75, 76, 77, 78, 79, 80, 81, 82, 83, 84, 85, 86, 87, 88, 89, 90, 91, 92, 93, 94, 95, 96, 97, 98, 99, 100, 101, 102, 103, 104, 105, 106, 107, 108, 109, 110, 111, 112, 113, 114, 115, 116, 117, 118, 119, 120, 121, 122, 123, 124, 125, 126, 127, 128, 129, 130, 131, 132, 133, 134, 135, 136, 137, 138, 139, 140, 141, 142, 143, 144, 145, 146, 147, 148, 149, 150, 151, 152, 153, 154, 155, 156, 157, 158, 159, 160, 161, 162, 163, 164, 165, 166, 167, 168, 169, 170, 171, 172, 173, 174, 175, 176, 177, 178, 179, 180, 181, 182, 183, 184, 185, 186, 187, 188, 189, 190, 191, 192, 193, 194, 195, 196, 197, 198, 199, 200, 201, 202, 203, 204, 205, 206, 207, 208, 209, 210, 211, 212, 213, 214, 215, 216, 217, 218, 219, 220, 221, 222, 223, 224, 225, 226, 227, 228, 229, 230, 231, 232, 233, 234, 235, 236, 237, 238, 239, 240, 241, 242, 243, 244, 245, 246, 247, 248, 249, 250, 251, 252, 253, 254, 255, 256, 257, 258, 259, 260, 261, 262, 263, 264, 265, 266, 267, 268, 269, 270, 271, 272, 273, 274, 275, 276, 277, 278, 279, 280, 281, 282, 283, 284, 285, 286, 287, 288, 289, 290, 291, 292, 293, 294, 295, 296, 297, 298, 299, 300, 301, 302, 303, 304, 305, 306, 307, 308, 309, 310, 311, 312, 313, 314, 315, 316, 317, 318, 319, 320, 321, 322, 323, 324, 325, 326, 327, 328, 329, 330, 331, 332, 333, 334, 335, 336, 337, 338, 339, 340, 341, 342, 343, 344, 345, 346, 347, 348, 349, 350, 351, 352, 353, 354, 355, 356, 357, 358, 359, 360, 361, 362, 363, 364, 365, 366, 367, 368, 369, 370, 371, 372, 373, 374, 375, 376, 377, 378, 379, 380, 381, 382, 383, 384, 385, 386, 387, 388, 389, 390, 391, 392, 393, 394, 395, 396, 397, 398, 399, 400, 401, 402, 403, 404, 405, 406, 407, 408, 409, 410, 411, 412, 413, 414, 415, 416, 417, 418, 419, 420, 421, 422, 423, 424, 425, 426, 427, 428, 429, 430, 431, 432, 433, 434, 435, 436, 437, 438, 439, 440, 441, 442, 443, 444, 445, 446, 447, 448, 449, 450, 451, 452, 453, 454, 455, 456, 457, 458, 459, 460, 461, 462, 463, 464, 465, 466, 467, 468, 469, 470, 471, 472, 473, 474, 475, 476, 477, 478, 479, 480, 481, 482, 483, 484, 485, 486, 487, 488, 489, 490, 491, 492, 493, 494, 495, 496, 497, 498, 499, 500, 501, 502, 503, 504, 505, 506, 507, 508, 509, 510, 511, 512, 513, 514, 515, 516, 517, 518, 519, 520, 521, 522, 523, 524, 525, 526, 527, 528, 529, 530, 531, 532, 533, 534, 535, 536, 537, 538, 539, 540, 541, 542, 543, 544, 545, 546, 547, 548, 549, 550, 551, 552, 553, 554, 555, 556, 557, 558, 559, 560, 561, 562, 563, 564, 565, 566, 567, 568, 569, 570, 571, 572, 573, 574, 575, 576, 577, 578, 579, 580, 581],
      "AcquisitionTime": ["160137.722500", "160138.510000", "160139.297500", "160140.087500", "160140.875000", "160141.662500", "160142.450000", "160143.240000", "160144.027500", "160144.815000", "160145.602500", "160146.392500", "160147.180000", "160147.967500", "160148.755000", "160149.545000", "160150.332500", "160151.120000", "160151.907500", "160152.697500", "160153.485000", "160154.272500", "160155.060000", "160155.850000", "160156.637500", "160157.425000", "160158.215000", "160159.002500", "160159.790000", "160200.577500", "160201.367500", "160202.155000", "160202.942500", "160203.730000", "160204.520000", "160205.307500", "160206.095000", "160206.882500", "160207.672500", "160208.460000", "160209.247500", "160210.035000", "160210.825000", "160211.612500", "160212.400000", "160213.187500", "160213.977500", "160214.765000", "160215.552500", "160216.342500", "160217.130000", "160217.917500", "160218.705000", "160219.495000", "160220.282500", "160221.070000", "160221.857500", "160222.647500", "160223.435000", "160224.222500", "160225.010000", "160225.800000", "160226.587500", "160227.375000", "160228.162500", "160228.952500", "160229.740000", "160230.527500", "160231.317500", "160232.105000", "160232.892500", "160233.680000", "160234.470000", "160235.257500", "160236.045000", "160236.832500", "160237.622500", "160238.410000", "160239.197500", "160239.985000", "160240.775000", "160241.562500", "160242.350000", "160243.137500", "160243.927500", "160244.715000", "160245.502500", "160246.290000", "160247.080000", "160247.867500", "160248.655000", "160249.445000", "160250.232500", "160251.020000", "160251.807500", "160252.597500", "160253.385000", "160254.172500", "160254.960000", "160255.750000", "160256.537500", "160257.325000", "160258.112500", "160258.902500", "160259.690000", "160300.477500", "160301.265000", "160302.055000", "160302.842500", "160303.630000", "160304.417500", "160305.207500", "160305.995000", "160306.782500", "160307.572500", "160308.360000", "160309.147500", "160309.935000", "160310.725000", "160311.512500", "160312.300000", "160313.087500", "160313.877500", "160314.665000", "160315.452500", "160316.240000", "160317.030000", "160317.817500", "160318.605000", "160319.392500", "160320.182500", "160320.970000", "160321.757500", "160322.545000", "160323.335000", "160324.122500", "160324.910000", "160325.700000", "160326.487500", "160327.275000", "160328.062500", "160328.852500", "160329.640000", "160330.427500", "160331.215000", "160332.005000", "160332.792500", "160333.580000", "160334.367500", "160335.157500", "160335.945000", "160336.732500", "160337.520000", "160338.310000", "160339.097500", "160339.885000", "160340.672500", "160341.462500", "160342.250000", "160343.037500", "160343.827500", "160344.615000", "160345.402500", "160346.190000", "160346.980000", "160347.767500", "160348.555000", "160349.342500", "160350.132500", "160350.920000", "160351.707500", "160352.495000", "160353.285000", "160354.072500", "160354.860000", "160355.647500", "160356.437500", "160357.225000", "160358.012500", "160358.800000", "160359.590000", "160400.377500", "160401.165000", "160401.955000", "160402.742500", "160403.530000", "160404.317500", "160405.107500", "160405.895000", "160406.682500", "160407.470000", "160408.260000", "160409.047500", "160409.835000", "160410.622500", "160411.412500", "160412.200000", "160412.987500", "160413.775000", "160414.565000", "160415.352500", "160416.140000", "160416.927500", "160417.717500", "160418.505000", "160419.292500", "160420.082500", "160420.870000", "160421.657500", "160422.445000", "160423.235000", "160424.022500", "160424.810000", "160425.597500", "160426.387500", "160427.175000", "160427.962500", "160428.750000", "160429.540000", "160430.327500", "160431.115000", "160431.902500", "160432.692500", "160433.480000", "160434.267500", "160435.055000", "160435.845000", "160436.632500", "160437.420000", "160438.210000", "160438.997500", "160439.785000", "160440.572500", "160441.362500", "160442.150000", "160442.937500", "160443.725000", "160444.515000", "160445.302500", "160446.090000", "160446.877500", "160447.667500", "160448.455000", "160449.242500", "160450.030000", "160450.820000", "160451.607500", "160452.395000", "160453.182500", "160453.972500", "160454.760000", "160455.547500", "160456.337500", "160457.125000", "160457.912500", "160458.700000", "160459.490000", "160500.277500", "160501.065000", "160501.852500", "160502.642500", "160503.430000", "160504.217500", "160505.005000", "160505.795000", "160506.582500", "160507.370000", "160508.157500", "160508.947500", "160509.735000", "160510.522500", "160511.310000", "160512.100000", "160512.887500", "160513.675000", "160514.465000", "160515.252500", "160516.040000", "160516.827500", "160517.617500", "160518.405000", "160519.192500", "160519.980000", "160520.770000", "160521.557500", "160522.345000", "160523.132500", "160523.922500", "160524.710000", "160525.497500", "160526.285000", "160527.075000", "160527.862500", "160528.650000", "160529.437500", "160530.227500", "160531.015000", "160531.802500", "160532.592500", "160533.380000", "160534.167500", "160534.955000", "160535.745000", "160536.532500", "160537.320000", "160538.107500", "160538.897500", "160539.685000", "160540.472500", "160541.260000", "160542.050000", "160542.837500", "160543.625000", "160544.412500", "160545.202500", "160545.990000", "160546.777500", "160547.567500", "160548.355000", "160549.142500", "160549.930000", "160550.720000", "160551.507500", "160552.295000", "160553.082500", "160553.872500", "160554.660000", "160555.447500", "160556.235000", "160557.025000", "160557.812500", "160558.600000", "160559.387500", "160600.177500", "160600.965000", "160601.752500", "160602.540000", "160603.330000", "160604.117500", "160604.905000", "160605.695000", "160606.482500", "160607.270000", "160608.057500", "160608.847500", "160609.635000", "160610.422500", "160611.210000", "160612.000000", "160612.787500", "160613.575000", "160614.362500", "160615.152500", "160615.940000", "160616.727500", "160617.515000", "160618.305000", "160619.092500", "160619.880000", "160620.667500", "160621.457500", "160622.245000", "160623.032500", "160623.822500", "160624.610000", "160625.397500", "160626.185000", "160626.975000", "160627.762500", "160628.550000", "160629.337500", "160630.127500", "160630.915000", "160631.702500", "160632.490000", "160633.280000", "160634.067500", "160634.855000", "160635.642500", "160636.432500", "160637.220000", "160638.007500", "160638.795000", "160639.585000", "160640.372500", "160641.160000", "160641.950000", "160642.737500", "160643.525000", "160644.312500", "160645.102500", "160645.890000", "160646.677500", "160647.465000", "160648.255000", "160649.042500", "160649.830000", "160650.617500", "160651.407500", "160652.195000", "160652.982500", "160653.770000", "160654.560000", "160655.347500", "160656.135000", "160656.922500", "160657.712500", "160658.500000", "160659.287500", "160700.077500", "160700.865000", "160701.652500", "160702.440000", "160703.230000", "160704.017500", "160704.805000", "160705.592500", "160706.382500", "160707.170000", "160707.957500", "160708.745000", "160709.535000", "160710.322500", "160711.110000", "160711.897500", "160712.687500", "160713.475000", "160714.262500", "160715.050000", "160715.840000", "160716.627500", "160717.415000", "160718.205000", "160718.992500", "160719.780000", "160720.567500", "160721.357500", "160722.145000", "160722.932500", "160723.720000", "160724.510000", "160725.297500", "160726.085000", "160726.872500", "160727.662500", "160728.450000", "160729.237500", "160730.025000", "160730.815000", "160731.602500", "160732.390000", "160733.177500", "160733.967500", "160734.755000", "160735.542500", "160736.332500", "160737.120000", "160737.907500", "160738.695000", "160739.485000", "160740.272500", "160741.060000", "160741.847500", "160742.637500", "160743.425000", "160744.212500", "160745.000000", "160745.790000", "160746.577500", "160747.365000", "160748.152500", "160748.942500", "160749.730000", "160750.517500", "160751.305000", "160752.095000", "160752.882500", "160753.670000", "160754.460000", "160755.247500", "160756.035000", "160756.822500", "160757.612500", "160758.400000", "160759.187500", "160759.975000", "160800.765000", "160801.552500", "160802.340000", "160803.127500", "160803.917500", "160804.705000", "160805.492500", "160806.280000", "160807.070000", "160807.857500", "160808.645000", "160809.432500", "160810.222500", "160811.010000", "160811.797500", "160812.587500", "160813.375000", "160814.162500", "160814.950000", "160815.740000", "160816.527500", "160817.315000", "160818.102500", "160818.892500", "160819.680000", "160820.467500", "160821.255000", "160822.045000", "160822.832500", "160823.620000", "160824.407500", "160825.197500", "160825.985000", "160826.772500", "160827.560000", "160828.350000", "160829.137500", "160829.925000", "160830.715000", "160831.502500", "160832.290000", "160833.077500", "160833.867500", "160834.655000", "160835.442500", "160836.230000", "160837.020000", "160837.807500", "160838.595000", "160839.382500", "160840.172500", "160840.960000", "160841.747500", "160842.535000", "160843.325000", "160844.112500", "160844.900000", "160845.687500", "160846.477500", "160847.265000", "160848.052500", "160848.842500", "160849.630000", "160850.417500", "160851.205000", "160851.995000", "160852.782500", "160853.570000", "160854.357500", "160855.147500", "160855.935000", "160856.722500", "160857.510000", "160858.300000", "160859.087500", "160859.875000", "160900.662500", "160901.452500", "160902.240000", "160903.027500", "160903.817500", "160904.605000", "160905.392500", "160906.180000", "160906.970000", "160907.757500", "160908.545000", "160909.332500", "160910.122500", "160910.910000", "160911.697500", "160912.485000", "160913.275000", "160914.062500", "160914.850000"],
      "ContentTime": ["160203.406000", "160203.406000", "160203.406000", "160203.421000", "160203.421000", "160203.421000", "160203.421000", "160203.421000", "160203.421000", "160203.421000", "160203.437000", "160203.437000", "160203.437000", "160203.437000", "160203.437000", "160203.437000", "160203.453000", "160203.453000", "160203.453000", "160203.453000", "160203.453000", "160203.468000", "160203.468000", "160203.468000", "160203.468000", "160203.468000", "160203.468000", "160203.468000", "160203.484000", "160203.484000", "160223.390000", "160223.390000", "160223.390000", "160223.390000", "160223.390000", "160223.390000", "160223.406000", "160223.406000", "160223.406000", "160223.406000", "160223.406000", "160223.421000", "160223.421000", "160223.421000", "160223.421000", "160223.421000", "160223.421000", "160223.437000", "160223.437000", "160223.437000", "160223.437000", "160223.437000", "160223.437000", "160223.453000", "160223.453000", "160223.453000", "160243.390000", "160243.390000", "160243.390000", "160243.390000", "160243.390000", "160243.484000", "160243.484000", "160243.484000", "160243.484000", "160243.484000", "160243.500000", "160243.500000", "160243.500000", "160243.500000", "160243.500000", "160243.500000", "160243.500000", "160243.515000", "160243.515000", "160243.515000", "160243.515000", "160243.515000", "160243.515000", "160243.515000", "160243.531000", "160303.390000", "160303.390000", "160303.390000", "160303.390000", "160303.390000", "160303.390000", "160303.390000", "160303.406000", "160303.406000", "160303.406000", "160303.406000", "160303.406000", "160303.406000", "160303.406000", "160303.421000", "160303.421000", "160303.421000", "160303.421000", "160303.421000", "160303.421000", "160303.421000", "160303.437000", "160303.437000", "160303.437000", "160303.437000", "160303.437000", "160323.390000", "160323.390000", "160323.390000", "160323.390000", "160323.390000", "160323.390000", "160323.390000", "160323.406000", "160323.421000", "160323.421000", "160323.421000", "160323.421000", "160323.437000", "160323.437000", "160323.437000", "160323.437000", "160323.437000", "160323.437000", "160323.437000", "160323.453000", "160323.453000", "160323.453000", "160323.453000", "160323.453000", "160323.468000", "160343.390000", "160343.390000", "160343.390000", "160343.390000", "160343.390000", "160343.406000", "160343.406000", "160343.406000", "160343.406000", "160343.406000", "160343.406000", "160343.421000", "160343.421000", "160343.421000", "160343.421000", "160343.421000", "160343.437000", "160343.437000", "160343.437000", "160343.437000", "160343.437000", "160343.437000", "160343.437000", "160343.453000", "160343.453000", "160403.390000", "160403.390000", "160403.390000", "160403.390000", "160403.390000", "160403.390000", "160403.390000", "160403.406000", "160403.406000", "160403.406000", "160403.406000", "160403.406000", "160403.406000", "160403.421000", "160403.421000", "160403.421000", "160403.421000", "160403.421000", "160403.421000", "160403.421000", "160403.437000", "160403.437000", "160403.437000", "160403.437000", "160403.437000", "160403.437000", "160423.390000", "160423.390000", "160423.390000", "160423.390000", "160423.390000", "160423.390000", "160423.406000", "160423.406000", "160423.406000", "160423.406000", "160423.406000", "160423.406000", "160423.406000", "160423.421000", "160423.421000", "160423.421000", "160423.421000", "160423.421000", "160423.421000", "160423.437000", "160423.437000", "160423.437000", "160423.437000", "160423.437000", "160423.437000", "160443.390000", "160443.390000", "160443.390000", "160443.390000", "160443.390000", "160443.390000", "160443.390000", "160443.406000", "160443.406000", "160443.406000", "160443.406000", "160443.406000", "160443.406000", "160443.421000", "160443.421000", "160443.421000", "160443.421000", "160443.421000", "160443.421000", "160443.421000", "160443.437000", "160443.437000", "160443.437000", "160443.437000", "160443.437000", "160443.437000", "160503.390000", "160503.390000", "160503.390000", "160503.390000", "160503.390000", "160503.390000", "160503.390000", "160503.406000", "160503.406000", "160503.406000", "160503.406000", "160503.406000", "160503.406000", "160503.421000", "160503.421000", "160503.421000", "160503.421000", "160503.421000", "160503.437000", "160503.437000", "160503.437000", "160503.437000", "160503.437000", "160503.437000", "160503.437000", "160523.390000", "160523.390000", "160523.390000", "160523.390000", "160523.390000", "160523.390000", "160523.390000", "160523.406000", "160523.406000", "160523.406000", "160523.406000", "160523.406000", "160523.406000", "160523.406000", "160523.421000", "160523.421000", "160523.421000", "160523.421000", "160523.421000", "160523.421000", "160523.421000", "160523.437000", "160523.437000", "160523.437000", "160523.437000", "160523.437000", "160543.390000", "160543.390000", "160543.390000", "160543.390000", "160543.390000", "160543.390000", "160543.390000", "160543.406000", "160543.406000", "160543.406000", "160543.406000", "160543.406000", "160543.406000", "160543.406000", "160543.421000", "160543.421000", "160543.421000", "160543.421000", "160543.437000", "160543.437000", "160543.437000", "160543.437000", "160543.437000", "160543.437000", "160543.453000", "160603.390000", "160603.390000", "160603.390000", "160603.390000", "160603.390000", "160603.406000", "160603.406000", "160603.406000", "160603.406000", "160603.406000", "160603.421000", "160603.421000", "160603.421000", "160603.421000", "160603.421000", "160603.421000", "160603.437000", "160603.437000", "160603.437000", "160603.437000", "160603.437000", "160603.437000", "160603.437000", "160603.453000", "160603.453000", "160603.453000", "160623.390000", "160623.390000", "160623.390000", "160623.390000", "160623.406000", "160623.406000", "160623.406000", "160623.406000", "160623.406000", "160623.406000", "160623.421000", "160623.421000", "160623.421000", "160623.421000", "160623.421000", "160623.421000", "160623.421000", "160623.437000", "160623.437000", "160623.437000", "160623.437000", "160623.437000", "160623.437000", "160623.437000", "160623.453000", "160643.390000", "160643.390000", "160643.390000", "160643.390000", "160643.390000", "160643.390000", "160643.390000", "160643.406000", "160643.406000", "160643.406000", "160643.406000", "160643.406000", "160643.406000", "160643.406000", "160643.421000", "160643.421000", "160643.421000", "160643.421000", "160643.421000", "160643.421000", "160643.437000", "160643.437000", "160643.437000", "160643.437000", "160643.437000", "160643.437000", "160703.390000", "160703.390000", "160703.390000", "160703.390000", "160703.390000", "160703.390000", "160703.390000", "160703.406000", "160703.406000", "160703.406000", "160703.406000", "160703.406000", "160703.421000", "160703.421000", "160703.421000", "160703.421000", "160703.421000", "160703.421000", "160703.421000", "160703.437000", "160703.437000", "160703.437000", "160703.437000", "160703.437000", "160703.453000", "160723.390000", "160723.390000", "160723.390000", "160723.390000", "160723.390000", "160723.390000", "160723.390000", "160723.406000", "160723.406000", "160723.406000", "160723.406000", "160723.406000", "160723.406000", "160723.406000", "160723.421000", "160723.421000", "160723.421000", "160723.421000", "160723.421000", "160723.437000", "160723.437000", "160723.437000", "160723.437000", "160723.437000", "160723.437000", "160723.437000", "160743.390000", "160743.390000", "160743.390000", "160743.390000", "160743.390000", "160743.390000", "160743.390000", "160743.406000", "160743.406000", "160743.406000", "160743.406000", "160743.406000", "160743.406000", "160743.406000", "160743.421000", "160743.421000", "160743.421000", "160743.421000", "160743.421000", "160743.421000", "160743.421000", "160743.437000", "160743.437000", "160743.437000", "160743.437000", "160803.390000", "160803.390000", "160803.390000", "160803.390000", "160803.390000", "160803.390000", "160803.390000", "160803.406000", "160803.406000", "160803.406000", "160803.406000", "160803.406000", "160803.406000", "160803.406000", "160803.421000", "160803.421000", "160803.421000", "160803.421000", "160803.421000", "160803.421000", "160803.421000", "160803.437000", "160803.437000", "160803.437000", "160803.437000", "160803.453000", "160823.390000", "160823.390000", "160823.390000", "160823.390000", "160823.390000", "160823.390000", "160823.390000", "160823.406000", "160823.406000", "160823.406000", "160823.406000", "160823.406000", "160823.406000", "160823.406000", "160823.421000", "160823.421000", "160823.421000", "160823.421000", "160823.421000", "160823.421000", "160823.437000", "160823.437000", "160823.437000", "160823.437000", "160823.437000", "160843.390000", "160843.390000", "160843.390000", "160843.390000", "160843.390000", "160843.390000", "160843.390000", "160843.406000", "160843.406000", "160843.406000", "160843.406000", "160843.406000", "160843.406000", "160843.406000", "160843.421000", "160843.421000", "160843.421000", "160843.421000", "160843.421000", "160843.421000", "160843.421000", "160843.437000", "160843.437000", "160843.437000", "160843.437000", "160843.437000", "160903.390000", "160903.390000", "160903.390000", "160903.390000", "160903.390000", "160903.390000", "160903.390000", "160903.406000", "160903.406000", "160903.406000", "160903.406000", "160903.406000", "160903.406000", "160903.406000", "160903.421000", "160903.421000", "160903.421000", "160903.421000", "160903.421000", "160903.421000", "160903.437000", "160903.437000", "160903.437000", "160903.437000", "160903.437000", "160915.531000", "160915.531000", "160915.546000", "160915.546000", "160915.546000", "160915.546000", "160915.546000", "160915.546000", "160915.562000", "160915.562000", "160915.562000", "160915.562000", "160915.562000", "160915.562000", "160915.578000", "160915.578000"],
      "DataSetTrailingPadding": [
        "\u0000\u0000\u0000\u0000\u0000\u0000\u0000\u0000\u0000\u0000\u0000\u0000\u0000\u0000\u0000\u0000\u0000\u0000\u0000\u0000\u0000\u0000\u0000\u0000\u0000\u0000\u0000\u0000\u0000\u0000\u0000\u0000\u0000\u0000\u0000\u0000\u0000\u0000\u0000\u0000\u0000\u0000\u0000\u0000\u0000\u0000\u0000\u0000\u0000\u0000\u0000\u0000\u0000\u0000\u0000\u0000\u0000\u0000\u0000\u0000\u0000\u0000\u0000\u0000\u0000\u0000\u0000\u0000\u0000\u0000\u0000\u0000\u0000\u0000\u0000\u0000\u0000\u0000\u0000\u0000\u0000\u0000\u0000\u0000\u0000\u0000\u0000\u0000\u0000\u0000\u0000\u0000\u0000\u0000",
        "\u0000\u0000\u0000\u0000\u0000\u0000\u0000\u0000\u0000\u0000\u0000\u0000\u0000\u0000\u0000\u0000\u0000\u0000\u0000\u0000\u0000\u0000\u0000\u0000\u0000\u0000\u0000\u0000\u0000\u0000\u0000\u0000\u0000\u0000\u0000\u0000\u0000\u0000\u0000\u0000\u0000\u0000\u0000\u0000\u0000\u0000\u0000\u0000\u0000\u0000\u0000\u0000\u0000\u0000\u0000\u0000\u0000\u0000\u0000\u0000\u0000\u0000\u0000\u0000\u0000\u0000\u0000\u0000\u0000\u0000\u0000\u0000\u0000\u0000\u0000\u0000\u0000\u0000\u0000\u0000\u0000\u0000\u0000\u0000\u0000\u0000\u0000\u0000\u0000\u0000\u0000\u0000\u0000\u0000",
        "\u0000\u0000\u0000\u0000\u0000\u0000\u0000\u0000\u0000\u0000\u0000\u0000\u0000\u0000\u0000\u0000\u0000\u0000\u0000\u0000\u0000\u0000\u0000\u0000\u0000\u0000\u0000\u0000\u0000\u0000\u0000\u0000\u0000\u0000\u0000\u0000\u0000\u0000\u0000\u0000\u0000\u0000\u0000\u0000\u0000\u0000\u0000\u0000\u0000\u0000\u0000\u0000\u0000\u0000\u0000\u0000\u0000\u0000\u0000\u0000\u0000\u0000\u0000\u0000\u0000\u0000\u0000\u0000\u0000\u0000\u0000\u0000\u0000\u0000\u0000\u0000\u0000\u0000\u0000\u0000\u0000\u0000\u0000\u0000\u0000\u0000\u0000\u0000\u0000\u0000\u0000\u0000",
