{
  "AcquisitionMatrixPE": 104,
  "AcquisitionNumber": 1,
  "AcquisitionTime": "16:26:23.772500",
  "BandwidthPerPixelPhaseEncode": 13.935,
  "BaseResolution": 104,
  "CoilString": "C:HEA;HEP",
  "ConversionSoftware": "dcm2niix",
  "ConversionSoftwareVersion": "v1.0.20210317",
  "DerivedVendorReportedEchoSpacing": 0.000690017,
  "DeviceSerialNumber": "35450",
  "DwellTime": 2.5e-06,
  "EchoTime": 0.0348,
  "EffectiveEchoSpacing": 0.000690017,
  "FlipAngle": 55,
  "ImageComments": "Unaliased MB8/PE3 (remote)",
  "ImageOrientationPatientDICOM": [0.999875, 0.00238777, 0.015606, -4.03403e-08, 0.988497, -0.151241],
  "ImageType": [
    "ORIGINAL",
    "PRIMARY",
    "M",
    "MB",
    "ND",
    "MOSAIC"
],
  "ImagingFrequency": 123.235,
  "InPlanePhaseEncodingDirectionDICOM": "COL",
  "InstitutionAddress": "Univeristy Ave. 197,Newark,North East,US,07102-1814",
  "InstitutionName": "RUBIC",
  "InstitutionalDepartmentName": "Department",
  "MRAcquisitionType": "2D",
  "MagneticFieldStrength": 3,
  "Manufacturer": "Siemens",
  "ManufacturersModelName": "TrioTim",
  "Modality": "MR",
  "MultibandAccelerationFactor": 8,
  "PartialFourier": 0.875,
  "PatientPosition": "HFS",
  "PercentPhaseFOV": 100,
  "PercentSampling": 100,
  "PhaseEncodingDirection": "j-",
  "PhaseEncodingSteps": 91,
  "PhaseResolution": 1,
  "PixelBandwidth": 1923,
  "ProcedureStepDescription": "Cole^Michael",
  "ProtocolName": "cmrr_mbep2d_bold_2mm_MB8_Task_8x",
  "PulseSequenceDetails": "%CustomerSeq%\\cmrr_mbep2d_bold",
  "ReceiveCoilName": "32Ch_Head",
  "ReconMatrixPE": 104,
  "RepetitionTime": 0.785,
  "SAR": 0.122333,
  "ScanOptions": "PFP\\FS",
  "ScanningSequence": "EP",
  "SequenceName": "epfid2d1_104",
  "SequenceVariant": "SK\\SS",
  "SeriesDescription": "cmrr_mbep2d_bold_2mm_MB8_Task_8x",
  "SeriesNumber": 25,
  "ShimSetting": [2121, -415, -7230, 493, 41, -82, 288, -71],
  "SliceThickness": 2,
  "SliceTiming": [0, 0.4375, 0.0875, 0.525, 0.175, 0.6125, 0.2625, 0.7, 0.35, 0, 0.4375, 0.0875, 0.525, 0.175, 0.6125, 0.2625, 0.7, 0.35, 0, 0.4375, 0.0875, 0.525, 0.175, 0.6125, 0.2625, 0.7, 0.35, 0, 0.4375, 0.0875, 0.525, 0.175, 0.6125, 0.2625, 0.7, 0.35, 0, 0.4375, 0.0875, 0.525, 0.175, 0.6125, 0.2625, 0.7, 0.35, 0, 0.4375, 0.0875, 0.525, 0.175, 0.6125, 0.2625, 0.7, 0.35, 0, 0.4375, 0.0875, 0.525, 0.175, 0.6125, 0.2625, 0.7, 0.35, 0, 0.4375, 0.0875, 0.525, 0.175, 0.6125, 0.2625, 0.7, 0.35],
  "SoftwareVersions": "syngo MR B19",
  "SpacingBetweenSlices": 2,
  "StationName": "MRC35450",
  "TaskName": "cpro",
  "TotalReadoutTime": 0.0710717,
  "TxRefAmp": 327.654,
  "dcmmeta_affine": [
    [-1.9997507333755493, -8.068052181897656e-08, 0.03157525882124901, 106.49131774902344],
    [-0.004775544628500938, 1.9769939184188843, -0.30244380235671997, -85.14537811279297],
    [0.031212031841278076, 0.302481472492218, 1.9767476320266724, -106.7633056640625],
    [0.0, 0.0, 0.0, 1.0]
],
  "dcmmeta_reorient_transform": [
    [0.0, -1.0, 0.0, 103.0],
    [1.0, 0.0, 0.0, 0.0],
    [0.0, 0.0, 1.0, 0.0],
    [0.0, 0.0, 0.0, 1.0]
],
  "dcmmeta_shape": [104, 104, 72, 581],
  "dcmmeta_slice_dim": 2,
  "dcmmeta_version": 0.6,
  "global": {
    "const": {
      "AcquisitionMatrix": [104, 0, 0, 104],
      "AngioFlag": "N",
      "BitsAllocated": 16,
      "BitsStored": 12,
      "Columns": 936,
      "EchoNumbers": 1,
      "EchoTime": 34.8,
      "EchoTrainLength": 1,
      "FlipAngle": 55.0,
      "HighBit": 11,
      "ImageOrientationPatient": [0.99987536763266, 0.00238777242792, 0.01560601628488, -4.034026e-08, 0.98849695932957, -0.1512407398692],
      "ImagePositionPatient": [-938.38758500551, -942.90108946242, 37.240379045961],
      "ImageType": [
        "ORIGINAL",
        "PRIMARY",
        "M",
        "MB",
        "ND",
        "MOSAIC"
],
      "ImagedNucleus": "1H",
      "ImagingFrequency": 123.234936,
      "InPlanePhaseEncodingDirection": "COL",
      "MRAcquisitionType": "2D",
      "MagneticFieldStrength": 3.0,
      "Manufacturer": "SIEMENS",
      "ManufacturerModelName": "TrioTim",
      "Modality": "MR",
      "NumberOfAverages": 1.0,
      "NumberOfPhaseEncodingSteps": 91,
      "PercentPhaseFieldOfView": 100.0,
      "PercentSampling": 100.0,
      "PerformedProcedureStepStartTime": "142703.562000",
      "PhotometricInterpretation": "MONOCHROME2",
      "PixelBandwidth": 1923.0,
      "PixelRepresentation": 0,
      "PixelSpacing": [2.0, 2.0],
      "ProtocolName": "cmrr_mbep2d_bold_2mm_MB8_Task_8x",
      "RepetitionTime": 785.0,
      "Rows": 936,
      "SAR": 0.12233345433063,
      "SamplesPerPixel": 1,
      "ScanOptions": [
        "PFP",
        "FS"
],
      "ScanningSequence": "EP",
      "SequenceName": "epfid2d1_104",
      "SequenceVariant": [
        "SK",
        "SS"
],
      "SeriesDescription": "cmrr_mbep2d_bold_2mm_MB8_Task_8x",
      "SeriesNumber": 25,
      "SeriesTime": "162643.406000",
      "SliceLocation": -90.964956887892,
      "SliceThickness": 2.0,
      "SmallestImagePixelValue": 0,
      "SoftwareVersions": "syngo MR B19",
      "SpacingBetweenSlices": 2.0000000690522,
      "SpecificCharacterSet": "ISO_IR 100",
      "StudyID": "1",
      "StudyTime": "142703.531000",
      "TransmitCoilName": "Body",
      "VariableFlipAngleFlag": "N",
      "WindowCenterWidthExplanation": "Algo1",
      "dBdt": 0.0},
    "slices": {}
  },
  "time": {
    "samples": {
      "AcquisitionNumber": [1, 2, 3, 4, 5, 6, 7, 8, 9, 10, 11, 12, 13, 14, 15, 16, 17, 18, 19, 20, 21, 22, 23, 24, 25, 26, 27, 28, 29, 30, 31, 32, 33, 34, 35, 36, 37, 38, 39, 40, 41, 42, 43, 44, 45, 46, 47, 48, 49, 50, 51, 52, 53, 54, 55, 56, 57, 58, 59, 60, 61, 62, 63, 64, 65, 66, 67, 68, 69, 70, 71, 72, 73, 74, 75, 76, 77, 78, 79, 80, 81, 82, 83, 84, 85, 86, 87, 88, 89, 90, 91, 92, 93, 94, 95, 96, 97, 98, 99, 100, 101, 102, 103, 104, 105, 106, 107, 108, 109, 110, 111, 112, 113, 114, 115, 116, 117, 118, 119, 120, 121, 122, 123, 124, 125, 126, 127, 128, 129, 130, 131, 132, 133, 134, 135, 136, 137, 138, 139, 140, 141, 142, 143, 144, 145, 146, 147, 148, 149, 150, 151, 152, 153, 154, 155, 156, 157, 158, 159, 160, 161, 162, 163, 164, 165, 166, 167, 168, 169, 170, 171, 172, 173, 174, 175, 176, 177, 178, 179, 180, 181, 182, 183, 184, 185, 186, 187, 188, 189, 190, 191, 192, 193, 194, 195, 196, 197, 198, 199, 200, 201, 202, 203, 204, 205, 206, 207, 208, 209, 210, 211, 212, 213, 214, 215, 216, 217, 218, 219, 220, 221, 222, 223, 224, 225, 226, 227, 228, 229, 230, 231, 232, 233, 234, 235, 236, 237, 238, 239, 240, 241, 242, 243, 244, 245, 246, 247, 248, 249, 250, 251, 252, 253, 254, 255, 256, 257, 258, 259, 260, 261, 262, 263, 264, 265, 266, 267, 268, 269, 270, 271, 272, 273, 274, 275, 276, 277, 278, 279, 280, 281, 282, 283, 284, 285, 286, 287, 288, 289, 290, 291, 292, 293, 294, 295, 296, 297, 298, 299, 300, 301, 302, 303, 304, 305, 306, 307, 308, 309, 310, 311, 312, 313, 314, 315, 316, 317, 318, 319, 320, 321, 322, 323, 324, 325, 326, 327, 328, 329, 330, 331, 332, 333, 334, 335, 336, 337, 338, 339, 340, 341, 342, 343, 344, 345, 346, 347, 348, 349, 350, 351, 352, 353, 354, 355, 356, 357, 358, 359, 360, 361, 362, 363, 364, 365, 366, 367, 368, 369, 370, 371, 372, 373, 374, 375, 376, 377, 378, 379, 380, 381, 382, 383, 384, 385, 386, 387, 388, 389, 390, 391, 392, 393, 394, 395, 396, 397, 398, 399, 400, 401, 402, 403, 404, 405, 406, 407, 408, 409, 410, 411, 412, 413, 414, 415, 416, 417, 418, 419, 420, 421, 422, 423, 424, 425, 426, 427, 428, 429, 430, 431, 432, 433, 434, 435, 436, 437, 438, 439, 440, 441, 442, 443, 444, 445, 446, 447, 448, 449, 450, 451, 452, 453, 454, 455, 456, 457, 458, 459, 460, 461, 462, 463, 464, 465, 466, 467, 468, 469, 470, 471, 472, 473, 474, 475, 476, 477, 478, 479, 480, 481, 482, 483, 484, 485, 486, 487, 488, 489, 490, 491, 492, 493, 494, 495, 496, 497, 498, 499, 500, 501, 502, 503, 504, 505, 506, 507, 508, 509, 510, 511, 512, 513, 514, 515, 516, 517, 518, 519, 520, 521, 522, 523, 524, 525, 526, 527, 528, 529, 530, 531, 532, 533, 534, 535, 536, 537, 538, 539, 540, 541, 542, 543, 544, 545, 546, 547, 548, 549, 550, 551, 552, 553, 554, 555, 556, 557, 558, 559, 560, 561, 562, 563, 564, 565, 566, 567, 568, 569, 570, 571, 572, 573, 574, 575, 576, 577, 578, 579, 580, 581],
      "AcquisitionTime": ["162623.772500", "162624.560000", "162625.347500", "162626.137500", "162626.925000", "162627.712500", "162628.500000", "162629.290000", "162630.077500", "162630.865000", "162631.652500", "162632.442500", "162633.230000", "162634.017500", "162634.807500", "162635.595000", "162636.382500", "162637.170000", "162637.960000", "162638.747500", "162639.535000", "162640.322500", "162641.112500", "162641.900000", "162642.687500", "162643.475000", "162644.265000", "162645.052500", "162645.840000", "162646.627500", "162647.417500", "162648.205000", "162648.992500", "162649.780000", "162650.570000", "162651.357500", "162652.145000", "162652.935000", "162653.722500", "162654.510000", "162655.297500", "162656.087500", "162656.875000", "162657.662500", "162658.450000", "162659.240000", "162700.027500", "162700.815000", "162701.602500", "162702.392500", "162703.180000", "162703.967500", "162704.755000", "162705.545000", "162706.332500", "162707.120000", "162707.907500", "162708.697500", "162709.485000", "162710.272500", "162711.062500", "162711.850000", "162712.637500", "162713.425000", "162714.215000", "162715.002500", "162715.790000", "162716.577500", "162717.367500", "162718.155000", "162718.942500", "162719.730000", "162720.520000", "162721.307500", "162722.095000", "162722.882500", "162723.672500", "162724.460000", "162725.247500", "162726.035000", "162726.825000", "162727.612500", "162728.400000", "162729.190000", "162729.977500", "162730.765000", "162731.552500", "162732.342500", "162733.130000", "162733.917500", "162734.705000", "162735.495000", "162736.282500", "162737.070000", "162737.857500", "162738.647500", "162739.435000", "162740.222500", "162741.010000", "162741.800000", "162742.587500", "162743.375000", "162744.162500", "162744.952500", "162745.740000", "162746.527500", "162747.317500", "162748.105000", "162748.892500", "162749.680000", "162750.470000", "162751.257500", "162752.045000", "162752.832500", "162753.622500", "162754.410000", "162755.197500", "162755.985000", "162756.775000", "162757.562500", "162758.350000", "162759.137500", "162759.927500", "162800.715000", "162801.502500", "162802.290000", "162803.080000", "162803.867500", "162804.655000", "162805.445000", "162806.232500", "162807.020000", "162807.807500", "162808.597500", "162809.385000", "162810.172500", "162810.960000", "162811.750000", "162812.537500", "162813.325000", "162814.112500", "162814.902500", "162815.690000", "162816.477500", "162817.265000", "162818.055000", "162818.842500", "162819.630000", "162820.417500", "162821.207500", "162821.995000", "162822.782500", "162823.572500", "162824.360000", "162825.147500", "162825.935000", "162826.725000", "162827.512500", "162828.300000", "162829.087500", "162829.877500", "162830.665000", "162831.452500", "162832.240000", "162833.030000", "162833.817500", "162834.605000", "162835.392500", "162836.182500", "162836.970000", "162837.757500", "162838.545000", "162839.335000", "162840.122500", "162840.910000", "162841.700000", "162842.487500", "162843.275000", "162844.062500", "162844.852500", "162845.640000", "162846.427500", "162847.215000", "162848.005000", "162848.792500", "162849.580000", "162850.367500", "162851.157500", "162851.945000", "162852.732500", "162853.520000", "162854.310000", "162855.097500", "162855.885000", "162856.672500", "162857.462500", "162858.250000", "162859.037500", "162859.827500", "162900.615000", "162901.402500", "162902.190000", "162902.980000", "162903.767500", "162904.555000", "162905.342500", "162906.132500", "162906.920000", "162907.707500", "162908.495000", "162909.285000", "162910.072500", "162910.860000", "162911.647500", "162912.437500", "162913.225000", "162914.012500", "162914.800000", "162915.590000", "162916.377500", "162917.165000", "162917.955000", "162918.742500", "162919.530000", "162920.317500", "162921.107500", "162921.895000", "162922.682500", "162923.470000", "162924.260000", "162925.047500", "162925.835000", "162926.622500", "162927.412500", "162928.200000", "162928.987500", "162929.775000", "162930.565000", "162931.352500", "162932.140000", "162932.930000", "162933.717500", "162934.505000", "162935.292500", "162936.082500", "162936.870000", "162937.657500", "162938.445000", "162939.235000", "162940.022500", "162940.810000", "162941.597500", "162942.387500", "162943.175000", "162943.962500", "162944.750000", "162945.540000", "162946.327500", "162947.115000", "162947.902500", "162948.692500", "162949.480000", "162950.267500", "162951.057500", "162951.845000", "162952.632500", "162953.420000", "162954.210000", "162954.997500", "162955.785000", "162956.572500", "162957.362500", "162958.150000", "162958.937500", "162959.725000", "163000.515000", "163001.302500", "163002.090000", "163002.877500", "163003.667500", "163004.455000", "163005.242500", "163006.030000", "163006.820000", "163007.607500", "163008.395000", "163009.185000", "163009.972500", "163010.760000", "163011.547500", "163012.337500", "163013.125000", "163013.912500", "163014.700000", "163015.490000", "163016.277500", "163017.065000", "163017.852500", "163018.642500", "163019.430000", "163020.217500", "163021.005000", "163021.795000", "163022.582500", "163023.370000", "163024.157500", "163024.947500", "163025.735000", "163026.522500", "163027.312500", "163028.100000", "163028.887500", "163029.675000", "163030.465000", "163031.252500", "163032.040000", "163032.827500", "163033.617500", "163034.405000", "163035.192500", "163035.980000", "163036.770000", "163037.557500", "163038.345000", "163039.132500", "163039.922500", "163040.710000", "163041.497500", "163042.285000", "163043.075000", "163043.862500", "163044.650000", "163045.440000", "163046.227500", "163047.015000", "163047.802500", "163048.592500", "163049.380000", "163050.167500", "163050.955000", "163051.745000", "163052.532500", "163053.320000", "163054.107500", "163054.897500", "163055.685000", "163056.472500", "163057.260000", "163058.050000", "163058.837500", "163059.625000", "163100.412500", "163101.202500", "163101.990000", "163102.777500", "163103.567500", "163104.355000", "163105.142500", "163105.930000", "163106.720000", "163107.507500", "163108.295000", "163109.082500", "163109.872500", "163110.660000", "163111.447500", "163112.235000", "163113.025000", "163113.812500", "163114.600000", "163115.387500", "163116.177500", "163116.965000", "163117.752500", "163118.540000", "163119.330000", "163120.117500", "163120.905000", "163121.695000", "163122.482500", "163123.270000", "163124.057500", "163124.847500", "163125.635000", "163126.422500", "163127.210000", "163128.000000", "163128.787500", "163129.575000", "163130.362500", "163131.152500", "163131.940000", "163132.727500", "163133.515000", "163134.305000", "163135.092500", "163135.880000", "163136.667500", "163137.457500", "163138.245000", "163139.032500", "163139.822500", "163140.610000", "163141.397500", "163142.185000", "163142.975000", "163143.762500", "163144.550000", "163145.337500", "163146.127500", "163146.915000", "163147.702500", "163148.490000", "163149.280000", "163150.067500", "163150.855000", "163151.642500", "163152.432500", "163153.220000", "163154.007500", "163154.795000", "163155.585000", "163156.372500", "163157.160000", "163157.950000", "163158.737500", "163159.525000", "163200.312500", "163201.102500", "163201.890000", "163202.677500", "163203.465000", "163204.255000", "163205.042500", "163205.830000", "163206.617500", "163207.407500", "163208.195000", "163208.982500", "163209.770000", "163210.560000", "163211.347500", "163212.135000", "163212.922500", "163213.712500", "163214.500000", "163215.287500", "163216.077500", "163216.865000", "163217.652500", "163218.440000", "163219.230000", "163220.017500", "163220.805000", "163221.592500", "163222.382500", "163223.170000", "163223.957500", "163224.745000", "163225.535000", "163226.322500", "163227.110000", "163227.897500", "163228.687500", "163229.475000", "163230.262500", "163231.050000", "163231.840000", "163232.627500", "163233.415000", "163234.205000", "163234.992500", "163235.780000", "163236.567500", "163237.357500", "163238.145000", "163238.932500", "163239.720000", "163240.510000", "163241.297500", "163242.085000", "163242.872500", "163243.662500", "163244.450000", "163245.237500", "163246.025000", "163246.815000", "163247.602500", "163248.390000", "163249.180000", "163249.967500", "163250.755000", "163251.542500", "163252.332500", "163253.120000", "163253.907500", "163254.695000", "163255.485000", "163256.272500", "163257.060000", "163257.847500", "163258.637500", "163259.425000", "163300.212500", "163301.000000", "163301.790000", "163302.577500", "163303.365000", "163304.152500", "163304.942500", "163305.730000", "163306.517500", "163307.307500", "163308.095000", "163308.882500", "163309.670000", "163310.460000", "163311.247500", "163312.035000", "163312.822500", "163313.612500", "163314.400000", "163315.187500", "163315.975000", "163316.765000", "163317.552500", "163318.340000", "163319.127500", "163319.917500", "163320.705000", "163321.492500", "163322.280000", "163323.070000", "163323.857500", "163324.645000", "163325.435000", "163326.222500", "163327.010000", "163327.797500", "163328.587500", "163329.375000", "163330.162500", "163330.950000", "163331.740000", "163332.527500", "163333.315000", "163334.102500", "163334.892500", "163335.680000", "163336.467500", "163337.255000", "163338.045000", "163338.832500", "163339.620000", "163340.407500", "163341.197500", "163341.985000", "163342.772500", "163343.562500", "163344.350000", "163345.137500", "163345.925000", "163346.715000", "163347.502500", "163348.290000", "163349.077500", "163349.867500", "163350.655000", "163351.442500", "163352.230000", "163353.020000", "163353.807500", "163354.595000", "163355.382500", "163356.172500", "163356.960000", "163357.747500", "163358.535000", "163359.325000", "163400.112500", "163400.900000"],
      "ContentTime": ["162643.406000", "162643.406000", "162643.406000", "162643.421000", "162643.421000", "162643.421000", "162643.421000", "162643.421000", "162643.421000", "162643.421000", "162643.437000", "162643.437000", "162643.437000", "162643.437000", "162643.437000", "162643.437000", "162643.453000", "162643.453000", "162643.453000", "162643.453000", "162643.453000", "162643.453000", "162703.390000", "162703.390000", "162703.390000", "162703.390000", "162703.390000", "162703.406000", "162703.406000", "162703.406000", "162703.406000", "162703.406000", "162703.406000", "162703.406000", "162703.421000", "162703.421000", "162703.421000", "162703.421000", "162703.421000", "162703.421000", "162703.421000", "162703.437000", "162703.437000", "162703.437000", "162703.437000", "162703.437000", "162703.453000", "162723.390000", "162723.390000", "162723.390000", "162723.390000", "162723.390000", "162723.390000", "162723.390000", "162723.406000", "162723.406000", "162723.406000", "162723.421000", "162723.421000", "162723.421000", "162723.421000", "162723.421000", "162723.421000", "162723.437000", "162723.437000", "162723.437000", "162723.437000", "162723.437000", "162723.437000", "162723.437000", "162723.453000", "162723.453000", "162723.453000", "162743.390000", "162743.390000", "162743.390000", "162743.390000", "162743.390000", "162743.390000", "162743.390000", "162743.406000", "162743.406000", "162743.406000", "162743.406000", "162743.406000", "162743.406000", "162743.406000", "162743.421000", "162743.421000", "162743.421000", "162743.437000", "162743.437000", "162743.437000", "162743.437000", "162743.437000", "162743.437000", "162743.437000", "162743.453000", "162803.390000", "162803.390000", "162803.390000", "162803.390000", "162803.390000", "162803.390000", "162803.390000", "162803.406000", "162803.406000", "162803.406000", "162803.406000", "162803.406000", "162803.406000", "162803.406000", "162803.421000", "162803.421000", "162803.421000", "162803.421000", "162803.421000", "162803.421000", "162803.421000", "162803.437000", "162803.437000", "162803.437000", "162803.437000", "162803.437000", "162823.390000", "162823.390000", "162823.390000", "162823.390000", "162823.390000", "162823.390000", "162823.390000", "162823.406000", "162823.406000", "162823.406000", "162823.406000", "162823.406000", "162823.406000", "162823.406000", "162823.421000", "162823.421000", "162823.421000", "162823.421000", "162823.421000", "162823.421000", "162823.421000", "162823.437000", "162823.437000", "162823.437000", "162823.437000", "162843.390000", "162843.390000", "162843.390000", "162843.390000", "162843.406000", "162843.406000", "162843.406000", "162843.406000", "162843.406000", "162843.406000", "162843.406000", "162843.421000", "162843.421000", "162843.421000", "162843.421000", "162843.421000", "162843.437000", "162843.437000", "162843.437000", "162843.437000", "162843.437000", "162843.437000", "162843.453000", "162843.453000", "162843.453000", "162843.453000", "162903.390000", "162903.390000", "162903.390000", "162903.390000", "162903.390000", "162903.390000", "162903.390000", "162903.406000", "162903.406000", "162903.406000", "162903.406000", "162903.421000", "162903.421000", "162903.421000", "162903.421000", "162903.421000", "162903.421000", "162903.421000", "162903.437000", "162903.437000", "162903.437000", "162903.437000", "162903.437000", "162903.437000", "162903.437000", "162923.390000", "162923.390000", "162923.390000", "162923.390000", "162923.390000", "162923.390000", "162923.390000", "162923.406000", "162923.406000", "162923.406000", "162923.406000", "162923.406000", "162923.406000", "162923.406000", "162923.421000", "162923.421000", "162923.421000", "162923.421000", "162923.421000", "162923.421000", "162923.437000", "162923.437000", "162923.437000", "162923.437000", "162923.453000", "162923.453000", "162943.390000", "162943.390000", "162943.390000", "162943.390000", "162943.390000", "162943.406000", "162943.406000", "162943.406000", "162943.421000", "162943.421000", "162943.421000", "162943.421000", "162943.421000", "162943.421000", "162943.437000", "162943.437000", "162943.437000", "162943.437000", "162943.437000", "162943.453000", "162943.453000", "162943.453000", "162943.453000", "162943.453000", "162943.468000", "163003.390000", "163003.390000", "163003.390000", "163003.390000", "163003.390000", "163003.390000", "163003.390000", "163003.406000", "163003.406000", "163003.406000", "163003.406000", "163003.406000", "163003.406000", "163003.406000", "163003.421000", "163003.421000", "163003.421000", "163003.421000", "163003.421000", "163003.421000", "163003.421000", "163003.437000", "163003.437000", "163003.437000", "163003.453000", "163003.453000", "163023.390000", "163023.390000", "163023.390000", "163023.390000", "163023.390000", "163023.390000", "163023.390000", "163023.406000", "163023.406000", "163023.406000", "163023.406000", "163023.406000", "163023.406000", "163023.406000", "163023.421000", "163023.421000", "163023.421000", "163023.421000", "163023.421000", "163023.421000", "163023.437000", "163023.437000", "163023.437000", "163023.437000", "163023.437000", "163043.390000", "163043.390000", "163043.390000", "163043.390000", "163043.390000", "163043.390000", "163043.390000", "163043.406000", "163043.406000", "163043.406000", "163043.406000", "163043.406000", "163043.406000", "163043.406000", "163043.421000", "163043.421000", "163043.421000", "163043.421000", "163043.421000", "163043.421000", "163043.437000", "163043.437000", "163043.437000", "163043.437000", "163043.437000", "163043.437000", "163103.390000", "163103.390000", "163103.390000", "163103.390000", "163103.390000", "163103.390000", "163103.390000", "163103.406000", "163103.406000", "163103.406000", "163103.406000", "163103.406000", "163103.406000", "163103.406000", "163103.421000", "163103.421000", "163103.421000", "163103.421000", "163103.421000", "163103.421000", "163103.421000", "163103.437000", "163103.437000", "163103.437000", "163103.437000", "163123.390000", "163123.390000", "163123.390000", "163123.390000", "163123.390000", "163123.406000", "163123.406000", "163123.406000", "163123.406000", "163123.406000", "163123.406000", "163123.421000", "163123.421000", "163123.421000", "163123.421000", "163123.421000", "163123.437000", "163123.437000", "163123.437000", "163123.437000", "163123.437000", "163123.437000", "163123.437000", "163123.453000", "163123.453000", "163123.453000", "163143.390000", "163143.390000", "163143.390000", "163143.390000", "163143.390000", "163143.390000", "163143.390000", "163143.406000", "163143.406000", "163143.406000", "163143.406000", "163143.406000", "163143.406000", "163143.421000", "163143.421000", "163143.421000", "163143.421000", "163143.421000", "163143.421000", "163143.421000", "163143.437000", "163143.437000", "163143.437000", "163143.437000", "163143.437000", "163203.390000", "163203.390000", "163203.390000", "163203.390000", "163203.390000", "163203.390000", "163203.390000", "163203.406000", "163203.406000", "163203.406000", "163203.406000", "163203.406000", "163203.406000", "163203.421000", "163203.421000", "163203.421000", "163203.421000", "163203.421000", "163203.421000", "163203.421000", "163203.437000", "163203.437000", "163203.437000", "163203.437000", "163203.437000", "163203.453000", "163223.390000", "163223.390000", "163223.390000", "163223.390000", "163223.390000", "163223.390000", "163223.406000", "163223.406000", "163223.406000", "163223.406000", "163223.406000", "163223.421000", "163223.421000", "163223.421000", "163223.421000", "163223.421000", "163223.421000", "163223.421000", "163223.437000", "163223.437000", "163223.437000", "163223.437000", "163223.437000", "163223.437000", "163223.437000", "163243.390000", "163243.390000", "163243.390000", "163243.390000", "163243.390000", "163243.390000", "163243.390000", "163243.406000", "163243.406000", "163243.406000", "163243.406000", "163243.406000", "163243.406000", "163243.406000", "163243.421000", "163243.421000", "163243.421000", "163243.421000", "163243.421000", "163243.421000", "163243.421000", "163243.437000", "163243.437000", "163243.437000", "163243.437000", "163243.437000", "163303.390000", "163303.390000", "163303.390000", "163303.390000", "163303.390000", "163303.390000", "163303.406000", "163303.406000", "163303.406000", "163303.406000", "163303.406000", "163303.406000", "163303.421000", "163303.421000", "163303.421000", "163303.421000", "163303.421000", "163303.421000", "163303.421000", "163303.437000", "163303.437000", "163303.437000", "163303.437000", "163303.437000", "163303.437000", "163323.390000", "163323.390000", "163323.390000", "163323.390000", "163323.390000", "163323.390000", "163323.406000", "163323.406000", "163323.406000", "163323.406000", "163323.421000", "163323.421000", "163323.421000", "163323.421000", "163323.421000", "163323.421000", "163323.437000", "163323.437000", "163323.437000", "163323.437000", "163323.437000", "163323.437000", "163323.437000", "163323.453000", "163323.453000", "163343.390000", "163343.390000", "163343.390000", "163343.390000", "163343.390000", "163343.390000", "163343.390000", "163343.406000", "163343.406000", "163343.406000", "163343.406000", "163343.406000", "163343.406000", "163343.406000", "163343.421000", "163343.421000", "163343.421000", "163343.421000", "163343.421000", "163343.421000", "163343.421000", "163343.437000", "163343.437000", "163343.437000", "163343.437000", "163343.437000", "163401.953000", "163401.953000", "163401.968000", "163401.968000", "163401.968000", "163401.968000", "163401.968000", "163401.984000", "163401.984000", "163401.984000", "163401.984000", "163402.000000", "163402.000000", "163402.000000", "163402.015000", "163402.015000", "163402.015000", "163402.015000", "163402.015000", "163402.015000", "163402.015000", "163402.031000", "163402.031000", "163402.031000"],
      "DataSetTrailingPadding": [
        "\u0000\u0000\u0000\u0000\u0000\u0000\u0000\u0000\u0000\u0000\u0000\u0000\u0000\u0000\u0000\u0000\u0000\u0000\u0000\u0000\u0000\u0000\u0000\u0000\u0000\u0000\u0000\u0000\u0000\u0000\u0000\u0000\u0000\u0000\u0000\u0000\u0000\u0000\u0000\u0000\u0000\u0000\u0000\u0000\u0000\u0000\u0000\u0000\u0000\u0000\u0000\u0000\u0000\u0000\u0000\u0000\u0000\u0000\u0000\u0000\u0000\u0000\u0000\u0000\u0000\u0000\u0000\u0000\u0000\u0000\u0000\u0000\u0000\u0000\u0000\u0000\u0000\u0000\u0000\u0000\u0000\u0000\u0000\u0000\u0000\u0000\u0000\u0000\u0000\u0000\u0000\u0000\u0000\u0000",
        "\u0000\u0000\u0000\u0000\u0000\u0000\u0000\u0000\u0000\u0000\u0000\u0000\u0000\u0000\u0000\u0000\u0000\u0000\u0000\u0000\u0000\u0000\u0000\u0000\u0000\u0000\u0000\u0000\u0000\u0000\u0000\u0000\u0000\u0000\u0000\u0000\u0000\u0000\u0000\u0000\u0000\u0000\u0000\u0000\u0000\u0000\u0000\u0000\u0000\u0000\u0000\u0000\u0000\u0000\u0000\u0000\u0000\u0000\u0000\u0000\u0000\u0000\u0000\u0000\u0000\u0000\u0000\u0000\u0000\u0000\u0000\u0000\u0000\u0000\u0000\u0000\u0000\u0000\u0000\u0000\u0000\u0000\u0000\u0000\u0000\u0000\u0000\u0000\u0000\u0000\u0000\u0000\u0000\u0000",
        "\u0000\u0000\u0000\u0000\u0000\u0000\u0000\u0000\u0000\u0000\u0000\u0000\u0000\u0000\u0000\u0000\u0000\u0000\u0000\u0000\u0000\u0000\u0000\u0000\u0000\u0000\u0000\u0000\u0000\u0000\u0000\u0000\u0000\u0000\u0000\u0000\u0000\u0000\u0000\u0000\u0000\u0000\u0000\u0000\u0000\u0000\u0000\u0000\u0000\u0000\u0000\u0000\u0000\u0000\u0000\u0000\u0000\u0000\u0000\u0000\u0000\u0000\u0000\u0000\u0000\u0000\u0000\u0000\u0000\u0000\u0000\u0000\u0000\u0000\u0000\u0000\u0000\u0000\u0000\u0000\u0000\u0000\u0000\u0000\u0000\u0000\u0000\u0000\u0000\u0000\u0000\u0000",
