{
  "AcquisitionMatrixPE": 104,
  "AcquisitionNumber": 1,
  "AcquisitionTime": "16:33:37.675000",
  "BandwidthPerPixelPhaseEncode": 13.935,
  "BaseResolution": 104,
  "CoilString": "C:HEA;HEP",
  "ConversionSoftware": "dcm2niix",
  "ConversionSoftwareVersion": "v1.0.20210317",
  "DerivedVendorReportedEchoSpacing": 0.000690017,
  "DeviceSerialNumber": "35450",
  "DwellTime": 2.5e-06,
  "EchoTime": 0.0348,
  "EffectiveEchoSpacing": 0.000690017,
  "FlipAngle": 55,
  "ImageComments": "Unaliased MB8/PE3 (remote)",
  "ImageOrientationPatientDICOM": [0.999986, 0.000292247, 0.0052278, 3.19162e-08, 0.998441, -0.0558215],
  "ImageType": [
    "ORIGINAL",
    "PRIMARY",
    "M",
    "MB",
    "ND",
    "MOSAIC"
],
  "ImagingFrequency": 123.235,
  "InPlanePhaseEncodingDirectionDICOM": "COL",
  "InstitutionAddress": "Univeristy Ave. 197,Newark,North East,US,07102-1814",
  "InstitutionName": "RUBIC",
  "InstitutionalDepartmentName": "Department",
  "MRAcquisitionType": "2D",
  "MagneticFieldStrength": 3,
  "Manufacturer": "Siemens",
  "ManufacturersModelName": "TrioTim",
  "Modality": "MR",
  "MultibandAccelerationFactor": 8,
  "PartialFourier": 0.875,
  "PatientPosition": "HFS",
  "PercentPhaseFOV": 100,
  "PercentSampling": 100,
  "PhaseEncodingDirection": "j-",
  "PhaseEncodingSteps": 91,
  "PhaseResolution": 1,
  "PixelBandwidth": 1923,
  "ProcedureStepDescription": "Cole^Michael",
  "ProtocolName": "cmrr_mbep2d_bold_2mm_MB8_Task_8x",
  "PulseSequenceDetails": "%CustomerSeq%\\cmrr_mbep2d_bold",
  "ReceiveCoilName": "32Ch_Head",
  "ReconMatrixPE": 104,
  "RepetitionTime": 0.785,
  "SAR": 0.130375,
  "ScanOptions": "PFP\\FS",
  "ScanningSequence": "EP",
  "SequenceName": "epfid2d1_104",
  "SequenceVariant": "SK\\SS",
  "SeriesDescription": "cmrr_mbep2d_bold_2mm_MB8_Task_8x",
  "SeriesNumber": 25,
  "ShimSetting": [2110, -460, -7533, 207, 45, -178, -31, 3],
  "SliceThickness": 2,
  "SliceTiming": [0, 0.4375, 0.0875, 0.525, 0.175, 0.6125, 0.2625, 0.7, 0.35, 0, 0.4375, 0.0875, 0.525, 0.175, 0.6125, 0.2625, 0.7, 0.35, 0, 0.4375, 0.0875, 0.525, 0.175, 0.6125, 0.2625, 0.7, 0.35, 0, 0.4375, 0.0875, 0.525, 0.175, 0.6125, 0.2625, 0.7, 0.35, 0, 0.4375, 0.0875, 0.525, 0.175, 0.6125, 0.2625, 0.7, 0.35, 0, 0.4375, 0.0875, 0.525, 0.175, 0.6125, 0.2625, 0.7, 0.35, 0, 0.4375, 0.0875, 0.525, 0.175, 0.6125, 0.2625, 0.7, 0.35, 0, 0.4375, 0.0875, 0.525, 0.175, 0.6125, 0.2625, 0.7, 0.35],
  "SoftwareVersions": "syngo MR B19",
  "SpacingBetweenSlices": 2,
  "StationName": "MRC35450",
  "TaskName": "cpro",
  "TotalReadoutTime": 0.0710717,
  "TxRefAmp": 325.469,
  "dcmmeta_affine": [
    [-1.9999725818634033, 6.383238115859058e-08, 0.01047192607074976, 101.5929183959961],
    [-0.0005844949628226459, 1.9968814849853516, -0.11164148151874542, -83.04881286621094],
    [0.0104556018486619, 0.11164300888776779, 1.9968540668487549, -98.51277160644531],
    [0.0, 0.0, 0.0, 1.0]
],
  "dcmmeta_reorient_transform": [
    [0.0, -1.0, 0.0, 103.0],
    [1.0, 0.0, 0.0, 0.0],
    [0.0, 0.0, 1.0, 0.0],
    [0.0, 0.0, 0.0, 1.0]
],
  "dcmmeta_shape": [104, 104, 72, 581],
  "dcmmeta_slice_dim": 2,
  "dcmmeta_version": 0.6,
  "global": {
    "const": {
      "AcquisitionMatrix": [104, 0, 0, 104],
      "AngioFlag": "N",
      "BitsAllocated": 16,
      "BitsStored": 12,
      "Columns": 936,
      "EchoNumbers": 1,
      "EchoTime": 34.8,
      "EchoTrainLength": 1,
      "FlipAngle": 55.0,
      "HighBit": 11,
      "ImageOrientationPatient": [0.99998629225056, 0.00029224748689, 0.00522780091313, 3.1916192e-08, 0.99844076412746, -0.0558215059683],
      "ImagePositionPatient": [-933.58154761229, -953.5758519533, -44.919575881825],
      "ImageType": [
        "ORIGINAL",
        "PRIMARY",
        "M",
        "MB",
        "ND",
        "MOSAIC"
],
      "ImagedNucleus": "1H",
      "ImagingFrequency": 123.234686,
      "InPlanePhaseEncodingDirection": "COL",
      "MRAcquisitionType": "2D",
      "MagneticFieldStrength": 3.0,
      "Manufacturer": "SIEMENS",
      "ManufacturerModelName": "TrioTim",
      "Modality": "MR",
      "NumberOfAverages": 1.0,
      "NumberOfPhaseEncodingSteps": 91,
      "PercentPhaseFieldOfView": 100.0,
      "PercentSampling": 100.0,
      "PerformedProcedureStepStartTime": "142717.968000",
      "PhotometricInterpretation": "MONOCHROME2",
      "PixelBandwidth": 1923.0,
      "PixelRepresentation": 0,
      "PixelSpacing": [2.0, 2.0],
      "ProtocolName": "cmrr_mbep2d_bold_2mm_MB8_Task_8x",
      "RepetitionTime": 785.0,
      "Rows": 936,
      "SAR": 0.1303745611117,
      "SamplesPerPixel": 1,
      "ScanOptions": [
        "PFP",
        "FS"
],
      "ScanningSequence": "EP",
      "SequenceName": "epfid2d1_104",
      "SequenceVariant": [
        "SK",
        "SS"
],
      "SeriesDescription": "cmrr_mbep2d_bold_2mm_MB8_Task_8x",
      "SeriesNumber": 25,
      "SeriesTime": "163402.109000",
      "SliceLocation": -93.190032828684,
      "SliceThickness": 2.0,
      "SmallestImagePixelValue": 0,
      "SoftwareVersions": "syngo MR B19",
      "SpacingBetweenSlices": 1.9999999550423,
      "SpecificCharacterSet": "ISO_IR 100",
      "StudyID": "1",
      "StudyTime": "142717.906000",
      "TransmitCoilName": "Body",
      "VariableFlipAngleFlag": "N",
      "WindowCenterWidthExplanation": "Algo1",
      "dBdt": 0.0},
    "slices": {}
  },
  "time": {
    "samples": {
      "AcquisitionNumber": [1, 2, 3, 4, 5, 6, 7, 8, 9, 10, 11, 12, 13, 14, 15, 16, 17, 18, 19, 20, 21, 22, 23, 24, 25, 26, 27, 28, 29, 30, 31, 32, 33, 34, 35, 36, 37, 38, 39, 40, 41, 42, 43, 44, 45, 46, 47, 48, 49, 50, 51, 52, 53, 54, 55, 56, 57, 58, 59, 60, 61, 62, 63, 64, 65, 66, 67, 68, 69, 70, 71, 72, 73, 74, 75, 76, 77, 78, 79, 80, 81, 82, 83, 84, 85, 86, 87, 88, 89, 90, 91, 92, 93, 94, 95, 96, 97, 98, 99, 100, 101, 102, 103, 104, 105, 106, 107, 108, 109, 110, 111, 112, 113, 114, 115, 116, 117, 118, 119, 120, 121, 122, 123, 124, 125, 126, 127, 128, 129, 130, 131, 132, 133, 134, 135, 136, 137, 138, 139, 140, 141, 142, 143, 144, 145, 146, 147, 148, 149, 150, 151, 152, 153, 154, 155, 156, 157, 158, 159, 160, 161, 162, 163, 164, 165, 166, 167, 168, 169, 170, 171, 172, 173, 174, 175, 176, 177, 178, 179, 180, 181, 182, 183, 184, 185, 186, 187, 188, 189, 190, 191, 192, 193, 194, 195, 196, 197, 198, 199, 200, 201, 202, 203, 204, 205, 206, 207, 208, 209, 210, 211, 212, 213, 214, 215, 216, 217, 218, 219, 220, 221, 222, 223, 224, 225, 226, 227, 228, 229, 230, 231, 232, 233, 234, 235, 236, 237, 238, 239, 240, 241, 242, 243, 244, 245, 246, 247, 248, 249, 250, 251, 252, 253, 254, 255, 256, 257, 258, 259, 260, 261, 262, 263, 264, 265, 266, 267, 268, 269, 270, 271, 272, 273, 274, 275, 276, 277, 278, 279, 280, 281, 282, 283, 284, 285, 286, 287, 288, 289, 290, 291, 292, 293, 294, 295, 296, 297, 298, 299, 300, 301, 302, 303, 304, 305, 306, 307, 308, 309, 310, 311, 312, 313, 314, 315, 316, 317, 318, 319, 320, 321, 322, 323, 324, 325, 326, 327, 328, 329, 330, 331, 332, 333, 334, 335, 336, 337, 338, 339, 340, 341, 342, 343, 344, 345, 346, 347, 348, 349, 350, 351, 352, 353, 354, 355, 356, 357, 358, 359, 360, 361, 362, 363, 364, 365, 366, 367, 368, 369, 370, 371, 372, 373, 374, 375, 376, 377, 378, 379, 380, 381, 382, 383, 384, 385, 386, 387, 388, 389, 390, 391, 392, 393, 394, 395, 396, 397, 398, 399, 400, 401, 402, 403, 404, 405, 406, 407, 408, 409, 410, 411, 412, 413, 414, 415, 416, 417, 418, 419, 420, 421, 422, 423, 424, 425, 426, 427, 428, 429, 430, 431, 432, 433, 434, 435, 436, 437, 438, 439, 440, 441, 442, 443, 444, 445, 446, 447, 448, 449, 450, 451, 452, 453, 454, 455, 456, 457, 458, 459, 460, 461, 462, 463, 464, 465, 466, 467, 468, 469, 470, 471, 472, 473, 474, 475, 476, 477, 478, 479, 480, 481, 482, 483, 484, 485, 486, 487, 488, 489, 490, 491, 492, 493, 494, 495, 496, 497, 498, 499, 500, 501, 502, 503, 504, 505, 506, 507, 508, 509, 510, 511, 512, 513, 514, 515, 516, 517, 518, 519, 520, 521, 522, 523, 524, 525, 526, 527, 528, 529, 530, 531, 532, 533, 534, 535, 536, 537, 538, 539, 540, 541, 542, 543, 544, 545, 546, 547, 548, 549, 550, 551, 552, 553, 554, 555, 556, 557, 558, 559, 560, 561, 562, 563, 564, 565, 566, 567, 568, 569, 570, 571, 572, 573, 574, 575, 576, 577, 578, 579, 580, 581],
      "AcquisitionTime": ["163337.675000", "163338.462500", "163339.252500", "163340.040000", "163340.827500", "163341.615000", "163342.405000", "163343.192500", "163343.980000", "163344.767500", "163345.557500", "163346.345000", "163347.132500", "163347.920000", "163348.710000", "163349.497500", "163350.285000", "163351.072500", "163351.862500", "163352.650000", "163353.437500", "163354.227500", "163355.015000", "163355.802500", "163356.590000", "163357.380000", "163358.167500", "163358.955000", "163359.742500", "163400.532500", "163401.320000", "163402.107500", "163402.895000", "163403.685000", "163404.472500", "163405.260000", "163406.047500", "163406.837500", "163407.625000", "163408.412500", "163409.200000", "163409.990000", "163410.777500", "163411.565000", "163412.355000", "163413.142500", "163413.930000", "163414.717500", "163415.507500", "163416.295000", "163417.082500", "163417.870000", "163418.660000", "163419.447500", "163420.235000", "163421.022500", "163421.812500", "163422.600000", "163423.387500", "163424.175000", "163424.965000", "163425.752500", "163426.540000", "163427.327500", "163428.117500", "163428.905000", "163429.692500", "163430.482500", "163431.270000", "163432.057500", "163432.845000", "163433.635000", "163434.422500", "163435.210000", "163435.997500", "163436.787500", "163437.575000", "163438.362500", "163439.150000", "163439.940000", "163440.727500", "163441.515000", "163442.302500", "163443.092500", "163443.880000", "163444.667500", "163445.455000", "163446.245000", "163447.032500", "163447.820000", "163448.610000", "163449.397500", "163450.185000", "163450.972500", "163451.762500", "163452.550000", "163453.337500", "163454.125000", "163454.915000", "163455.702500", "163456.490000", "163457.277500", "163458.067500", "163458.855000", "163459.642500", "163500.430000", "163501.220000", "163502.007500", "163502.795000", "163503.582500", "163504.372500", "163505.160000", "163505.947500", "163506.737500", "163507.525000", "163508.312500", "163509.100000", "163509.890000", "163510.677500", "163511.465000", "163512.252500", "163513.042500", "163513.830000", "163514.617500", "163515.405000", "163516.195000", "163516.982500", "163517.770000", "163518.557500", "163519.347500", "163520.135000", "163520.922500", "163521.710000", "163522.500000", "163523.287500", "163524.075000", "163524.865000", "163525.652500", "163526.440000", "163527.227500", "163528.017500", "163528.805000", "163529.592500", "163530.380000", "163531.170000", "163531.957500", "163532.745000", "163533.532500", "163534.322500", "163535.110000", "163535.897500", "163536.685000", "163537.475000", "163538.262500", "163539.050000", "163539.837500", "163540.627500", "163541.415000", "163542.202500", "163542.992500", "163543.780000", "163544.567500", "163545.355000", "163546.145000", "163546.932500", "163547.720000", "163548.507500", "163549.297500", "163550.085000", "163550.872500", "163551.660000", "163552.450000", "163553.237500", "163554.025000", "163554.812500", "163555.602500", "163556.390000", "163557.177500", "163557.965000", "163558.755000", "163559.542500", "163600.330000", "163601.120000", "163601.907500", "163602.695000", "163603.482500", "163604.272500", "163605.060000", "163605.847500", "163606.635000", "163607.425000", "163608.212500", "163609.000000", "163609.787500", "163610.577500", "163611.365000", "163612.152500", "163612.940000", "163613.730000", "163614.517500", "163615.305000", "163616.092500", "163616.882500", "163617.670000", "163618.457500", "163619.247500", "163620.035000", "163620.822500", "163621.610000", "163622.400000", "163623.187500", "163623.975000", "163624.762500", "163625.552500", "163626.340000", "163627.127500", "163627.915000", "163628.705000", "163629.492500", "163630.280000", "163631.067500", "163631.857500", "163632.645000", "163633.432500", "163634.220000", "163635.010000", "163635.797500", "163636.585000", "163637.375000", "163638.162500", "163638.950000", "163639.737500", "163640.527500", "163641.315000", "163642.102500", "163642.890000", "163643.680000", "163644.467500", "163645.255000", "163646.042500", "163646.832500", "163647.620000", "163648.407500", "163649.195000", "163649.985000", "163650.772500", "163651.560000", "163652.350000", "163653.137500", "163653.925000", "163654.712500", "163655.502500", "163656.290000", "163657.077500", "163657.865000", "163658.655000", "163659.442500", "163700.230000", "163701.017500", "163701.807500", "163702.595000", "163703.382500", "163704.170000", "163704.960000", "163705.747500", "163706.535000", "163707.322500", "163708.112500", "163708.900000", "163709.687500", "163710.477500", "163711.265000", "163712.052500", "163712.840000", "163713.630000", "163714.417500", "163715.205000", "163715.992500", "163716.782500", "163717.570000", "163718.357500", "163719.145000", "163719.935000", "163720.722500", "163721.510000", "163722.297500", "163723.087500", "163723.875000", "163724.662500", "163725.450000", "163726.240000", "163727.027500", "163727.815000", "163728.605000", "163729.392500", "163730.180000", "163730.967500", "163731.757500", "163732.545000", "163733.332500", "163734.120000", "163734.910000", "163735.697500", "163736.485000", "163737.272500", "163738.062500", "163738.850000", "163739.637500", "163740.425000", "163741.215000", "163742.002500", "163742.790000", "163743.577500", "163744.367500", "163745.155000", "163745.942500", "163746.732500", "163747.520000", "163748.307500", "163749.095000", "163749.885000", "163750.672500", "163751.460000", "163752.247500", "163753.037500", "163753.825000", "163754.612500", "163755.400000", "163756.190000", "163756.977500", "163757.765000", "163758.552500", "163759.342500", "163800.130000", "163800.917500", "163801.705000", "163802.495000", "163803.282500", "163804.070000", "163804.860000", "163805.647500", "163806.435000", "163807.222500", "163808.012500", "163808.800000", "163809.587500", "163810.375000", "163811.165000", "163811.952500", "163812.740000", "163813.527500", "163814.317500", "163815.105000", "163815.892500", "163816.680000", "163817.470000", "163818.257500", "163819.045000", "163819.832500", "163820.622500", "163821.410000", "163822.197500", "163822.987500", "163823.775000", "163824.562500", "163825.350000", "163826.140000", "163826.927500", "163827.715000", "163828.502500", "163829.292500", "163830.080000", "163830.867500", "163831.655000", "163832.445000", "163833.232500", "163834.020000", "163834.807500", "163835.597500", "163836.385000", "163837.172500", "163837.960000", "163838.750000", "163839.537500", "163840.325000", "163841.115000", "163841.902500", "163842.690000", "163843.477500", "163844.267500", "163845.055000", "163845.842500", "163846.630000", "163847.420000", "163848.207500", "163848.995000", "163849.782500", "163850.572500", "163851.360000", "163852.147500", "163852.935000", "163853.725000", "163854.512500", "163855.300000", "163856.087500", "163856.877500", "163857.665000", "163858.452500", "163859.242500", "163900.030000", "163900.817500", "163901.605000", "163902.395000", "163903.182500", "163903.970000", "163904.757500", "163905.547500", "163906.335000", "163907.122500", "163907.910000", "163908.700000", "163909.487500", "163910.275000", "163911.062500", "163911.852500", "163912.640000", "163913.427500", "163914.215000", "163915.005000", "163915.792500", "163916.580000", "163917.370000", "163918.157500", "163918.945000", "163919.732500", "163920.522500", "163921.310000", "163922.097500", "163922.885000", "163923.675000", "163924.462500", "163925.250000", "163926.037500", "163926.827500", "163927.615000", "163928.402500", "163929.190000", "163929.980000", "163930.767500", "163931.555000", "163932.342500", "163933.132500", "163933.920000", "163934.707500", "163935.497500", "163936.285000", "163937.072500", "163937.860000", "163938.650000", "163939.437500", "163940.225000", "163941.012500", "163941.802500", "163942.590000", "163943.377500", "163944.165000", "163944.955000", "163945.742500", "163946.530000", "163947.317500", "163948.107500", "163948.895000", "163949.682500", "163950.470000", "163951.260000", "163952.047500", "163952.835000", "163953.625000", "163954.412500", "163955.200000", "163955.987500", "163956.777500", "163957.565000", "163958.352500", "163959.140000", "163959.930000", "164000.717500", "164001.505000", "164002.292500", "164003.082500", "164003.870000", "164004.657500", "164005.445000", "164006.235000", "164007.022500", "164007.810000", "164008.600000", "164009.387500", "164010.175000", "164010.962500", "164011.752500", "164012.540000", "164013.327500", "164014.115000", "164014.905000", "164015.692500", "164016.480000", "164017.267500", "164018.057500", "164018.845000", "164019.632500", "164020.420000", "164021.210000", "164021.997500", "164022.785000", "164023.572500", "164024.362500", "164025.150000", "164025.937500", "164026.727500", "164027.515000", "164028.302500", "164029.090000", "164029.880000", "164030.667500", "164031.455000", "164032.242500", "164033.032500", "164033.820000", "164034.607500", "164035.395000", "164036.185000", "164036.972500", "164037.760000", "164038.547500", "164039.337500", "164040.125000", "164040.912500", "164041.700000", "164042.490000", "164043.277500", "164044.065000", "164044.855000", "164045.642500", "164046.430000", "164047.217500", "164048.007500", "164048.795000", "164049.582500", "164050.370000", "164051.160000", "164051.947500", "164052.735000", "164053.522500", "164054.312500", "164055.100000", "164055.887500", "164056.675000", "164057.465000", "164058.252500", "164059.040000", "164059.827500", "164100.617500", "164101.405000", "164102.192500", "164102.982500", "164103.770000", "164104.557500", "164105.345000", "164106.135000", "164106.922500", "164107.710000", "164108.497500", "164109.287500", "164110.075000", "164110.862500", "164111.650000", "164112.440000", "164113.227500", "164114.015000", "164114.802500"],
      "ContentTime": ["163402.125000", "163402.125000", "163402.125000", "163402.125000", "163402.125000", "163402.140000", "163402.140000", "163402.140000", "163402.140000", "163402.140000", "163402.140000", "163402.156000", "163402.156000", "163402.156000", "163402.156000", "163402.156000", "163402.156000", "163402.156000", "163402.171000", "163402.171000", "163402.171000", "163402.171000", "163402.171000", "163402.171000", "163402.171000", "163402.187000", "163402.187000", "163402.187000", "163422.093000", "163422.093000", "163422.093000", "163422.093000", "163422.093000", "163422.093000", "163422.093000", "163422.109000", "163422.109000", "163422.109000", "163422.109000", "163422.109000", "163422.109000", "163422.125000", "163422.125000", "163422.125000", "163422.125000", "163422.125000", "163422.125000", "163422.125000", "163422.140000", "163422.140000", "163422.140000", "163422.140000", "163422.140000", "163442.093000", "163442.093000", "163442.093000", "163442.093000", "163442.093000", "163442.109000", "163442.109000", "163442.109000", "163442.109000", "163442.109000", "163442.109000", "163442.109000", "163442.125000", "163442.125000", "163442.125000", "163442.125000", "163442.125000", "163442.125000", "163442.125000", "163442.140000", "163442.140000", "163442.140000", "163442.140000", "163442.140000", "163442.140000", "163442.156000", "163502.093000", "163502.093000", "163502.093000", "163502.093000", "163502.093000", "163502.093000", "163502.093000", "163502.109000", "163502.109000", "163502.109000", "163502.109000", "163502.109000", "163502.109000", "163502.125000", "163502.125000", "163502.125000", "163502.125000", "163502.125000", "163502.125000", "163502.125000", "163502.140000", "163502.140000", "163502.140000", "163502.140000", "163502.140000", "163522.093000", "163522.093000", "163522.093000", "163522.093000", "163522.093000", "163522.093000", "163522.093000", "163522.109000", "163522.109000", "163522.109000", "163522.109000", "163522.109000", "163522.109000", "163522.109000", "163522.125000", "163522.125000", "163522.125000", "163522.125000", "163522.125000", "163522.125000", "163522.140000", "163522.140000", "163522.140000", "163522.140000", "163522.140000", "163522.140000", "163542.093000", "163542.093000", "163542.093000", "163542.093000", "163542.093000", "163542.093000", "163542.093000", "163542.109000", "163542.109000", "163542.109000", "163542.109000", "163542.109000", "163542.109000", "163542.109000", "163542.125000", "163542.125000", "163542.125000", "163542.125000", "163542.125000", "163542.125000", "163542.140000", "163542.140000", "163542.140000", "163542.140000", "163542.140000", "163602.093000", "163602.093000", "163602.093000", "163602.093000", "163602.093000", "163602.093000", "163602.093000", "163602.109000", "163602.109000", "163602.109000", "163602.109000", "163602.109000", "163602.109000", "163602.125000", "163602.125000", "163602.125000", "163602.125000", "163602.125000", "163602.125000", "163602.140000", "163602.140000", "163602.140000", "163602.140000", "163602.140000", "163602.140000", "163602.156000", "163622.093000", "163622.093000", "163622.093000", "163622.093000", "163622.093000", "163622.093000", "163622.109000", "163622.109000", "163622.109000", "163622.109000", "163622.109000", "163622.109000", "163622.125000", "163622.125000", "163622.125000", "163622.125000", "163622.125000", "163622.140000", "163622.140000", "163622.140000", "163622.140000", "163622.140000", "163622.140000", "163622.156000", "163622.156000", "163642.093000", "163642.093000", "163642.093000", "163642.093000", "163642.093000", "163642.093000", "163642.093000", "163642.109000", "163642.109000", "163642.109000", "163642.109000", "163642.109000", "163642.109000", "163642.125000", "163642.125000", "163642.125000", "163642.125000", "163642.125000", "163642.125000", "163642.140000", "163642.140000", "163642.140000", "163642.140000", "163642.140000", "163642.140000", "163642.140000", "163702.093000", "163702.093000", "163702.093000", "163702.093000", "163702.093000", "163702.093000", "163702.093000", "163702.109000", "163702.109000", "163702.109000", "163702.109000", "163702.109000", "163702.109000", "163702.109000", "163702.125000", "163702.125000", "163702.125000", "163702.125000", "163702.125000", "163702.125000", "163702.140000", "163702.140000", "163702.140000", "163702.140000", "163702.140000", "163722.093000", "163722.093000", "163722.093000", "163722.093000", "163722.093000", "163722.093000", "163722.093000", "163722.109000", "163722.109000", "163722.109000", "163722.109000", "163722.109000", "163722.109000", "163722.109000", "163722.125000", "163722.125000", "163722.125000", "163722.125000", "163722.125000", "163722.125000", "163722.140000", "163722.140000", "163722.140000", "163722.140000", "163722.140000", "163722.140000", "163742.093000", "163742.093000", "163742.093000", "163742.093000", "163742.093000", "163742.093000", "163742.093000", "163742.109000", "163742.109000", "163742.109000", "163742.109000", "163742.109000", "163742.109000", "163742.109000", "163742.125000", "163742.125000", "163742.125000", "163742.125000", "163742.125000", "163742.125000", "163742.125000", "163742.140000", "163742.140000", "163742.140000", "163742.140000", "163802.093000", "163802.093000", "163802.093000", "163802.093000", "163802.093000", "163802.093000", "163802.093000", "163802.109000", "163802.109000", "163802.109000", "163802.109000", "163802.109000", "163802.109000", "163802.109000", "163802.125000", "163802.125000", "163802.125000", "163802.125000", "163802.125000", "163802.125000", "163802.140000", "163802.140000", "163802.140000", "163802.140000", "163802.140000", "163802.140000", "163822.093000", "163822.093000", "163822.093000", "163822.093000", "163822.093000", "163822.093000", "163822.109000", "163822.109000", "163822.109000", "163822.109000", "163822.109000", "163822.109000", "163822.109000", "163822.125000", "163822.125000", "163822.125000", "163822.125000", "163822.125000", "163822.125000", "163822.140000", "163822.140000", "163822.140000", "163822.140000", "163822.140000", "163822.140000", "163842.093000", "163842.093000", "163842.093000", "163842.093000", "163842.093000", "163842.093000", "163842.093000", "163842.109000", "163842.109000", "163842.109000", "163842.109000", "163842.109000", "163842.109000", "163842.125000", "163842.125000", "163842.125000", "163842.125000", "163842.125000", "163842.125000", "163842.125000", "163842.140000", "163842.140000", "163842.140000", "163842.140000", "163842.140000", "163842.140000", "163902.093000", "163902.093000", "163902.093000", "163902.093000", "163902.093000", "163902.093000", "163902.109000", "163902.109000", "163902.109000", "163902.109000", "163902.109000", "163902.109000", "163902.109000", "163902.125000", "163902.125000", "163902.125000", "163902.125000", "163902.125000", "163902.125000", "163902.140000", "163902.140000", "163902.140000", "163902.140000", "163902.140000", "163902.140000", "163922.093000", "163922.093000", "163922.093000", "163922.125000", "163922.125000", "163922.140000", "163922.140000", "163922.140000", "163922.140000", "163922.140000", "163922.156000", "163922.156000", "163922.156000", "163922.156000", "163922.156000", "163922.156000", "163922.156000", "163922.171000", "163922.171000", "163922.171000", "163922.171000", "163922.171000", "163922.171000", "163922.171000", "163922.187000", "163942.093000", "163942.093000", "163942.093000", "163942.093000", "163942.093000", "163942.093000", "163942.109000", "163942.109000", "163942.109000", "163942.109000", "163942.109000", "163942.109000", "163942.109000", "163942.125000", "163942.125000", "163942.125000", "163942.125000", "163942.125000", "163942.125000", "163942.125000", "163942.140000", "163942.140000", "163942.140000", "163942.140000", "163942.140000", "163942.140000", "164002.093000", "164002.093000", "164002.093000", "164002.093000", "164002.093000", "164002.093000", "164002.093000", "164002.109000", "164002.109000", "164002.109000", "164002.109000", "164002.109000", "164002.109000", "164002.125000", "164002.125000", "164002.125000", "164002.125000", "164002.125000", "164002.140000", "164002.140000", "164002.140000", "164002.140000", "164002.140000", "164002.140000", "164002.156000", "164022.093000", "164022.093000", "164022.093000", "164022.093000", "164022.093000", "164022.093000", "164022.109000", "164022.109000", "164022.109000", "164022.109000", "164022.109000", "164022.109000", "164022.109000", "164022.125000", "164022.125000", "164022.125000", "164022.125000", "164022.125000", "164022.125000", "164022.125000", "164022.140000", "164022.140000", "164022.140000", "164022.140000", "164022.140000", "164022.140000", "164042.093000", "164042.093000", "164042.093000", "164042.093000", "164042.093000", "164042.093000", "164042.109000", "164042.109000", "164042.109000", "164042.109000", "164042.109000", "164042.109000", "164042.109000", "164042.125000", "164042.125000", "164042.125000", "164042.125000", "164042.125000", "164042.140000", "164042.140000", "164042.140000", "164042.140000", "164042.140000", "164042.140000", "164042.140000", "164102.093000", "164102.093000", "164102.093000", "164102.093000", "164102.093000", "164102.093000", "164102.109000", "164102.109000", "164102.109000", "164102.109000", "164102.109000", "164102.109000", "164102.109000", "164102.125000", "164102.125000", "164102.125000", "164102.125000", "164102.125000", "164102.125000", "164102.125000", "164102.140000", "164102.140000", "164102.140000", "164102.140000", "164102.140000", "164102.140000", "164116.031000", "164116.031000", "164116.031000", "164116.031000", "164116.031000", "164116.031000", "164116.046000", "164116.046000", "164116.046000", "164116.046000", "164116.046000", "164116.046000", "164116.046000", "164116.062000", "164116.062000", "164116.062000", "164116.062000", "164116.062000"],
      "DataSetTrailingPadding": [
        "\u0000\u0000\u0000\u0000\u0000\u0000\u0000\u0000\u0000\u0000\u0000\u0000\u0000\u0000\u0000\u0000\u0000\u0000\u0000\u0000\u0000\u0000\u0000\u0000\u0000\u0000\u0000\u0000\u0000\u0000\u0000\u0000\u0000\u0000\u0000\u0000\u0000\u0000\u0000\u0000\u0000\u0000\u0000\u0000\u0000\u0000\u0000\u0000\u0000\u0000\u0000\u0000\u0000\u0000\u0000\u0000\u0000\u0000\u0000\u0000\u0000\u0000\u0000\u0000\u0000\u0000\u0000\u0000",
        "\u0000\u0000\u0000\u0000\u0000\u0000\u0000\u0000\u0000\u0000\u0000\u0000\u0000\u0000\u0000\u0000\u0000\u0000\u0000\u0000\u0000\u0000\u0000\u0000\u0000\u0000\u0000\u0000\u0000\u0000\u0000\u0000\u0000\u0000\u0000\u0000\u0000\u0000\u0000\u0000\u0000\u0000\u0000\u0000\u0000\u0000\u0000\u0000\u0000\u0000\u0000\u0000\u0000\u0000\u0000\u0000\u0000\u0000\u0000\u0000\u0000\u0000\u0000\u0000\u0000\u0000\u0000\u0000",
        "\u0000\u0000\u0000\u0000\u0000\u0000\u0000\u0000\u0000\u0000\u0000\u0000\u0000\u0000\u0000\u0000\u0000\u0000\u0000\u0000\u0000\u0000\u0000\u0000\u0000\u0000\u0000\u0000\u0000\u0000\u0000\u0000\u0000\u0000\u0000\u0000\u0000\u0000\u0000\u0000\u0000\u0000\u0000\u0000\u0000\u0000\u0000\u0000\u0000\u0000\u0000\u0000\u0000\u0000\u0000\u0000\u0000\u0000\u0000\u0000\u0000\u0000\u0000\u0000\u0000\u0000\u0000\u0000",
        "\u0000\u0000\u0000\u0000\u0000\u0000\u0000\u0000\u0000\u0000\u0000\u0000\u0000\u0000\u0000\u0000\u0000\u0000\u0000\u0000\u0000\u0000\u0000\u0000\u0000\u0000\u0000\u0000\u0000\u0000\u0000\u0000\u0000\u0000\u0000\u0000\u0000\u0000\u0000\u0000\u0000\u0000\u0000\u0000\u0000\u0000\u0000\u0000\u0000\u0000\u0000\u0000\u0000\u0000\u0000\u0000\u0000\u0000\u0000\u0000\u0000\u0000\u0000\u0000\u0000\u0000",
