{
  "AcquisitionMatrixPE": 104,
  "AcquisitionNumber": 1,
  "AcquisitionTime": "16:17:10.707500",
  "BandwidthPerPixelPhaseEncode": 13.935,
  "BaseResolution": 104,
  "CoilString": "C:HEA;HEP",
  "ConversionSoftware": "dcm2niix",
  "ConversionSoftwareVersion": "v1.0.20210317",
  "DerivedVendorReportedEchoSpacing": 0.000690017,
  "DeviceSerialNumber": "35450",
  "DwellTime": 2.5e-06,
  "EchoTime": 0.0348,
  "EffectiveEchoSpacing": 0.000690017,
  "FlipAngle": 55,
  "ImageComments": "Unaliased MB8/PE3 (remote)",
  "ImageOrientationPatientDICOM": [0.999986, 0.000292247, 0.0052278, 3.19162e-08, 0.998441, -0.0558215],
  "ImageType": [
    "ORIGINAL",
    "PRIMARY",
    "M",
    "MB",
    "ND",
    "MOSAIC"
],
  "ImagingFrequency": 123.235,
  "InPlanePhaseEncodingDirectionDICOM": "COL",
  "InstitutionAddress": "Univeristy Ave. 197,Newark,North East,US,07102-1814",
  "InstitutionName": "RUBIC",
  "InstitutionalDepartmentName": "Department",
  "MRAcquisitionType": "2D",
  "MagneticFieldStrength": 3,
  "Manufacturer": "Siemens",
  "ManufacturersModelName": "TrioTim",
  "Modality": "MR",
  "MultibandAccelerationFactor": 8,
  "PartialFourier": 0.875,
  "PatientPosition": "HFS",
  "PercentPhaseFOV": 100,
  "PercentSampling": 100,
  "PhaseEncodingDirection": "j-",
  "PhaseEncodingSteps": 91,
  "PhaseResolution": 1,
  "PixelBandwidth": 1923,
  "ProcedureStepDescription": "Cole^Michael",
  "ProtocolName": "cmrr_mbep2d_bold_2mm_MB8_Task_8x",
  "PulseSequenceDetails": "%CustomerSeq%\\cmrr_mbep2d_bold",
  "ReceiveCoilName": "32Ch_Head",
  "ReconMatrixPE": 104,
  "RepetitionTime": 0.785,
  "SAR": 0.130375,
  "ScanOptions": "PFP\\FS",
  "ScanningSequence": "EP",
  "SequenceName": "epfid2d1_104",
  "SequenceVariant": "SK\\SS",
  "SeriesDescription": "cmrr_mbep2d_bold_2mm_MB8_Task_8x",
  "SeriesNumber": 21,
  "ShimSetting": [2110, -460, -7533, 207, 45, -178, -31, 3],
  "SliceThickness": 2,
  "SliceTiming": [0, 0.4375, 0.0875, 0.525, 0.175, 0.6125, 0.2625, 0.7, 0.35, 0, 0.4375, 0.0875, 0.525, 0.175, 0.6125, 0.2625, 0.7, 0.35, 0, 0.4375, 0.0875, 0.525, 0.175, 0.6125, 0.2625, 0.7, 0.35, 0, 0.4375, 0.0875, 0.525, 0.175, 0.6125, 0.2625, 0.7, 0.35, 0, 0.4375, 0.0875, 0.525, 0.175, 0.6125, 0.2625, 0.7, 0.35, 0, 0.4375, 0.0875, 0.525, 0.175, 0.6125, 0.2625, 0.7, 0.35, 0, 0.4375, 0.0875, 0.525, 0.175, 0.6125, 0.2625, 0.7, 0.35, 0, 0.4375, 0.0875, 0.525, 0.175, 0.6125, 0.2625, 0.7, 0.35],
  "SoftwareVersions": "syngo MR B19",
  "SpacingBetweenSlices": 2,
  "StationName": "MRC35450",
  "TaskName": "cpro",
  "TotalReadoutTime": 0.0710717,
  "TxRefAmp": 325.469,
  "dcmmeta_affine": [
    [-1.9999725818634033, 6.383238115859058e-08, 0.01047192607074976, 101.5929183959961],
    [-0.0005844949628226459, 1.9968814849853516, -0.11164148151874542, -83.04881286621094],
    [0.0104556018486619, 0.11164300888776779, 1.9968540668487549, -98.51277160644531],
    [0.0, 0.0, 0.0, 1.0]
],
  "dcmmeta_reorient_transform": [
    [0.0, -1.0, 0.0, 103.0],
    [1.0, 0.0, 0.0, 0.0],
    [0.0, 0.0, 1.0, 0.0],
    [0.0, 0.0, 0.0, 1.0]
],
  "dcmmeta_shape": [104, 104, 72, 581],
  "dcmmeta_slice_dim": 2,
  "dcmmeta_version": 0.6,
  "global": {
    "const": {
      "AcquisitionMatrix": [104, 0, 0, 104],
      "AngioFlag": "N",
      "BitsAllocated": 16,
      "BitsStored": 12,
      "Columns": 936,
      "EchoNumbers": 1,
      "EchoTime": 34.8,
      "EchoTrainLength": 1,
      "FlipAngle": 55.0,
      "HighBit": 11,
      "ImageOrientationPatient": [0.99998629225056, 0.00029224748689, 0.00522780091313, 3.1916192e-08, 0.99844076412746, -0.0558215059683],
      "ImagePositionPatient": [-933.58154761229, -953.5758519533, -44.919575881825],
      "ImageType": [
        "ORIGINAL",
        "PRIMARY",
        "M",
        "MB",
        "ND",
        "MOSAIC"
],
      "ImagedNucleus": "1H",
      "ImagingFrequency": 123.234686,
      "InPlanePhaseEncodingDirection": "COL",
      "MRAcquisitionType": "2D",
      "MagneticFieldStrength": 3.0,
      "Manufacturer": "SIEMENS",
      "ManufacturerModelName": "TrioTim",
      "Modality": "MR",
      "NumberOfAverages": 1.0,
      "NumberOfPhaseEncodingSteps": 91,
      "PercentPhaseFieldOfView": 100.0,
      "PercentSampling": 100.0,
      "PerformedProcedureStepStartTime": "142717.968000",
      "PhotometricInterpretation": "MONOCHROME2",
      "PixelBandwidth": 1923.0,
      "PixelRepresentation": 0,
      "PixelSpacing": [2.0, 2.0],
      "ProtocolName": "cmrr_mbep2d_bold_2mm_MB8_Task_8x",
      "RepetitionTime": 785.0,
      "Rows": 936,
      "SAR": 0.1303745611117,
      "SamplesPerPixel": 1,
      "ScanOptions": [
        "PFP",
        "FS"
],
      "ScanningSequence": "EP",
      "SequenceName": "epfid2d1_104",
      "SequenceVariant": [
        "SK",
        "SS"
],
      "SeriesDescription": "cmrr_mbep2d_bold_2mm_MB8_Task_8x",
      "SeriesNumber": 21,
      "SeriesTime": "161737.484000",
      "SliceLocation": -93.190032828684,
      "SliceThickness": 2.0,
      "SmallestImagePixelValue": 0,
      "SoftwareVersions": "syngo MR B19",
      "SpacingBetweenSlices": 1.9999999550423,
      "SpecificCharacterSet": "ISO_IR 100",
      "StudyID": "1",
      "StudyTime": "142717.906000",
      "TransmitCoilName": "Body",
      "VariableFlipAngleFlag": "N",
      "WindowCenterWidthExplanation": "Algo1",
      "dBdt": 0.0},
    "slices": {}
  },
  "time": {
    "samples": {
      "AcquisitionNumber": [1, 2, 3, 4, 5, 6, 7, 8, 9, 10, 11, 12, 13, 14, 15, 16, 17, 18, 19, 20, 21, 22, 23, 24, 25, 26, 27, 28, 29, 30, 31, 32, 33, 34, 35, 36, 37, 38, 39, 40, 41, 42, 43, 44, 45, 46, 47, 48, 49, 50, 51, 52, 53, 54, 55, 56, 57, 58, 59, 60, 61, 62, 63, 64, 65, 66, 67, 68, 69, 70, 71, 72, 73, 74, 75, 76, 77, 78, 79, 80, 81, 82, 83, 84, 85, 86, 87, 88, 89, 90, 91, 92, 93, 94, 95, 96, 97, 98, 99, 100, 101, 102, 103, 104, 105, 106, 107, 108, 109, 110, 111, 112, 113, 114, 115, 116, 117, 118, 119, 120, 121, 122, 123, 124, 125, 126, 127, 128, 129, 130, 131, 132, 133, 134, 135, 136, 137, 138, 139, 140, 141, 142, 143, 144, 145, 146, 147, 148, 149, 150, 151, 152, 153, 154, 155, 156, 157, 158, 159, 160, 161, 162, 163, 164, 165, 166, 167, 168, 169, 170, 171, 172, 173, 174, 175, 176, 177, 178, 179, 180, 181, 182, 183, 184, 185, 186, 187, 188, 189, 190, 191, 192, 193, 194, 195, 196, 197, 198, 199, 200, 201, 202, 203, 204, 205, 206, 207, 208, 209, 210, 211, 212, 213, 214, 215, 216, 217, 218, 219, 220, 221, 222, 223, 224, 225, 226, 227, 228, 229, 230, 231, 232, 233, 234, 235, 236, 237, 238, 239, 240, 241, 242, 243, 244, 245, 246, 247, 248, 249, 250, 251, 252, 253, 254, 255, 256, 257, 258, 259, 260, 261, 262, 263, 264, 265, 266, 267, 268, 269, 270, 271, 272, 273, 274, 275, 276, 277, 278, 279, 280, 281, 282, 283, 284, 285, 286, 287, 288, 289, 290, 291, 292, 293, 294, 295, 296, 297, 298, 299, 300, 301, 302, 303, 304, 305, 306, 307, 308, 309, 310, 311, 312, 313, 314, 315, 316, 317, 318, 319, 320, 321, 322, 323, 324, 325, 326, 327, 328, 329, 330, 331, 332, 333, 334, 335, 336, 337, 338, 339, 340, 341, 342, 343, 344, 345, 346, 347, 348, 349, 350, 351, 352, 353, 354, 355, 356, 357, 358, 359, 360, 361, 362, 363, 364, 365, 366, 367, 368, 369, 370, 371, 372, 373, 374, 375, 376, 377, 378, 379, 380, 381, 382, 383, 384, 385, 386, 387, 388, 389, 390, 391, 392, 393, 394, 395, 396, 397, 398, 399, 400, 401, 402, 403, 404, 405, 406, 407, 408, 409, 410, 411, 412, 413, 414, 415, 416, 417, 418, 419, 420, 421, 422, 423, 424, 425, 426, 427, 428, 429, 430, 431, 432, 433, 434, 435, 436, 437, 438, 439, 440, 441, 442, 443, 444, 445, 446, 447, 448, 449, 450, 451, 452, 453, 454, 455, 456, 457, 458, 459, 460, 461, 462, 463, 464, 465, 466, 467, 468, 469, 470, 471, 472, 473, 474, 475, 476, 477, 478, 479, 480, 481, 482, 483, 484, 485, 486, 487, 488, 489, 490, 491, 492, 493, 494, 495, 496, 497, 498, 499, 500, 501, 502, 503, 504, 505, 506, 507, 508, 509, 510, 511, 512, 513, 514, 515, 516, 517, 518, 519, 520, 521, 522, 523, 524, 525, 526, 527, 528, 529, 530, 531, 532, 533, 534, 535, 536, 537, 538, 539, 540, 541, 542, 543, 544, 545, 546, 547, 548, 549, 550, 551, 552, 553, 554, 555, 556, 557, 558, 559, 560, 561, 562, 563, 564, 565, 566, 567, 568, 569, 570, 571, 572, 573, 574, 575, 576, 577, 578, 579, 580, 581],
      "AcquisitionTime": ["161710.707500", "161711.495000", "161712.282500", "161713.072500", "161713.860000", "161714.647500", "161715.435000", "161716.225000", "161717.012500", "161717.800000", "161718.587500", "161719.377500", "161720.165000", "161720.952500", "161721.742500", "161722.530000", "161723.317500", "161724.105000", "161724.895000", "161725.682500", "161726.470000", "161727.257500", "161728.047500", "161728.835000", "161729.622500", "161730.410000", "161731.200000", "161731.987500", "161732.775000", "161733.562500", "161734.352500", "161735.140000", "161735.927500", "161736.715000", "161737.505000", "161738.292500", "161739.080000", "161739.870000", "161740.657500", "161741.445000", "161742.232500", "161743.022500", "161743.810000", "161744.597500", "161745.385000", "161746.175000", "161746.962500", "161747.750000", "161748.537500", "161749.327500", "161750.115000", "161750.902500", "161751.690000", "161752.480000", "161753.267500", "161754.055000", "161754.842500", "161755.632500", "161756.420000", "161757.207500", "161757.997500", "161758.785000", "161759.572500", "161800.360000", "161801.150000", "161801.937500", "161802.725000", "161803.512500", "161804.302500", "161805.090000", "161805.877500", "161806.665000", "161807.455000", "161808.242500", "161809.030000", "161809.817500", "161810.607500", "161811.395000", "161812.182500", "161812.970000", "161813.760000", "161814.547500", "161815.335000", "161816.125000", "161816.912500", "161817.700000", "161818.487500", "161819.277500", "161820.065000", "161820.852500", "161821.640000", "161822.430000", "161823.217500", "161824.005000", "161824.792500", "161825.582500", "161826.370000", "161827.157500", "161827.945000", "161828.735000", "161829.522500", "161830.310000", "161831.097500", "161831.887500", "161832.675000", "161833.462500", "161834.252500", "161835.040000", "161835.827500", "161836.615000", "161837.405000", "161838.192500", "161838.980000", "161839.767500", "161840.557500", "161841.345000", "161842.132500", "161842.920000", "161843.710000", "161844.497500", "161845.285000", "161846.072500", "161846.862500", "161847.650000", "161848.437500", "161849.225000", "161850.015000", "161850.802500", "161851.590000", "161852.380000", "161853.167500", "161853.955000", "161854.742500", "161855.532500", "161856.320000", "161857.107500", "161857.895000", "161858.685000", "161859.472500", "161900.260000", "161901.047500", "161901.837500", "161902.625000", "161903.412500", "161904.200000", "161904.990000", "161905.777500", "161906.565000", "161907.352500", "161908.142500", "161908.930000", "161909.717500", "161910.507500", "161911.295000", "161912.082500", "161912.870000", "161913.660000", "161914.447500", "161915.235000", "161916.022500", "161916.812500", "161917.600000", "161918.387500", "161919.175000", "161919.965000", "161920.752500", "161921.540000", "161922.327500", "161923.117500", "161923.905000", "161924.692500", "161925.482500", "161926.270000", "161927.057500", "161927.845000", "161928.635000", "161929.422500", "161930.210000", "161930.997500", "161931.787500", "161932.575000", "161933.362500", "161934.150000", "161934.940000", "161935.727500", "161936.515000", "161937.302500", "161938.092500", "161938.880000", "161939.667500", "161940.455000", "161941.245000", "161942.032500", "161942.820000", "161943.610000", "161944.397500", "161945.185000", "161945.972500", "161946.762500", "161947.550000", "161948.337500", "161949.125000", "161949.915000", "161950.702500", "161951.490000", "161952.277500", "161953.067500", "161953.855000", "161954.642500", "161955.430000", "161956.220000", "161957.007500", "161957.795000", "161958.582500", "161959.372500", "162000.160000", "162000.947500", "162001.737500", "162002.525000", "162003.312500", "162004.100000", "162004.890000", "162005.677500", "162006.465000", "162007.252500", "162008.042500", "162008.830000", "162009.617500", "162010.405000", "162011.195000", "162011.982500", "162012.770000", "162013.557500", "162014.347500", "162015.135000", "162015.922500", "162016.710000", "162017.500000", "162018.287500", "162019.075000", "162019.865000", "162020.652500", "162021.440000", "162022.227500", "162023.017500", "162023.805000", "162024.592500", "162025.380000", "162026.170000", "162026.957500", "162027.745000", "162028.532500", "162029.322500", "162030.110000", "162030.897500", "162031.685000", "162032.475000", "162033.262500", "162034.050000", "162034.837500", "162035.627500", "162036.415000", "162037.202500", "162037.992500", "162038.780000", "162039.567500", "162040.355000", "162041.145000", "162041.932500", "162042.720000", "162043.507500", "162044.297500", "162045.085000", "162045.872500", "162046.660000", "162047.450000", "162048.237500", "162049.025000", "162049.812500", "162050.602500", "162051.390000", "162052.177500", "162052.965000", "162053.755000", "162054.542500", "162055.330000", "162056.120000", "162056.907500", "162057.695000", "162058.482500", "162059.272500", "162100.060000", "162100.847500", "162101.635000", "162102.425000", "162103.212500", "162104.000000", "162104.787500", "162105.577500", "162106.365000", "162107.152500", "162107.940000", "162108.730000", "162109.517500", "162110.305000", "162111.092500", "162111.882500", "162112.670000", "162113.457500", "162114.247500", "162115.035000", "162115.822500", "162116.610000", "162117.400000", "162118.187500", "162118.975000", "162119.762500", "162120.552500", "162121.340000", "162122.127500", "162122.915000", "162123.705000", "162124.492500", "162125.280000", "162126.067500", "162126.857500", "162127.645000", "162128.432500", "162129.220000", "162130.010000", "162130.797500", "162131.585000", "162132.375000", "162133.162500", "162133.950000", "162134.737500", "162135.527500", "162136.315000", "162137.102500", "162137.890000", "162138.680000", "162139.467500", "162140.255000", "162141.042500", "162141.832500", "162142.620000", "162143.407500", "162144.195000", "162144.985000", "162145.772500", "162146.560000", "162147.347500", "162148.137500", "162148.925000", "162149.712500", "162150.502500", "162151.290000", "162152.077500", "162152.865000", "162153.655000", "162154.442500", "162155.230000", "162156.017500", "162156.807500", "162157.595000", "162158.382500", "162159.170000", "162159.960000", "162200.747500", "162201.535000", "162202.322500", "162203.112500", "162203.900000", "162204.687500", "162205.475000", "162206.265000", "162207.052500", "162207.840000", "162208.630000", "162209.417500", "162210.205000", "162210.992500", "162211.782500", "162212.570000", "162213.357500", "162214.145000", "162214.935000", "162215.722500", "162216.510000", "162217.297500", "162218.087500", "162218.875000", "162219.662500", "162220.450000", "162221.240000", "162222.027500", "162222.815000", "162223.602500", "162224.392500", "162225.180000", "162225.967500", "162226.757500", "162227.545000", "162228.332500", "162229.120000", "162229.910000", "162230.697500", "162231.485000", "162232.272500", "162233.062500", "162233.850000", "162234.637500", "162235.425000", "162236.215000", "162237.002500", "162237.790000", "162238.577500", "162239.367500", "162240.155000", "162240.942500", "162241.732500", "162242.520000", "162243.307500", "162244.095000", "162244.885000", "162245.672500", "162246.460000", "162247.247500", "162248.037500", "162248.825000", "162249.612500", "162250.400000", "162251.190000", "162251.977500", "162252.765000", "162253.552500", "162254.342500", "162255.130000", "162255.917500", "162256.705000", "162257.495000", "162258.282500", "162259.070000", "162259.860000", "162300.647500", "162301.435000", "162302.222500", "162303.012500", "162303.800000", "162304.587500", "162305.375000", "162306.165000", "162306.952500", "162307.740000", "162308.527500", "162309.317500", "162310.105000", "162310.892500", "162311.680000", "162312.470000", "162313.257500", "162314.045000", "162314.832500", "162315.622500", "162316.410000", "162317.197500", "162317.987500", "162318.775000", "162319.562500", "162320.350000", "162321.140000", "162321.927500", "162322.715000", "162323.502500", "162324.292500", "162325.080000", "162325.867500", "162326.655000", "162327.445000", "162328.232500", "162329.020000", "162329.807500", "162330.597500", "162331.385000", "162332.172500", "162332.960000", "162333.750000", "162334.537500", "162335.325000", "162336.115000", "162336.902500", "162337.690000", "162338.477500", "162339.267500", "162340.055000", "162340.842500", "162341.630000", "162342.420000", "162343.207500", "162343.995000", "162344.782500", "162345.572500", "162346.360000", "162347.147500", "162347.935000", "162348.725000", "162349.512500", "162350.300000", "162351.087500", "162351.877500", "162352.665000", "162353.452500", "162354.242500", "162355.030000", "162355.817500", "162356.605000", "162357.395000", "162358.182500", "162358.970000", "162359.757500", "162400.547500", "162401.335000", "162402.122500", "162402.910000", "162403.700000", "162404.487500", "162405.275000", "162406.062500", "162406.852500", "162407.640000", "162408.427500", "162409.215000", "162410.005000", "162410.792500", "162411.580000", "162412.370000", "162413.157500", "162413.945000", "162414.732500", "162415.522500", "162416.310000", "162417.097500", "162417.885000", "162418.675000", "162419.462500", "162420.250000", "162421.037500", "162421.827500", "162422.615000", "162423.402500", "162424.190000", "162424.980000", "162425.767500", "162426.555000", "162427.342500", "162428.132500", "162428.920000", "162429.707500", "162430.497500", "162431.285000", "162432.072500", "162432.860000", "162433.650000", "162434.437500", "162435.225000", "162436.012500", "162436.802500", "162437.590000", "162438.377500", "162439.165000", "162439.955000", "162440.742500", "162441.530000", "162442.317500", "162443.107500", "162443.895000", "162444.682500", "162445.470000", "162446.260000", "162447.047500", "162447.835000"],
      "ContentTime": ["161737.484000", "161737.484000", "161737.484000", "161737.484000", "161737.484000", "161737.500000", "161737.500000", "161737.500000", "161737.500000", "161737.500000", "161737.500000", "161737.515000", "161737.515000", "161737.515000", "161737.515000", "161737.515000", "161737.515000", "161737.515000", "161737.531000", "161737.531000", "161737.531000", "161737.531000", "161737.531000", "161737.531000", "161737.531000", "161737.546000", "161737.546000", "161737.546000", "161737.546000", "161737.546000", "161737.562000", "161737.562000", "161757.453000", "161757.453000", "161757.453000", "161757.453000", "161757.453000", "161757.453000", "161757.468000", "161757.468000", "161757.468000", "161757.468000", "161757.468000", "161757.468000", "161757.468000", "161757.484000", "161757.484000", "161757.484000", "161757.484000", "161757.484000", "161757.484000", "161757.484000", "161757.500000", "161757.500000", "161757.500000", "161757.500000", "161757.500000", "161817.453000", "161817.453000", "161817.453000", "161817.453000", "161817.453000", "161817.453000", "161817.453000", "161817.468000", "161817.468000", "161817.468000", "161817.468000", "161817.468000", "161817.468000", "161817.468000", "161817.484000", "161817.484000", "161817.484000", "161817.484000", "161817.484000", "161817.484000", "161817.500000", "161817.500000", "161817.500000", "161817.500000", "161817.500000", "161817.500000", "161837.453000", "161837.453000", "161837.453000", "161837.453000", "161837.453000", "161837.453000", "161837.453000", "161837.468000", "161837.468000", "161837.468000", "161837.468000", "161837.468000", "161837.468000", "161837.484000", "161837.484000", "161837.484000", "161837.484000", "161837.484000", "161837.484000", "161837.484000", "161837.500000", "161837.500000", "161837.500000", "161837.500000", "161837.500000", "161857.453000", "161857.453000", "161857.453000", "161857.453000", "161857.453000", "161857.468000", "161857.468000", "161857.468000", "161857.468000", "161857.468000", "161857.484000", "161857.484000", "161857.484000", "161857.484000", "161857.484000", "161857.484000", "161857.500000", "161857.500000", "161857.500000", "161857.500000", "161857.500000", "161857.515000", "161857.515000", "161857.515000", "161857.515000", "161917.453000", "161917.453000", "161917.453000", "161917.453000", "161917.453000", "161917.453000", "161917.453000", "161917.468000", "161917.468000", "161917.468000", "161917.468000", "161917.468000", "161917.484000", "161917.484000", "161917.484000", "161917.484000", "161917.484000", "161917.484000", "161917.500000", "161917.500000", "161917.500000", "161917.500000", "161917.500000", "161917.500000", "161917.500000", "161917.515000", "161937.453000", "161937.453000", "161937.453000", "161937.453000", "161937.453000", "161937.468000", "161937.484000", "161937.484000", "161937.484000", "161937.484000", "161937.484000", "161937.484000", "161937.500000", "161937.500000", "161937.500000", "161937.500000", "161937.500000", "161937.500000", "161937.515000", "161937.515000", "161937.515000", "161937.515000", "161937.515000", "161937.515000", "161937.515000", "161957.453000", "161957.453000", "161957.453000", "161957.453000", "161957.453000", "161957.453000", "161957.453000", "161957.468000", "161957.468000", "161957.468000", "161957.468000", "161957.468000", "161957.468000", "161957.484000", "161957.484000", "161957.484000", "161957.484000", "161957.484000", "161957.484000", "161957.484000", "161957.500000", "161957.500000", "161957.500000", "161957.500000", "161957.500000", "161957.500000", "162017.453000", "162017.453000", "162017.453000", "162017.453000", "162017.453000", "162017.453000", "162017.468000", "162017.468000", "162017.468000", "162017.468000", "162017.468000", "162017.468000", "162017.468000", "162017.484000", "162017.484000", "162017.484000", "162017.484000", "162017.484000", "162017.484000", "162017.500000", "162017.500000", "162017.500000", "162017.500000", "162017.500000", "162017.500000", "162037.453000", "162037.453000", "162037.453000", "162037.453000", "162037.453000", "162037.453000", "162037.468000", "162037.468000", "162037.468000", "162037.468000", "162037.468000", "162037.468000", "162037.468000", "162037.484000", "162037.484000", "162037.484000", "162037.484000", "162037.484000", "162037.484000", "162037.484000", "162037.500000", "162037.500000", "162037.500000", "162037.500000", "162037.500000", "162037.500000", "162057.453000", "162057.453000", "162057.453000", "162057.453000", "162057.453000", "162057.453000", "162057.468000", "162057.468000", "162057.468000", "162057.468000", "162057.468000", "162057.468000", "162057.468000", "162057.484000", "162057.484000", "162057.484000", "162057.484000", "162057.484000", "162057.484000", "162057.500000", "162057.500000", "162057.500000", "162057.500000", "162057.500000", "162057.500000", "162117.453000", "162117.453000", "162117.453000", "162117.453000", "162117.453000", "162117.453000", "162117.453000", "162117.468000", "162117.468000", "162117.468000", "162117.468000", "162117.468000", "162117.484000", "162117.484000", "162117.484000", "162117.484000", "162117.484000", "162117.484000", "162117.500000", "162117.500000", "162117.500000", "162117.500000", "162117.500000", "162117.500000", "162117.500000", "162117.515000", "162137.453000", "162137.453000", "162137.453000", "162137.453000", "162137.468000", "162137.468000", "162137.468000", "162137.468000", "162137.468000", "162137.484000", "162137.484000", "162137.484000", "162137.484000", "162137.484000", "162137.484000", "162137.500000", "162137.500000", "162137.500000", "162137.500000", "162137.500000", "162137.500000", "162137.500000", "162137.515000", "162137.515000", "162137.515000", "162157.453000", "162157.453000", "162157.453000", "162157.453000", "162157.453000", "162157.453000", "162157.453000", "162157.468000", "162157.468000", "162157.468000", "162157.468000", "162157.468000", "162157.468000", "162157.484000", "162157.484000", "162157.484000", "162157.484000", "162157.484000", "162157.484000", "162157.500000", "162157.500000", "162157.500000", "162157.500000", "162157.500000", "162157.500000", "162157.515000", "162217.453000", "162217.453000", "162217.453000", "162217.453000", "162217.453000", "162217.453000", "162217.468000", "162217.468000", "162217.468000", "162217.468000", "162217.468000", "162217.468000", "162217.468000", "162217.484000", "162217.484000", "162217.484000", "162217.484000", "162217.484000", "162217.484000", "162217.484000", "162217.500000", "162217.500000", "162217.500000", "162217.500000", "162217.500000", "162237.453000", "162237.453000", "162237.453000", "162237.453000", "162237.453000", "162237.453000", "162237.468000", "162237.468000", "162237.468000", "162237.468000", "162237.468000", "162237.468000", "162237.468000", "162237.484000", "162237.484000", "162237.484000", "162237.484000", "162237.500000", "162237.500000", "162237.500000", "162237.500000", "162237.500000", "162237.500000", "162237.515000", "162237.515000", "162237.515000", "162257.453000", "162257.453000", "162257.453000", "162257.453000", "162257.453000", "162257.453000", "162257.468000", "162257.468000", "162257.468000", "162257.468000", "162257.468000", "162257.468000", "162257.468000", "162257.484000", "162257.484000", "162257.484000", "162257.484000", "162257.484000", "162257.484000", "162257.484000", "162257.500000", "162257.500000", "162257.500000", "162257.500000", "162257.500000", "162317.453000", "162317.453000", "162317.453000", "162317.453000", "162317.453000", "162317.453000", "162317.453000", "162317.468000", "162317.468000", "162317.468000", "162317.468000", "162317.468000", "162317.468000", "162317.484000", "162317.484000", "162317.484000", "162317.484000", "162317.484000", "162317.484000", "162317.484000", "162317.500000", "162317.500000", "162317.500000", "162317.500000", "162317.500000", "162317.500000", "162337.453000", "162337.453000", "162337.453000", "162337.453000", "162337.453000", "162337.453000", "162337.453000", "162337.468000", "162337.468000", "162337.468000", "162337.468000", "162337.468000", "162337.468000", "162337.468000", "162337.484000", "162337.484000", "162337.484000", "162337.484000", "162337.484000", "162337.484000", "162337.500000", "162337.500000", "162337.500000", "162337.500000", "162337.500000", "162357.453000", "162357.453000", "162357.453000", "162357.453000", "162357.453000", "162357.453000", "162357.468000", "162357.468000", "162357.468000", "162357.468000", "162357.468000", "162357.484000", "162357.484000", "162357.484000", "162357.484000", "162357.484000", "162357.500000", "162357.500000", "162357.500000", "162357.500000", "162357.500000", "162357.500000", "162357.500000", "162357.515000", "162357.515000", "162357.515000", "162417.453000", "162417.453000", "162417.453000", "162417.453000", "162417.453000", "162417.453000", "162417.453000", "162417.468000", "162417.468000", "162417.468000", "162417.468000", "162417.468000", "162417.468000", "162417.484000", "162417.484000", "162417.484000", "162417.484000", "162417.484000", "162417.484000", "162417.484000", "162417.500000", "162417.500000", "162417.500000", "162417.500000", "162417.500000", "162437.453000", "162437.453000", "162437.453000", "162437.453000", "162437.453000", "162437.453000", "162437.468000", "162437.468000", "162437.468000", "162437.468000", "162437.468000", "162437.468000", "162437.468000", "162437.484000", "162437.484000", "162437.484000", "162437.484000", "162437.484000", "162437.484000", "162437.500000", "162437.500000", "162437.500000", "162437.500000", "162437.500000", "162437.500000", "162437.500000", "162448.406000", "162448.406000", "162448.406000", "162448.406000", "162448.421000", "162448.421000", "162448.421000", "162448.421000", "162448.421000", "162448.421000", "162448.421000", "162448.437000", "162448.437000", "162448.437000"],
      "DataSetTrailingPadding": [
        "\u0000\u0000\u0000\u0000\u0000\u0000\u0000\u0000\u0000\u0000\u0000\u0000\u0000\u0000\u0000\u0000\u0000\u0000\u0000\u0000\u0000\u0000\u0000\u0000\u0000\u0000\u0000\u0000\u0000\u0000\u0000\u0000\u0000\u0000\u0000\u0000\u0000\u0000\u0000\u0000\u0000\u0000\u0000\u0000\u0000\u0000\u0000\u0000\u0000\u0000\u0000\u0000\u0000\u0000\u0000\u0000\u0000\u0000\u0000\u0000\u0000\u0000\u0000\u0000\u0000\u0000\u0000\u0000",
        "\u0000\u0000\u0000\u0000\u0000\u0000\u0000\u0000\u0000\u0000\u0000\u0000\u0000\u0000\u0000\u0000\u0000\u0000\u0000\u0000\u0000\u0000\u0000\u0000\u0000\u0000\u0000\u0000\u0000\u0000\u0000\u0000\u0000\u0000\u0000\u0000\u0000\u0000\u0000\u0000\u0000\u0000\u0000\u0000\u0000\u0000\u0000\u0000\u0000\u0000\u0000\u0000\u0000\u0000\u0000\u0000\u0000\u0000\u0000\u0000\u0000\u0000\u0000\u0000\u0000\u0000\u0000\u0000",
        "\u0000\u0000\u0000\u0000\u0000\u0000\u0000\u0000\u0000\u0000\u0000\u0000\u0000\u0000\u0000\u0000\u0000\u0000\u0000\u0000\u0000\u0000\u0000\u0000\u0000\u0000\u0000\u0000\u0000\u0000\u0000\u0000\u0000\u0000\u0000\u0000\u0000\u0000\u0000\u0000\u0000\u0000\u0000\u0000\u0000\u0000\u0000\u0000\u0000\u0000\u0000\u0000\u0000\u0000\u0000\u0000\u0000\u0000\u0000\u0000\u0000\u0000\u0000\u0000\u0000\u0000",
        "\u0000\u0000\u0000\u0000\u0000\u0000\u0000\u0000\u0000\u0000\u0000\u0000\u0000\u0000\u0000\u0000\u0000\u0000\u0000\u0000\u0000\u0000\u0000\u0000\u0000\u0000\u0000\u0000\u0000\u0000\u0000\u0000\u0000\u0000\u0000\u0000\u0000\u0000\u0000\u0000\u0000\u0000\u0000\u0000\u0000\u0000\u0000\u0000\u0000\u0000\u0000\u0000\u0000\u0000\u0000\u0000\u0000\u0000\u0000\u0000\u0000\u0000\u0000\u0000\u0000\u0000",
