{
  "AcquisitionMatrixPE": 104,
  "AcquisitionNumber": 1,
  "AcquisitionTime": "16:41:53.722500",
  "BandwidthPerPixelPhaseEncode": 13.935,
  "BaseResolution": 104,
  "CoilString": "C:HEA;HEP",
  "ConversionSoftware": "dcm2niix",
  "ConversionSoftwareVersion": "v1.0.20210317",
  "DerivedVendorReportedEchoSpacing": 0.000690017,
  "DeviceSerialNumber": "35450",
  "DwellTime": 2.5e-06,
  "EchoTime": 0.0348,
  "EffectiveEchoSpacing": 0.000690017,
  "FlipAngle": 55,
  "ImageComments": "Unaliased MB8/PE3 (remote)",
  "ImageOrientationPatientDICOM": [0.999986, 0.000292247, 0.0052278, 3.19162e-08, 0.998441, -0.0558215],
  "ImageType": [
    "ORIGINAL",
    "PRIMARY",
    "M",
    "MB",
    "ND",
    "MOSAIC"
],
  "ImagingFrequency": 123.235,
  "InPlanePhaseEncodingDirectionDICOM": "COL",
  "InstitutionAddress": "Univeristy Ave. 197,Newark,North East,US,07102-1814",
  "InstitutionName": "RUBIC",
  "InstitutionalDepartmentName": "Department",
  "MRAcquisitionType": "2D",
  "MagneticFieldStrength": 3,
  "Manufacturer": "Siemens",
  "ManufacturersModelName": "TrioTim",
  "Modality": "MR",
  "MultibandAccelerationFactor": 8,
  "PartialFourier": 0.875,
  "PatientPosition": "HFS",
  "PercentPhaseFOV": 100,
  "PercentSampling": 100,
  "PhaseEncodingDirection": "j-",
  "PhaseEncodingSteps": 91,
  "PhaseResolution": 1,
  "PixelBandwidth": 1923,
  "ProcedureStepDescription": "Cole^Michael",
  "ProtocolName": "cmrr_mbep2d_bold_2mm_MB8_Task_8x",
  "PulseSequenceDetails": "%CustomerSeq%\\cmrr_mbep2d_bold",
  "ReceiveCoilName": "32Ch_Head",
  "ReconMatrixPE": 104,
  "RepetitionTime": 0.785,
  "SAR": 0.130375,
  "ScanOptions": "PFP\\FS",
  "ScanningSequence": "EP",
  "SequenceName": "epfid2d1_104",
  "SequenceVariant": "SK\\SS",
  "SeriesDescription": "cmrr_mbep2d_bold_2mm_MB8_Task_8x",
  "SeriesNumber": 27,
  "ShimSetting": [2110, -460, -7533, 207, 45, -178, -31, 3],
  "SliceThickness": 2,
  "SliceTiming": [0, 0.4375, 0.0875, 0.5275, 0.175, 0.615, 0.2625, 0.7025, 0.35, 0, 0.4375, 0.0875, 0.5275, 0.175, 0.615, 0.2625, 0.7025, 0.35, 0, 0.4375, 0.0875, 0.5275, 0.175, 0.615, 0.2625, 0.7025, 0.35, 0, 0.4375, 0.0875, 0.5275, 0.175, 0.615, 0.2625, 0.7025, 0.35, 0, 0.4375, 0.0875, 0.5275, 0.175, 0.615, 0.2625, 0.7025, 0.35, 0, 0.4375, 0.0875, 0.5275, 0.175, 0.615, 0.2625, 0.7025, 0.35, 0, 0.4375, 0.0875, 0.5275, 0.175, 0.615, 0.2625, 0.7025, 0.35, 0, 0.4375, 0.0875, 0.5275, 0.175, 0.615, 0.2625, 0.7025, 0.35],
  "SoftwareVersions": "syngo MR B19",
  "SpacingBetweenSlices": 2,
  "StationName": "MRC35450",
  "TaskName": "cpro",
  "TotalReadoutTime": 0.0710717,
  "TxRefAmp": 325.469,
  "dcmmeta_affine": [
    [-1.9999725818634033, 6.383238115859058e-08, 0.01047192607074976, 101.5929183959961],
    [-0.0005844949628226459, 1.9968814849853516, -0.11164148151874542, -83.04881286621094],
    [0.0104556018486619, 0.11164300888776779, 1.9968540668487549, -98.51277160644531],
    [0.0, 0.0, 0.0, 1.0]
],
  "dcmmeta_reorient_transform": [
    [0.0, -1.0, 0.0, 103.0],
    [1.0, 0.0, 0.0, 0.0],
    [0.0, 0.0, 1.0, 0.0],
    [0.0, 0.0, 0.0, 1.0]
],
  "dcmmeta_shape": [104, 104, 72, 581],
  "dcmmeta_slice_dim": 2,
  "dcmmeta_version": 0.6,
  "global": {
    "const": {
      "AcquisitionMatrix": [104, 0, 0, 104],
      "AngioFlag": "N",
      "BitsAllocated": 16,
      "BitsStored": 12,
      "Columns": 936,
      "EchoNumbers": 1,
      "EchoTime": 34.8,
      "EchoTrainLength": 1,
      "FlipAngle": 55.0,
      "HighBit": 11,
      "ImageOrientationPatient": [0.99998629225056, 0.00029224748689, 0.00522780091313, 3.1916192e-08, 0.99844076412746, -0.0558215059683],
      "ImagePositionPatient": [-933.58154761229, -953.5758519533, -44.919575881825],
      "ImageType": [
        "ORIGINAL",
        "PRIMARY",
        "M",
        "MB",
        "ND",
        "MOSAIC"
],
      "ImagedNucleus": "1H",
      "ImagingFrequency": 123.234686,
      "InPlanePhaseEncodingDirection": "COL",
      "MRAcquisitionType": "2D",
      "MagneticFieldStrength": 3.0,
      "Manufacturer": "SIEMENS",
      "ManufacturerModelName": "TrioTim",
      "Modality": "MR",
      "NumberOfAverages": 1.0,
      "NumberOfPhaseEncodingSteps": 91,
      "PercentPhaseFieldOfView": 100.0,
      "PercentSampling": 100.0,
      "PerformedProcedureStepStartTime": "142717.968000",
      "PhotometricInterpretation": "MONOCHROME2",
      "PixelBandwidth": 1923.0,
      "PixelRepresentation": 0,
      "PixelSpacing": [2.0, 2.0],
      "ProtocolName": "cmrr_mbep2d_bold_2mm_MB8_Task_8x",
      "RepetitionTime": 785.0,
      "Rows": 936,
      "SAR": 0.1303745611117,
      "SamplesPerPixel": 1,
      "ScanOptions": [
        "PFP",
        "FS"
],
      "ScanningSequence": "EP",
      "SequenceName": "epfid2d1_104",
      "SequenceVariant": [
        "SK",
        "SS"
],
      "SeriesDescription": "cmrr_mbep2d_bold_2mm_MB8_Task_8x",
      "SeriesNumber": 27,
      "SeriesTime": "164217.468000",
      "SliceLocation": -93.190032828684,
      "SliceThickness": 2.0,
      "SmallestImagePixelValue": 0,
      "SoftwareVersions": "syngo MR B19",
      "SpacingBetweenSlices": 1.9999999550423,
      "SpecificCharacterSet": "ISO_IR 100",
      "StudyID": "1",
      "StudyTime": "142717.906000",
      "TransmitCoilName": "Body",
      "VariableFlipAngleFlag": "N",
      "WindowCenterWidthExplanation": "Algo1",
      "dBdt": 0.0},
    "slices": {}
  },
  "time": {
    "samples": {
      "AcquisitionNumber": [1, 2, 3, 4, 5, 6, 7, 8, 9, 10, 11, 12, 13, 14, 15, 16, 17, 18, 19, 20, 21, 22, 23, 24, 25, 26, 27, 28, 29, 30, 31, 32, 33, 34, 35, 36, 37, 38, 39, 40, 41, 42, 43, 44, 45, 46, 47, 48, 49, 50, 51, 52, 53, 54, 55, 56, 57, 58, 59, 60, 61, 62, 63, 64, 65, 66, 67, 68, 69, 70, 71, 72, 73, 74, 75, 76, 77, 78, 79, 80, 81, 82, 83, 84, 85, 86, 87, 88, 89, 90, 91, 92, 93, 94, 95, 96, 97, 98, 99, 100, 101, 102, 103, 104, 105, 106, 107, 108, 109, 110, 111, 112, 113, 114, 115, 116, 117, 118, 119, 120, 121, 122, 123, 124, 125, 126, 127, 128, 129, 130, 131, 132, 133, 134, 135, 136, 137, 138, 139, 140, 141, 142, 143, 144, 145, 146, 147, 148, 149, 150, 151, 152, 153, 154, 155, 156, 157, 158, 159, 160, 161, 162, 163, 164, 165, 166, 167, 168, 169, 170, 171, 172, 173, 174, 175, 176, 177, 178, 179, 180, 181, 182, 183, 184, 185, 186, 187, 188, 189, 190, 191, 192, 193, 194, 195, 196, 197, 198, 199, 200, 201, 202, 203, 204, 205, 206, 207, 208, 209, 210, 211, 212, 213, 214, 215, 216, 217, 218, 219, 220, 221, 222, 223, 224, 225, 226, 227, 228, 229, 230, 231, 232, 233, 234, 235, 236, 237, 238, 239, 240, 241, 242, 243, 244, 245, 246, 247, 248, 249, 250, 251, 252, 253, 254, 255, 256, 257, 258, 259, 260, 261, 262, 263, 264, 265, 266, 267, 268, 269, 270, 271, 272, 273, 274, 275, 276, 277, 278, 279, 280, 281, 282, 283, 284, 285, 286, 287, 288, 289, 290, 291, 292, 293, 294, 295, 296, 297, 298, 299, 300, 301, 302, 303, 304, 305, 306, 307, 308, 309, 310, 311, 312, 313, 314, 315, 316, 317, 318, 319, 320, 321, 322, 323, 324, 325, 326, 327, 328, 329, 330, 331, 332, 333, 334, 335, 336, 337, 338, 339, 340, 341, 342, 343, 344, 345, 346, 347, 348, 349, 350, 351, 352, 353, 354, 355, 356, 357, 358, 359, 360, 361, 362, 363, 364, 365, 366, 367, 368, 369, 370, 371, 372, 373, 374, 375, 376, 377, 378, 379, 380, 381, 382, 383, 384, 385, 386, 387, 388, 389, 390, 391, 392, 393, 394, 395, 396, 397, 398, 399, 400, 401, 402, 403, 404, 405, 406, 407, 408, 409, 410, 411, 412, 413, 414, 415, 416, 417, 418, 419, 420, 421, 422, 423, 424, 425, 426, 427, 428, 429, 430, 431, 432, 433, 434, 435, 436, 437, 438, 439, 440, 441, 442, 443, 444, 445, 446, 447, 448, 449, 450, 451, 452, 453, 454, 455, 456, 457, 458, 459, 460, 461, 462, 463, 464, 465, 466, 467, 468, 469, 470, 471, 472, 473, 474, 475, 476, 477, 478, 479, 480, 481, 482, 483, 484, 485, 486, 487, 488, 489, 490, 491, 492, 493, 494, 495, 496, 497, 498, 499, 500, 501, 502, 503, 504, 505, 506, 507, 508, 509, 510, 511, 512, 513, 514, 515, 516, 517, 518, 519, 520, 521, 522, 523, 524, 525, 526, 527, 528, 529, 530, 531, 532, 533, 534, 535, 536, 537, 538, 539, 540, 541, 542, 543, 544, 545, 546, 547, 548, 549, 550, 551, 552, 553, 554, 555, 556, 557, 558, 559, 560, 561, 562, 563, 564, 565, 566, 567, 568, 569, 570, 571, 572, 573, 574, 575, 576, 577, 578, 579, 580, 581],
      "AcquisitionTime": ["164153.722500", "164154.512500", "164155.300000", "164156.087500", "164156.875000", "164157.665000", "164158.452500", "164159.240000", "164200.030000", "164200.817500", "164201.605000", "164202.392500", "164203.182500", "164203.970000", "164204.757500", "164205.545000", "164206.335000", "164207.122500", "164207.910000", "164208.697500", "164209.487500", "164210.275000", "164211.062500", "164211.850000", "164212.640000", "164213.427500", "164214.215000", "164215.002500", "164215.792500", "164216.580000", "164217.367500", "164218.157500", "164218.945000", "164219.732500", "164220.520000", "164221.310000", "164222.097500", "164222.885000", "164223.672500", "164224.462500", "164225.250000", "164226.037500", "164226.825000", "164227.615000", "164228.402500", "164229.190000", "164229.977500", "164230.767500", "164231.555000", "164232.342500", "164233.130000", "164233.920000", "164234.707500", "164235.495000", "164236.285000", "164237.072500", "164237.860000", "164238.647500", "164239.437500", "164240.225000", "164241.012500", "164241.800000", "164242.590000", "164243.377500", "164244.165000", "164244.952500", "164245.742500", "164246.530000", "164247.317500", "164248.105000", "164248.895000", "164249.682500", "164250.470000", "164251.257500", "164252.047500", "164252.835000", "164253.622500", "164254.412500", "164255.200000", "164255.987500", "164256.775000", "164257.565000", "164258.352500", "164259.140000", "164259.927500", "164300.717500", "164301.505000", "164302.292500", "164303.080000", "164303.870000", "164304.657500", "164305.445000", "164306.232500", "164307.022500", "164307.810000", "164308.597500", "164309.385000", "164310.175000", "164310.962500", "164311.750000", "164312.540000", "164313.327500", "164314.115000", "164314.902500", "164315.692500", "164316.480000", "164317.267500", "164318.055000", "164318.845000", "164319.632500", "164320.420000", "164321.207500", "164321.997500", "164322.785000", "164323.572500", "164324.360000", "164325.150000", "164325.937500", "164326.725000", "164327.515000", "164328.302500", "164329.090000", "164329.877500", "164330.667500", "164331.455000", "164332.242500", "164333.030000", "164333.820000", "164334.607500", "164335.395000", "164336.182500", "164336.972500", "164337.760000", "164338.547500", "164339.335000", "164340.125000", "164340.912500", "164341.700000", "164342.487500", "164343.277500", "164344.065000", "164344.852500", "164345.642500", "164346.430000", "164347.217500", "164348.005000", "164348.795000", "164349.582500", "164350.370000", "164351.157500", "164351.947500", "164352.735000", "164353.522500", "164354.310000", "164355.100000", "164355.887500", "164356.675000", "164357.462500", "164358.252500", "164359.040000", "164359.827500", "164400.615000", "164401.405000", "164402.192500", "164402.980000", "164403.770000", "164404.557500", "164405.345000", "164406.132500", "164406.922500", "164407.710000", "164408.497500", "164409.285000", "164410.075000", "164410.862500", "164411.650000", "164412.437500", "164413.227500", "164414.015000", "164414.802500", "164415.590000", "164416.380000", "164417.167500", "164417.955000", "164418.742500", "164419.532500", "164420.320000", "164421.107500", "164421.897500", "164422.685000", "164423.472500", "164424.260000", "164425.050000", "164425.837500", "164426.625000", "164427.412500", "164428.202500", "164428.990000", "164429.777500", "164430.565000", "164431.355000", "164432.142500", "164432.930000", "164433.717500", "164434.507500", "164435.295000", "164436.082500", "164436.870000", "164437.660000", "164438.447500", "164439.235000", "164440.025000", "164440.812500", "164441.600000", "164442.387500", "164443.177500", "164443.965000", "164444.752500", "164445.540000", "164446.330000", "164447.117500", "164447.905000", "164448.692500", "164449.482500", "164450.270000", "164451.057500", "164451.845000", "164452.635000", "164453.422500", "164454.210000", "164454.997500", "164455.787500", "164456.575000", "164457.362500", "164458.152500", "164458.940000", "164459.727500", "164500.515000", "164501.305000", "164502.092500", "164502.880000", "164503.667500", "164504.457500", "164505.245000", "164506.032500", "164506.820000", "164507.610000", "164508.397500", "164509.185000", "164509.972500", "164510.762500", "164511.550000", "164512.337500", "164513.125000", "164513.915000", "164514.702500", "164515.490000", "164516.280000", "164517.067500", "164517.855000", "164518.642500", "164519.432500", "164520.220000", "164521.007500", "164521.795000", "164522.585000", "164523.372500", "164524.160000", "164524.947500", "164525.737500", "164526.525000", "164527.312500", "164528.100000", "164528.890000", "164529.677500", "164530.465000", "164531.252500", "164532.042500", "164532.830000", "164533.617500", "164534.407500", "164535.195000", "164535.982500", "164536.770000", "164537.560000", "164538.347500", "164539.135000", "164539.922500", "164540.712500", "164541.500000", "164542.287500", "164543.075000", "164543.865000", "164544.652500", "164545.440000", "164546.227500", "164547.017500", "164547.805000", "164548.592500", "164549.380000", "164550.170000", "164550.957500", "164551.745000", "164552.535000", "164553.322500", "164554.110000", "164554.897500", "164555.687500", "164556.475000", "164557.262500", "164558.050000", "164558.840000", "164559.627500", "164600.415000", "164601.202500", "164601.992500", "164602.780000", "164603.567500", "164604.355000", "164605.145000", "164605.932500", "164606.720000", "164607.507500", "164608.297500", "164609.085000", "164609.872500", "164610.662500", "164611.450000", "164612.237500", "164613.025000", "164613.815000", "164614.602500", "164615.390000", "164616.177500", "164616.967500", "164617.755000", "164618.542500", "164619.330000", "164620.120000", "164620.907500", "164621.695000", "164622.482500", "164623.272500", "164624.060000", "164624.847500", "164625.635000", "164626.425000", "164627.212500", "164628.000000", "164628.790000", "164629.577500", "164630.365000", "164631.152500", "164631.942500", "164632.730000", "164633.517500", "164634.305000", "164635.095000", "164635.882500", "164636.670000", "164637.457500", "164638.247500", "164639.035000", "164639.822500", "164640.610000", "164641.400000", "164642.187500", "164642.975000", "164643.765000", "164644.552500", "164645.340000", "164646.127500", "164646.917500", "164647.705000", "164648.492500", "164649.280000", "164650.070000", "164650.857500", "164651.645000", "164652.432500", "164653.222500", "164654.010000", "164654.797500", "164655.585000", "164656.375000", "164657.162500", "164657.950000", "164658.737500", "164659.527500", "164700.315000", "164701.102500", "164701.892500", "164702.680000", "164703.467500", "164704.255000", "164705.045000", "164705.832500", "164706.620000", "164707.407500", "164708.197500", "164708.985000", "164709.772500", "164710.560000", "164711.350000", "164712.137500", "164712.925000", "164713.712500", "164714.502500", "164715.290000", "164716.077500", "164716.865000", "164717.655000", "164718.442500", "164719.230000", "164720.020000", "164720.807500", "164721.595000", "164722.382500", "164723.172500", "164723.960000", "164724.747500", "164725.535000", "164726.325000", "164727.112500", "164727.900000", "164728.687500", "164729.477500", "164730.265000", "164731.052500", "164731.840000", "164732.630000", "164733.417500", "164734.205000", "164734.992500", "164735.782500", "164736.570000", "164737.357500", "164738.147500", "164738.935000", "164739.722500", "164740.510000", "164741.300000", "164742.087500", "164742.875000", "164743.662500", "164744.452500", "164745.240000", "164746.027500", "164746.815000", "164747.605000", "164748.392500", "164749.180000", "164749.967500", "164750.757500", "164751.545000", "164752.332500", "164753.120000", "164753.910000", "164754.697500", "164755.485000", "164756.275000", "164757.062500", "164757.850000", "164758.637500", "164759.427500", "164800.215000", "164801.002500", "164801.790000", "164802.580000", "164803.367500", "164804.155000", "164804.942500", "164805.732500", "164806.520000", "164807.307500", "164808.095000", "164808.885000", "164809.672500", "164810.460000", "164811.247500", "164812.037500", "164812.825000", "164813.612500", "164814.402500", "164815.190000", "164815.977500", "164816.765000", "164817.555000", "164818.342500", "164819.130000", "164819.917500", "164820.707500", "164821.495000", "164822.282500", "164823.070000", "164823.860000", "164824.647500", "164825.435000", "164826.222500", "164827.012500", "164827.800000", "164828.587500", "164829.375000", "164830.165000", "164830.952500", "164831.740000", "164832.530000", "164833.317500", "164834.105000", "164834.892500", "164835.682500", "164836.470000", "164837.257500", "164838.045000", "164838.835000", "164839.622500", "164840.410000", "164841.197500", "164841.987500", "164842.775000", "164843.562500", "164844.350000", "164845.140000", "164845.927500", "164846.715000", "164847.502500", "164848.292500", "164849.080000", "164849.867500", "164850.657500", "164851.445000", "164852.232500", "164853.020000", "164853.810000", "164854.597500", "164855.385000", "164856.172500", "164856.962500", "164857.750000", "164858.537500", "164859.325000", "164900.115000", "164900.902500", "164901.690000", "164902.477500", "164903.267500", "164904.055000", "164904.842500", "164905.630000", "164906.420000", "164907.207500", "164907.995000", "164908.785000", "164909.572500", "164910.360000", "164911.147500", "164911.937500", "164912.725000", "164913.512500", "164914.300000", "164915.090000", "164915.877500", "164916.665000", "164917.452500", "164918.242500", "164919.030000", "164919.817500", "164920.605000", "164921.395000", "164922.182500", "164922.970000", "164923.757500", "164924.547500", "164925.335000", "164926.122500", "164926.912500", "164927.700000", "164928.487500", "164929.275000", "164930.065000", "164930.852500"],
      "ContentTime": ["164217.468000", "164217.484000", "164217.484000", "164217.484000", "164217.484000", "164217.484000", "164217.484000", "164217.484000", "164217.500000", "164217.500000", "164217.500000", "164217.500000", "164217.500000", "164217.500000", "164217.500000", "164217.515000", "164217.515000", "164217.515000", "164217.515000", "164217.515000", "164217.515000", "164217.515000", "164217.531000", "164217.531000", "164217.531000", "164217.531000", "164217.531000", "164217.531000", "164237.453000", "164237.453000", "164237.453000", "164237.453000", "164237.453000", "164237.453000", "164237.453000", "164237.468000", "164237.468000", "164237.468000", "164237.468000", "164237.484000", "164237.484000", "164237.484000", "164237.484000", "164237.500000", "164237.500000", "164237.500000", "164237.500000", "164237.500000", "164237.500000", "164237.500000", "164237.515000", "164237.515000", "164237.515000", "164257.453000", "164257.453000", "164257.453000", "164257.453000", "164257.453000", "164257.453000", "164257.468000", "164257.468000", "164257.468000", "164257.468000", "164257.468000", "164257.468000", "164257.484000", "164257.484000", "164257.484000", "164257.484000", "164257.484000", "164257.500000", "164257.500000", "164257.500000", "164257.500000", "164257.500000", "164257.500000", "164257.500000", "164257.515000", "164257.515000", "164317.453000", "164317.453000", "164317.453000", "164317.453000", "164317.453000", "164317.453000", "164317.468000", "164317.468000", "164317.468000", "164317.468000", "164317.468000", "164317.468000", "164317.468000", "164317.484000", "164317.484000", "164317.484000", "164317.484000", "164317.484000", "164317.484000", "164317.484000", "164317.500000", "164317.500000", "164317.500000", "164317.500000", "164317.500000", "164337.453000", "164337.453000", "164337.453000", "164337.453000", "164337.453000", "164337.453000", "164337.453000", "164337.468000", "164337.468000", "164337.468000", "164337.468000", "164337.468000", "164337.468000", "164337.468000", "164337.484000", "164337.484000", "164337.484000", "164337.484000", "164337.484000", "164337.484000", "164337.500000", "164337.500000", "164337.500000", "164337.500000", "164337.500000", "164337.500000", "164357.453000", "164357.453000", "164357.453000", "164357.453000", "164357.453000", "164357.453000", "164357.453000", "164357.468000", "164357.468000", "164357.468000", "164357.468000", "164357.468000", "164357.468000", "164357.484000", "164357.484000", "164357.484000", "164357.484000", "164357.484000", "164357.484000", "164357.484000", "164357.500000", "164357.500000", "164357.500000", "164357.500000", "164357.500000", "164417.453000", "164417.453000", "164417.453000", "164417.453000", "164417.453000", "164417.468000", "164417.468000", "164417.468000", "164417.468000", "164417.468000", "164417.468000", "164417.468000", "164417.484000", "164417.484000", "164417.484000", "164417.484000", "164417.484000", "164417.500000", "164417.500000", "164417.500000", "164417.500000", "164417.500000", "164417.500000", "164417.500000", "164417.515000", "164417.515000", "164437.453000", "164437.453000", "164437.453000", "164437.453000", "164437.453000", "164437.453000", "164437.453000", "164437.468000", "164437.468000", "164437.468000", "164437.468000", "164437.468000", "164437.468000", "164437.484000", "164437.484000", "164437.484000", "164437.484000", "164437.484000", "164437.484000", "164437.484000", "164437.500000", "164437.500000", "164437.500000", "164437.500000", "164437.500000", "164457.453000", "164457.453000", "164457.453000", "164457.453000", "164457.453000", "164457.453000", "164457.468000", "164457.468000", "164457.468000", "164457.468000", "164457.468000", "164457.468000", "164457.468000", "164457.484000", "164457.484000", "164457.484000", "164457.484000", "164457.484000", "164457.484000", "164457.484000", "164457.500000", "164457.500000", "164457.500000", "164457.500000", "164457.500000", "164457.500000", "164517.453000", "164517.453000", "164517.453000", "164517.453000", "164517.453000", "164517.453000", "164517.468000", "164517.468000", "164517.468000", "164517.468000", "164517.468000", "164517.468000", "164517.468000", "164517.484000", "164517.484000", "164517.484000", "164517.484000", "164517.484000", "164517.484000", "164517.484000", "164517.500000", "164517.500000", "164517.500000", "164517.500000", "164517.500000", "164537.453000", "164537.453000", "164537.453000", "164537.453000", "164537.453000", "164537.453000", "164537.453000", "164537.468000", "164537.468000", "164537.468000", "164537.468000", "164537.468000", "164537.468000", "164537.468000", "164537.484000", "164537.484000", "164537.484000", "164537.484000", "164537.484000", "164537.484000", "164537.484000", "164537.500000", "164537.500000", "164537.500000", "164537.500000", "164537.500000", "164557.453000", "164557.453000", "164557.453000", "164557.453000", "164557.453000", "164557.468000", "164557.468000", "164557.468000", "164557.468000", "164557.468000", "164557.468000", "164557.484000", "164557.484000", "164557.484000", "164557.484000", "164557.484000", "164557.500000", "164557.500000", "164557.500000", "164557.500000", "164557.500000", "164557.515000", "164557.515000", "164557.515000", "164557.515000", "164617.453000", "164617.453000", "164617.453000", "164617.453000", "164617.453000", "164617.453000", "164617.453000", "164617.468000", "164617.468000", "164617.468000", "164617.468000", "164617.468000", "164617.468000", "164617.468000", "164617.484000", "164617.484000", "164617.484000", "164617.484000", "164617.484000", "164617.484000", "164617.500000", "164617.500000", "164617.500000", "164617.500000", "164617.500000", "164617.500000", "164637.453000", "164637.453000", "164637.453000", "164637.453000", "164637.453000", "164637.453000", "164637.453000", "164637.468000", "164637.468000", "164637.468000", "164637.468000", "164637.468000", "164637.468000", "164637.484000", "164637.484000", "164637.484000", "164637.484000", "164637.484000", "164637.484000", "164637.484000", "164637.500000", "164637.500000", "164637.500000", "164637.500000", "164637.500000", "164657.453000", "164657.453000", "164657.453000", "164657.453000", "164657.453000", "164657.453000", "164657.453000", "164657.468000", "164657.468000", "164657.468000", "164657.468000", "164657.468000", "164657.468000", "164657.484000", "164657.484000", "164657.484000", "164657.484000", "164657.484000", "164657.484000", "164657.484000", "164657.500000", "164657.500000", "164657.500000", "164657.500000", "164657.500000", "164657.500000", "164717.453000", "164717.453000", "164717.453000", "164717.453000", "164717.453000", "164717.453000", "164717.453000", "164717.468000", "164717.468000", "164717.468000", "164717.468000", "164717.468000", "164717.468000", "164717.468000", "164717.484000", "164717.484000", "164717.484000", "164717.484000", "164717.484000", "164717.484000", "164717.484000", "164717.500000", "164717.500000", "164717.500000", "164717.500000", "164737.453000", "164737.453000", "164737.453000", "164737.453000", "164737.453000", "164737.453000", "164737.468000", "164737.468000", "164737.468000", "164737.468000", "164737.484000", "164737.484000", "164737.484000", "164737.484000", "164737.484000", "164737.484000", "164737.484000", "164737.500000", "164737.500000", "164737.500000", "164737.500000", "164737.500000", "164737.500000", "164737.500000", "164737.515000", "164757.453000", "164757.453000", "164757.453000", "164757.453000", "164757.453000", "164757.453000", "164757.453000", "164757.468000", "164757.468000", "164757.468000", "164757.468000", "164757.468000", "164757.468000", "164757.468000", "164757.484000", "164757.484000", "164757.484000", "164757.484000", "164757.484000", "164757.484000", "164757.484000", "164757.500000", "164757.500000", "164757.500000", "164757.500000", "164757.500000", "164817.453000", "164817.453000", "164817.453000", "164817.453000", "164817.453000", "164817.453000", "164817.468000", "164817.468000", "164817.468000", "164817.468000", "164817.468000", "164817.484000", "164817.484000", "164817.484000", "164817.484000", "164817.484000", "164817.484000", "164817.500000", "164817.500000", "164817.500000", "164817.500000", "164817.515000", "164817.515000", "164817.515000", "164817.515000", "164837.453000", "164837.453000", "164837.453000", "164837.453000", "164837.453000", "164837.453000", "164837.453000", "164837.468000", "164837.468000", "164837.468000", "164837.468000", "164837.468000", "164837.468000", "164837.468000", "164837.484000", "164837.484000", "164837.484000", "164837.484000", "164837.484000", "164837.484000", "164837.484000", "164837.500000", "164837.500000", "164837.500000", "164837.500000", "164837.500000", "164857.453000", "164857.453000", "164857.453000", "164857.453000", "164857.453000", "164857.453000", "164857.453000", "164857.468000", "164857.468000", "164857.468000", "164857.468000", "164857.468000", "164857.468000", "164857.484000", "164857.484000", "164857.484000", "164857.484000", "164857.484000", "164857.484000", "164857.484000", "164857.500000", "164857.500000", "164857.500000", "164857.500000", "164857.500000", "164917.453000", "164917.453000", "164917.453000", "164917.453000", "164917.453000", "164917.453000", "164917.468000", "164917.468000", "164917.468000", "164917.468000", "164917.468000", "164917.468000", "164917.468000", "164917.468000", "164917.484000", "164917.484000", "164917.484000", "164917.484000", "164917.484000", "164917.484000", "164917.500000", "164917.500000", "164917.500000", "164917.500000", "164917.500000", "164917.500000", "164931.375000", "164931.375000", "164931.375000", "164931.390000", "164931.390000", "164931.390000", "164931.390000", "164931.390000", "164931.390000", "164931.406000", "164931.406000", "164931.406000", "164931.406000", "164931.406000", "164931.406000", "164931.406000", "164931.421000", "164931.421000"],
      "DataSetTrailingPadding": [
        "\u0000\u0000\u0000\u0000\u0000\u0000\u0000\u0000\u0000\u0000\u0000\u0000\u0000\u0000\u0000\u0000\u0000\u0000\u0000\u0000\u0000\u0000\u0000\u0000\u0000\u0000\u0000\u0000\u0000\u0000\u0000\u0000\u0000\u0000\u0000\u0000\u0000\u0000\u0000\u0000\u0000\u0000\u0000\u0000\u0000\u0000\u0000\u0000\u0000\u0000\u0000\u0000\u0000\u0000\u0000\u0000\u0000\u0000\u0000\u0000\u0000\u0000\u0000\u0000\u0000\u0000\u0000\u0000",
        "\u0000\u0000\u0000\u0000\u0000\u0000\u0000\u0000\u0000\u0000\u0000\u0000\u0000\u0000\u0000\u0000\u0000\u0000\u0000\u0000\u0000\u0000\u0000\u0000\u0000\u0000\u0000\u0000\u0000\u0000\u0000\u0000\u0000\u0000\u0000\u0000\u0000\u0000\u0000\u0000\u0000\u0000\u0000\u0000\u0000\u0000\u0000\u0000\u0000\u0000\u0000\u0000\u0000\u0000\u0000\u0000\u0000\u0000\u0000\u0000\u0000\u0000\u0000\u0000\u0000\u0000",
        "\u0000\u0000\u0000\u0000\u0000\u0000\u0000\u0000\u0000\u0000\u0000\u0000\u0000\u0000\u0000\u0000\u0000\u0000\u0000\u0000\u0000\u0000\u0000\u0000\u0000\u0000\u0000\u0000\u0000\u0000\u0000\u0000\u0000\u0000\u0000\u0000\u0000\u0000\u0000\u0000\u0000\u0000\u0000\u0000\u0000\u0000\u0000\u0000\u0000\u0000\u0000\u0000\u0000\u0000\u0000\u0000\u0000\u0000\u0000\u0000\u0000\u0000\u0000\u0000\u0000\u0000\u0000\u0000",
        "\u0000\u0000\u0000\u0000\u0000\u0000\u0000\u0000\u0000\u0000\u0000\u0000\u0000\u0000\u0000\u0000\u0000\u0000\u0000\u0000\u0000\u0000\u0000\u0000\u0000\u0000\u0000\u0000\u0000\u0000\u0000\u0000\u0000\u0000\u0000\u0000\u0000\u0000\u0000\u0000\u0000\u0000\u0000\u0000\u0000\u0000\u0000\u0000\u0000\u0000\u0000\u0000\u0000\u0000\u0000\u0000\u0000\u0000\u0000\u0000\u0000\u0000\u0000\u0000\u0000\u0000",
