{
  "AcquisitionMatrixPE": 104,
  "AcquisitionNumber": 1,
  "AcquisitionTime": "15:52:9.705000",
  "BandwidthPerPixelPhaseEncode": 13.935,
  "BaseResolution": 104,
  "CoilString": "C:HEA;HEP",
  "ConversionSoftware": "dcm2niix",
  "ConversionSoftwareVersion": "v1.0.20210317",
  "DerivedVendorReportedEchoSpacing": 0.000690017,
  "DeviceSerialNumber": "35450",
  "DwellTime": 2.5e-06,
  "EchoTime": 0.0348,
  "EffectiveEchoSpacing": 0.000690017,
  "FlipAngle": 55,
  "ImageComments": "Unaliased MB8/PE3 (remote)",
  "ImageOrientationPatientDICOM": [0.999986, 0.000292247, 0.0052278, 3.19162e-08, 0.998441, -0.0558215],
  "ImageType": [
    "ORIGINAL",
    "PRIMARY",
    "M",
    "MB",
    "ND",
    "MOSAIC"
],
  "ImagingFrequency": 123.235,
  "InPlanePhaseEncodingDirectionDICOM": "COL",
  "InstitutionAddress": "Univeristy Ave. 197,Newark,North East,US,07102-1814",
  "InstitutionName": "RUBIC",
  "InstitutionalDepartmentName": "Department",
  "MRAcquisitionType": "2D",
  "MagneticFieldStrength": 3,
  "Manufacturer": "Siemens",
  "ManufacturersModelName": "TrioTim",
  "Modality": "MR",
  "MultibandAccelerationFactor": 8,
  "PartialFourier": 0.875,
  "PatientPosition": "HFS",
  "PercentPhaseFOV": 100,
  "PercentSampling": 100,
  "PhaseEncodingDirection": "j-",
  "PhaseEncodingSteps": 91,
  "PhaseResolution": 1,
  "PixelBandwidth": 1923,
  "ProcedureStepDescription": "Cole^Michael",
  "ProtocolName": "cmrr_mbep2d_bold_2mm_MB8_Task_8x",
  "PulseSequenceDetails": "%CustomerSeq%\\cmrr_mbep2d_bold",
  "ReceiveCoilName": "32Ch_Head",
  "ReconMatrixPE": 104,
  "RepetitionTime": 0.785,
  "SAR": 0.130375,
  "ScanOptions": "PFP\\FS",
  "ScanningSequence": "EP",
  "SequenceName": "epfid2d1_104",
  "SequenceVariant": "SK\\SS",
  "SeriesDescription": "cmrr_mbep2d_bold_2mm_MB8_Task_8x",
  "SeriesNumber": 15,
  "ShimSetting": [2110, -460, -7533, 207, 45, -178, -31, 3],
  "SliceThickness": 2,
  "SliceTiming": [0, 0.4375, 0.0875, 0.525, 0.175, 0.6125, 0.2625, 0.7, 0.35, 0, 0.4375, 0.0875, 0.525, 0.175, 0.6125, 0.2625, 0.7, 0.35, 0, 0.4375, 0.0875, 0.525, 0.175, 0.6125, 0.2625, 0.7, 0.35, 0, 0.4375, 0.0875, 0.525, 0.175, 0.6125, 0.2625, 0.7, 0.35, 0, 0.4375, 0.0875, 0.525, 0.175, 0.6125, 0.2625, 0.7, 0.35, 0, 0.4375, 0.0875, 0.525, 0.175, 0.6125, 0.2625, 0.7, 0.35, 0, 0.4375, 0.0875, 0.525, 0.175, 0.6125, 0.2625, 0.7, 0.35, 0, 0.4375, 0.0875, 0.525, 0.175, 0.6125, 0.2625, 0.7, 0.35],
  "SoftwareVersions": "syngo MR B19",
  "SpacingBetweenSlices": 2,
  "StationName": "MRC35450",
  "TaskName": "cpro",
  "TotalReadoutTime": 0.0710717,
  "TxRefAmp": 325.469,
  "dcmmeta_affine": [
    [-1.9999725818634033, 6.383238115859058e-08, 0.01047192607074976, 101.5929183959961],
    [-0.0005844949628226459, 1.9968814849853516, -0.11164148151874542, -83.04881286621094],
    [0.0104556018486619, 0.11164300888776779, 1.9968540668487549, -98.51277160644531],
    [0.0, 0.0, 0.0, 1.0]
],
  "dcmmeta_reorient_transform": [
    [0.0, -1.0, 0.0, 103.0],
    [1.0, 0.0, 0.0, 0.0],
    [0.0, 0.0, 1.0, 0.0],
    [0.0, 0.0, 0.0, 1.0]
],
  "dcmmeta_shape": [104, 104, 72, 581],
  "dcmmeta_slice_dim": 2,
  "dcmmeta_version": 0.6,
  "global": {
    "const": {
      "AcquisitionMatrix": [104, 0, 0, 104],
      "AngioFlag": "N",
      "BitsAllocated": 16,
      "BitsStored": 12,
      "Columns": 936,
      "EchoNumbers": 1,
      "EchoTime": 34.8,
      "EchoTrainLength": 1,
      "FlipAngle": 55.0,
      "HighBit": 11,
      "ImageOrientationPatient": [0.99998629225056, 0.00029224748689, 0.00522780091313, 3.1916192e-08, 0.99844076412746, -0.0558215059683],
      "ImagePositionPatient": [-933.58154761229, -953.5758519533, -44.919575881825],
      "ImageType": [
        "ORIGINAL",
        "PRIMARY",
        "M",
        "MB",
        "ND",
        "MOSAIC"
],
      "ImagedNucleus": "1H",
      "ImagingFrequency": 123.234686,
      "InPlanePhaseEncodingDirection": "COL",
      "MRAcquisitionType": "2D",
      "MagneticFieldStrength": 3.0,
      "Manufacturer": "SIEMENS",
      "ManufacturerModelName": "TrioTim",
      "Modality": "MR",
      "NumberOfAverages": 1.0,
      "NumberOfPhaseEncodingSteps": 91,
      "PercentPhaseFieldOfView": 100.0,
      "PercentSampling": 100.0,
      "PerformedProcedureStepStartTime": "142717.968000",
      "PhotometricInterpretation": "MONOCHROME2",
      "PixelBandwidth": 1923.0,
      "PixelRepresentation": 0,
      "PixelSpacing": [2.0, 2.0],
      "ProtocolName": "cmrr_mbep2d_bold_2mm_MB8_Task_8x",
      "RepetitionTime": 785.0,
      "Rows": 936,
      "SAR": 0.1303745611117,
      "SamplesPerPixel": 1,
      "ScanOptions": [
        "PFP",
        "FS"
],
      "ScanningSequence": "EP",
      "SequenceName": "epfid2d1_104",
      "SequenceVariant": [
        "SK",
        "SS"
],
      "SeriesDescription": "cmrr_mbep2d_bold_2mm_MB8_Task_8x",
      "SeriesNumber": 15,
      "SeriesTime": "155237.468000",
      "SliceLocation": -93.190032828684,
      "SliceThickness": 2.0,
      "SmallestImagePixelValue": 0,
      "SoftwareVersions": "syngo MR B19",
      "SpacingBetweenSlices": 1.9999999550423,
      "SpecificCharacterSet": "ISO_IR 100",
      "StudyID": "1",
      "StudyTime": "142717.906000",
      "TransmitCoilName": "Body",
      "VariableFlipAngleFlag": "N",
      "WindowCenterWidthExplanation": "Algo1",
      "dBdt": 0.0},
    "slices": {}
  },
  "time": {
    "samples": {
      "AcquisitionNumber": [1, 2, 3, 4, 5, 6, 7, 8, 9, 10, 11, 12, 13, 14, 15, 16, 17, 18, 19, 20, 21, 22, 23, 24, 25, 26, 27, 28, 29, 30, 31, 32, 33, 34, 35, 36, 37, 38, 39, 40, 41, 42, 43, 44, 45, 46, 47, 48, 49, 50, 51, 52, 53, 54, 55, 56, 57, 58, 59, 60, 61, 62, 63, 64, 65, 66, 67, 68, 69, 70, 71, 72, 73, 74, 75, 76, 77, 78, 79, 80, 81, 82, 83, 84, 85, 86, 87, 88, 89, 90, 91, 92, 93, 94, 95, 96, 97, 98, 99, 100, 101, 102, 103, 104, 105, 106, 107, 108, 109, 110, 111, 112, 113, 114, 115, 116, 117, 118, 119, 120, 121, 122, 123, 124, 125, 126, 127, 128, 129, 130, 131, 132, 133, 134, 135, 136, 137, 138, 139, 140, 141, 142, 143, 144, 145, 146, 147, 148, 149, 150, 151, 152, 153, 154, 155, 156, 157, 158, 159, 160, 161, 162, 163, 164, 165, 166, 167, 168, 169, 170, 171, 172, 173, 174, 175, 176, 177, 178, 179, 180, 181, 182, 183, 184, 185, 186, 187, 188, 189, 190, 191, 192, 193, 194, 195, 196, 197, 198, 199, 200, 201, 202, 203, 204, 205, 206, 207, 208, 209, 210, 211, 212, 213, 214, 215, 216, 217, 218, 219, 220, 221, 222, 223, 224, 225, 226, 227, 228, 229, 230, 231, 232, 233, 234, 235, 236, 237, 238, 239, 240, 241, 242, 243, 244, 245, 246, 247, 248, 249, 250, 251, 252, 253, 254, 255, 256, 257, 258, 259, 260, 261, 262, 263, 264, 265, 266, 267, 268, 269, 270, 271, 272, 273, 274, 275, 276, 277, 278, 279, 280, 281, 282, 283, 284, 285, 286, 287, 288, 289, 290, 291, 292, 293, 294, 295, 296, 297, 298, 299, 300, 301, 302, 303, 304, 305, 306, 307, 308, 309, 310, 311, 312, 313, 314, 315, 316, 317, 318, 319, 320, 321, 322, 323, 324, 325, 326, 327, 328, 329, 330, 331, 332, 333, 334, 335, 336, 337, 338, 339, 340, 341, 342, 343, 344, 345, 346, 347, 348, 349, 350, 351, 352, 353, 354, 355, 356, 357, 358, 359, 360, 361, 362, 363, 364, 365, 366, 367, 368, 369, 370, 371, 372, 373, 374, 375, 376, 377, 378, 379, 380, 381, 382, 383, 384, 385, 386, 387, 388, 389, 390, 391, 392, 393, 394, 395, 396, 397, 398, 399, 400, 401, 402, 403, 404, 405, 406, 407, 408, 409, 410, 411, 412, 413, 414, 415, 416, 417, 418, 419, 420, 421, 422, 423, 424, 425, 426, 427, 428, 429, 430, 431, 432, 433, 434, 435, 436, 437, 438, 439, 440, 441, 442, 443, 444, 445, 446, 447, 448, 449, 450, 451, 452, 453, 454, 455, 456, 457, 458, 459, 460, 461, 462, 463, 464, 465, 466, 467, 468, 469, 470, 471, 472, 473, 474, 475, 476, 477, 478, 479, 480, 481, 482, 483, 484, 485, 486, 487, 488, 489, 490, 491, 492, 493, 494, 495, 496, 497, 498, 499, 500, 501, 502, 503, 504, 505, 506, 507, 508, 509, 510, 511, 512, 513, 514, 515, 516, 517, 518, 519, 520, 521, 522, 523, 524, 525, 526, 527, 528, 529, 530, 531, 532, 533, 534, 535, 536, 537, 538, 539, 540, 541, 542, 543, 544, 545, 546, 547, 548, 549, 550, 551, 552, 553, 554, 555, 556, 557, 558, 559, 560, 561, 562, 563, 564, 565, 566, 567, 568, 569, 570, 571, 572, 573, 574, 575, 576, 577, 578, 579, 580, 581],
      "AcquisitionTime": ["155209.705000", "155210.492500", "155211.280000", "155212.070000", "155212.857500", "155213.645000", "155214.432500", "155215.222500", "155216.010000", "155216.797500", "155217.585000", "155218.375000", "155219.162500", "155219.950000", "155220.737500", "155221.527500", "155222.315000", "155223.102500", "155223.890000", "155224.680000", "155225.467500", "155226.255000", "155227.045000", "155227.832500", "155228.620000", "155229.407500", "155230.197500", "155230.985000", "155231.772500", "155232.560000", "155233.350000", "155234.137500", "155234.925000", "155235.712500", "155236.502500", "155237.290000", "155238.077500", "155238.865000", "155239.655000", "155240.442500", "155241.230000", "155242.017500", "155242.807500", "155243.595000", "155244.382500", "155245.172500", "155245.960000", "155246.747500", "155247.535000", "155248.325000", "155249.112500", "155249.900000", "155250.687500", "155251.477500", "155252.265000", "155253.052500", "155253.840000", "155254.630000", "155255.417500", "155256.205000", "155256.992500", "155257.782500", "155258.570000", "155259.357500", "155300.145000", "155300.935000", "155301.722500", "155302.510000", "155303.300000", "155304.087500", "155304.875000", "155305.662500", "155306.452500", "155307.240000", "155308.027500", "155308.815000", "155309.605000", "155310.392500", "155311.180000", "155311.967500", "155312.757500", "155313.545000", "155314.332500", "155315.120000", "155315.910000", "155316.697500", "155317.485000", "155318.272500", "155319.062500", "155319.850000", "155320.637500", "155321.427500", "155322.215000", "155323.002500", "155323.790000", "155324.580000", "155325.367500", "155326.155000", "155326.942500", "155327.732500", "155328.520000", "155329.307500", "155330.095000", "155330.885000", "155331.672500", "155332.460000", "155333.247500", "155334.037500", "155334.825000", "155335.612500", "155336.400000", "155337.190000", "155337.977500", "155338.765000", "155339.555000", "155340.342500", "155341.130000", "155341.917500", "155342.707500", "155343.495000", "155344.282500", "155345.070000", "155345.860000", "155346.647500", "155347.435000", "155348.222500", "155349.012500", "155349.800000", "155350.587500", "155351.375000", "155352.165000", "155352.952500", "155353.740000", "155354.527500", "155355.317500", "155356.105000", "155356.892500", "155357.682500", "155358.470000", "155359.257500", "155400.045000", "155400.835000", "155401.622500", "155402.410000", "155403.197500", "155403.987500", "155404.775000", "155405.562500", "155406.350000", "155407.140000", "155407.927500", "155408.715000", "155409.502500", "155410.292500", "155411.080000", "155411.867500", "155412.655000", "155413.445000", "155414.232500", "155415.020000", "155415.810000", "155416.597500", "155417.385000", "155418.172500", "155418.962500", "155419.750000", "155420.537500", "155421.325000", "155422.115000", "155422.902500", "155423.690000", "155424.477500", "155425.267500", "155426.055000", "155426.842500", "155427.630000", "155428.420000", "155429.207500", "155429.995000", "155430.782500", "155431.572500", "155432.360000", "155433.147500", "155433.937500", "155434.725000", "155435.512500", "155436.300000", "155437.090000", "155437.877500", "155438.665000", "155439.452500", "155440.242500", "155441.030000", "155441.817500", "155442.605000", "155443.395000", "155444.182500", "155444.970000", "155445.757500", "155446.547500", "155447.335000", "155448.122500", "155448.912500", "155449.700000", "155450.487500", "155451.275000", "155452.065000", "155452.852500", "155453.640000", "155454.427500", "155455.217500", "155456.005000", "155456.792500", "155457.580000", "155458.370000", "155459.157500", "155459.945000", "155500.732500", "155501.522500", "155502.310000", "155503.097500", "155503.885000", "155504.675000", "155505.462500", "155506.250000", "155507.040000", "155507.827500", "155508.615000", "155509.402500", "155510.192500", "155510.980000", "155511.767500", "155512.555000", "155513.345000", "155514.132500", "155514.920000", "155515.707500", "155516.497500", "155517.285000", "155518.072500", "155518.860000", "155519.650000", "155520.437500", "155521.225000", "155522.012500", "155522.802500", "155523.590000", "155524.377500", "155525.167500", "155525.955000", "155526.742500", "155527.530000", "155528.320000", "155529.107500", "155529.895000", "155530.682500", "155531.472500", "155532.260000", "155533.047500", "155533.835000", "155534.625000", "155535.412500", "155536.200000", "155536.987500", "155537.777500", "155538.565000", "155539.352500", "155540.140000", "155540.930000", "155541.717500", "155542.505000", "155543.295000", "155544.082500", "155544.870000", "155545.657500", "155546.447500", "155547.235000", "155548.022500", "155548.810000", "155549.600000", "155550.387500", "155551.175000", "155551.962500", "155552.752500", "155553.540000", "155554.327500", "155555.115000", "155555.905000", "155556.692500", "155557.480000", "155558.267500", "155559.057500", "155559.845000", "155600.632500", "155601.422500", "155602.210000", "155602.997500", "155603.785000", "155604.575000", "155605.362500", "155606.150000", "155606.937500", "155607.727500", "155608.515000", "155609.302500", "155610.090000", "155610.880000", "155611.667500", "155612.455000", "155613.242500", "155614.032500", "155614.820000", "155615.607500", "155616.395000", "155617.185000", "155617.972500", "155618.760000", "155619.550000", "155620.337500", "155621.125000", "155621.912500", "155622.702500", "155623.490000", "155624.277500", "155625.065000", "155625.855000", "155626.642500", "155627.430000", "155628.217500", "155629.007500", "155629.795000", "155630.582500", "155631.370000", "155632.160000", "155632.947500", "155633.735000", "155634.522500", "155635.312500", "155636.100000", "155636.887500", "155637.677500", "155638.465000", "155639.252500", "155640.040000", "155640.830000", "155641.617500", "155642.405000", "155643.192500", "155643.982500", "155644.770000", "155645.557500", "155646.345000", "155647.135000", "155647.922500", "155648.710000", "155649.497500", "155650.287500", "155651.075000", "155651.862500", "155652.650000", "155653.440000", "155654.227500", "155655.015000", "155655.805000", "155656.592500", "155657.380000", "155658.167500", "155658.957500", "155659.745000", "155700.532500", "155701.320000", "155702.110000", "155702.897500", "155703.685000", "155704.472500", "155705.262500", "155706.050000", "155706.837500", "155707.625000", "155708.415000", "155709.202500", "155709.990000", "155710.777500", "155711.567500", "155712.355000", "155713.142500", "155713.932500", "155714.720000", "155715.507500", "155716.295000", "155717.085000", "155717.872500", "155718.660000", "155719.447500", "155720.237500", "155721.025000", "155721.812500", "155722.600000", "155723.390000", "155724.177500", "155724.965000", "155725.752500", "155726.542500", "155727.330000", "155728.117500", "155728.905000", "155729.695000", "155730.482500", "155731.270000", "155732.060000", "155732.847500", "155733.635000", "155734.422500", "155735.212500", "155736.000000", "155736.787500", "155737.575000", "155738.365000", "155739.152500", "155739.940000", "155740.727500", "155741.517500", "155742.305000", "155743.092500", "155743.880000", "155744.670000", "155745.457500", "155746.245000", "155747.032500", "155747.822500", "155748.610000", "155749.397500", "155750.187500", "155750.975000", "155751.762500", "155752.550000", "155753.340000", "155754.127500", "155754.915000", "155755.702500", "155756.492500", "155757.280000", "155758.067500", "155758.855000", "155759.645000", "155800.432500", "155801.220000", "155802.007500", "155802.797500", "155803.585000", "155804.372500", "155805.162500", "155805.950000", "155806.737500", "155807.525000", "155808.315000", "155809.102500", "155809.890000", "155810.677500", "155811.467500", "155812.255000", "155813.042500", "155813.830000", "155814.620000", "155815.407500", "155816.195000", "155816.982500", "155817.772500", "155818.560000", "155819.347500", "155820.135000", "155820.925000", "155821.712500", "155822.500000", "155823.290000", "155824.077500", "155824.865000", "155825.652500", "155826.442500", "155827.230000", "155828.017500", "155828.805000", "155829.595000", "155830.382500", "155831.170000", "155831.957500", "155832.747500", "155833.535000", "155834.322500", "155835.110000", "155835.900000", "155836.687500", "155837.475000", "155838.262500", "155839.052500", "155839.840000", "155840.627500", "155841.417500", "155842.205000", "155842.992500", "155843.780000", "155844.570000", "155845.357500", "155846.145000", "155846.932500", "155847.722500", "155848.510000", "155849.297500", "155850.085000", "155850.875000", "155851.662500", "155852.450000", "155853.237500", "155854.027500", "155854.815000", "155855.602500", "155856.390000", "155857.180000", "155857.967500", "155858.755000", "155859.545000", "155900.332500", "155901.120000", "155901.907500", "155902.697500", "155903.485000", "155904.272500", "155905.060000", "155905.850000", "155906.637500", "155907.425000", "155908.212500", "155909.002500", "155909.790000", "155910.577500", "155911.365000", "155912.155000", "155912.942500", "155913.730000", "155914.517500", "155915.307500", "155916.095000", "155916.882500", "155917.672500", "155918.460000", "155919.247500", "155920.035000", "155920.825000", "155921.612500", "155922.400000", "155923.187500", "155923.977500", "155924.765000", "155925.552500", "155926.340000", "155927.130000", "155927.917500", "155928.705000", "155929.492500", "155930.282500", "155931.070000", "155931.857500", "155932.645000", "155933.435000", "155934.222500", "155935.010000", "155935.800000", "155936.587500", "155937.375000", "155938.162500", "155938.952500", "155939.740000", "155940.527500", "155941.315000", "155942.105000", "155942.892500", "155943.680000", "155944.467500", "155945.257500", "155946.045000", "155946.832500"],
      "ContentTime": ["155237.468000", "155237.468000", "155237.468000", "155237.484000", "155237.484000", "155237.484000", "155237.484000", "155237.484000", "155237.484000", "155237.484000", "155237.500000", "155237.500000", "155237.500000", "155237.500000", "155237.500000", "155237.500000", "155237.515000", "155237.515000", "155237.515000", "155237.515000", "155237.515000", "155237.531000", "155237.531000", "155237.531000", "155237.531000", "155237.531000", "155237.531000", "155237.531000", "155237.546000", "155237.546000", "155237.546000", "155237.546000", "155237.546000", "155257.453000", "155257.453000", "155257.453000", "155257.453000", "155257.453000", "155257.453000", "155257.468000", "155257.468000", "155257.468000", "155257.468000", "155257.468000", "155257.468000", "155257.484000", "155257.484000", "155257.484000", "155257.484000", "155257.484000", "155257.484000", "155257.484000", "155257.500000", "155257.500000", "155257.500000", "155257.500000", "155257.500000", "155257.500000", "155317.453000", "155317.453000", "155317.453000", "155317.453000", "155317.468000", "155317.468000", "155317.468000", "155317.468000", "155317.468000", "155317.468000", "155317.468000", "155317.484000", "155317.484000", "155317.484000", "155317.484000", "155317.484000", "155317.500000", "155317.500000", "155317.500000", "155317.500000", "155317.500000", "155317.500000", "155317.515000", "155317.515000", "155317.515000", "155337.453000", "155337.453000", "155337.453000", "155337.453000", "155337.453000", "155337.453000", "155337.468000", "155337.468000", "155337.468000", "155337.468000", "155337.468000", "155337.468000", "155337.468000", "155337.484000", "155337.484000", "155337.484000", "155337.484000", "155337.484000", "155337.484000", "155337.484000", "155337.500000", "155337.500000", "155337.500000", "155337.500000", "155337.500000", "155337.500000", "155357.453000", "155357.453000", "155357.453000", "155357.453000", "155357.468000", "155357.468000", "155357.468000", "155357.468000", "155357.468000", "155357.468000", "155357.468000", "155357.484000", "155357.484000", "155357.484000", "155357.484000", "155357.484000", "155357.484000", "155357.484000", "155357.500000", "155357.500000", "155357.500000", "155357.500000", "155357.500000", "155357.500000", "155357.515000", "155417.453000", "155417.453000", "155417.453000", "155417.453000", "155417.453000", "155417.453000", "155417.468000", "155417.468000", "155417.468000", "155417.484000", "155417.484000", "155417.484000", "155417.484000", "155417.484000", "155417.484000", "155417.484000", "155417.500000", "155417.500000", "155417.500000", "155417.500000", "155417.500000", "155417.515000", "155417.515000", "155417.515000", "155417.515000", "155417.515000", "155437.453000", "155437.453000", "155437.453000", "155437.453000", "155437.453000", "155437.453000", "155437.453000", "155437.468000", "155437.468000", "155437.468000", "155437.468000", "155437.484000", "155437.484000", "155437.484000", "155437.484000", "155437.484000", "155437.484000", "155437.484000", "155437.500000", "155437.500000", "155437.500000", "155437.500000", "155437.500000", "155437.500000", "155437.500000", "155457.453000", "155457.453000", "155457.453000", "155457.453000", "155457.453000", "155457.453000", "155457.453000", "155457.468000", "155457.468000", "155457.468000", "155457.468000", "155457.468000", "155457.468000", "155457.468000", "155457.484000", "155457.484000", "155457.484000", "155457.484000", "155457.484000", "155457.484000", "155457.500000", "155457.500000", "155457.500000", "155457.500000", "155457.500000", "155457.500000", "155517.453000", "155517.453000", "155517.453000", "155517.453000", "155517.453000", "155517.453000", "155517.453000", "155517.468000", "155517.468000", "155517.468000", "155517.468000", "155517.468000", "155517.468000", "155517.484000", "155517.484000", "155517.484000", "155517.484000", "155517.484000", "155517.484000", "155517.484000", "155517.500000", "155517.500000", "155517.500000", "155517.500000", "155517.500000", "155537.453000", "155537.453000", "155537.453000", "155537.453000", "155537.453000", "155537.453000", "155537.468000", "155537.468000", "155537.468000", "155537.468000", "155537.468000", "155537.468000", "155537.484000", "155537.484000", "155537.484000", "155537.484000", "155537.484000", "155537.484000", "155537.500000", "155537.500000", "155537.500000", "155537.500000", "155537.500000", "155537.515000", "155537.515000", "155537.515000", "155557.453000", "155557.453000", "155557.453000", "155557.453000", "155557.453000", "155557.453000", "155557.468000", "155557.468000", "155557.468000", "155557.468000", "155557.468000", "155557.468000", "155557.484000", "155557.484000", "155557.484000", "155557.484000", "155557.484000", "155557.484000", "155557.484000", "155557.500000", "155557.500000", "155557.500000", "155557.500000", "155557.500000", "155557.500000", "155617.453000", "155617.453000", "155617.453000", "155617.453000", "155617.453000", "155617.453000", "155617.468000", "155617.468000", "155617.468000", "155617.468000", "155617.468000", "155617.468000", "155617.468000", "155617.484000", "155617.484000", "155617.484000", "155617.484000", "155617.484000", "155617.484000", "155617.484000", "155617.500000", "155617.500000", "155617.500000", "155617.500000", "155617.500000", "155617.500000", "155637.453000", "155637.453000", "155637.453000", "155637.453000", "155637.453000", "155637.453000", "155637.468000", "155637.468000", "155637.468000", "155637.468000", "155637.468000", "155637.468000", "155637.468000", "155637.468000", "155637.484000", "155637.484000", "155637.484000", "155637.484000", "155637.484000", "155637.484000", "155637.500000", "155637.500000", "155637.500000", "155637.500000", "155637.500000", "155657.453000", "155657.453000", "155657.453000", "155657.453000", "155657.453000", "155657.453000", "155657.468000", "155657.468000", "155657.468000", "155657.468000", "155657.468000", "155657.468000", "155657.468000", "155657.484000", "155657.484000", "155657.484000", "155657.484000", "155657.484000", "155657.484000", "155657.484000", "155657.500000", "155657.500000", "155657.500000", "155657.500000", "155657.500000", "155657.500000", "155717.453000", "155717.453000", "155717.453000", "155717.453000", "155717.453000", "155717.453000", "155717.468000", "155717.468000", "155717.468000", "155717.468000", "155717.468000", "155717.468000", "155717.468000", "155717.484000", "155717.484000", "155717.484000", "155717.484000", "155717.500000", "155717.500000", "155717.500000", "155717.500000", "155717.500000", "155717.500000", "155717.500000", "155717.515000", "155737.453000", "155737.453000", "155737.453000", "155737.453000", "155737.468000", "155737.468000", "155737.468000", "155737.468000", "155737.468000", "155737.468000", "155737.484000", "155737.484000", "155737.484000", "155737.484000", "155737.484000", "155737.484000", "155737.484000", "155737.500000", "155737.500000", "155737.500000", "155737.500000", "155737.500000", "155737.500000", "155737.500000", "155737.515000", "155737.515000", "155757.453000", "155757.453000", "155757.453000", "155757.453000", "155757.453000", "155757.453000", "155757.468000", "155757.468000", "155757.468000", "155757.468000", "155757.468000", "155757.468000", "155757.468000", "155757.484000", "155757.484000", "155757.484000", "155757.484000", "155757.484000", "155757.484000", "155757.484000", "155757.500000", "155757.500000", "155757.500000", "155757.500000", "155757.500000", "155817.453000", "155817.453000", "155817.453000", "155817.453000", "155817.453000", "155817.453000", "155817.468000", "155817.468000", "155817.468000", "155817.468000", "155817.468000", "155817.484000", "155817.484000", "155817.484000", "155817.484000", "155817.484000", "155817.484000", "155817.484000", "155817.500000", "155817.500000", "155817.500000", "155817.500000", "155817.500000", "155817.500000", "155817.500000", "155817.515000", "155837.453000", "155837.453000", "155837.453000", "155837.453000", "155837.453000", "155837.453000", "155837.468000", "155837.468000", "155837.468000", "155837.468000", "155837.468000", "155837.468000", "155837.484000", "155837.484000", "155837.484000", "155837.484000", "155837.484000", "155837.484000", "155837.500000", "155837.500000", "155837.500000", "155837.500000", "155837.515000", "155837.515000", "155837.515000", "155857.453000", "155857.453000", "155857.453000", "155857.453000", "155857.453000", "155857.453000", "155857.453000", "155857.468000", "155857.468000", "155857.468000", "155857.468000", "155857.468000", "155857.468000", "155857.468000", "155857.484000", "155857.484000", "155857.484000", "155857.484000", "155857.484000", "155857.484000", "155857.500000", "155857.500000", "155857.500000", "155857.500000", "155857.500000", "155857.500000", "155917.453000", "155917.453000", "155917.453000", "155917.453000", "155917.453000", "155917.453000", "155917.453000", "155917.468000", "155917.468000", "155917.468000", "155917.468000", "155917.468000", "155917.468000", "155917.484000", "155917.484000", "155917.484000", "155917.484000", "155917.484000", "155917.484000", "155917.484000", "155917.500000", "155917.500000", "155917.500000", "155917.500000", "155917.500000", "155937.453000", "155937.453000", "155937.453000", "155937.453000", "155937.453000", "155937.453000", "155937.468000", "155937.468000", "155937.468000", "155937.468000", "155937.468000", "155937.468000", "155937.468000", "155937.484000", "155937.484000", "155937.484000", "155937.484000", "155937.484000", "155937.484000", "155937.484000", "155937.500000", "155937.500000", "155937.500000", "155937.500000", "155937.500000", "155937.500000", "155947.625000", "155947.625000", "155947.640000", "155947.640000", "155947.640000", "155947.640000", "155947.640000", "155947.640000", "155947.640000", "155947.656000", "155947.656000", "155947.656000", "155947.656000"],
      "DataSetTrailingPadding": [
        "\u0000\u0000\u0000\u0000\u0000\u0000\u0000\u0000\u0000\u0000\u0000\u0000\u0000\u0000\u0000\u0000\u0000\u0000\u0000\u0000\u0000\u0000\u0000\u0000\u0000\u0000\u0000\u0000\u0000\u0000\u0000\u0000\u0000\u0000\u0000\u0000\u0000\u0000\u0000\u0000\u0000\u0000\u0000\u0000\u0000\u0000\u0000\u0000\u0000\u0000\u0000\u0000\u0000\u0000\u0000\u0000\u0000\u0000\u0000\u0000\u0000\u0000\u0000\u0000\u0000\u0000\u0000\u0000",
        "\u0000\u0000\u0000\u0000\u0000\u0000\u0000\u0000\u0000\u0000\u0000\u0000\u0000\u0000\u0000\u0000\u0000\u0000\u0000\u0000\u0000\u0000\u0000\u0000\u0000\u0000\u0000\u0000\u0000\u0000\u0000\u0000\u0000\u0000\u0000\u0000\u0000\u0000\u0000\u0000\u0000\u0000\u0000\u0000\u0000\u0000\u0000\u0000\u0000\u0000\u0000\u0000\u0000\u0000\u0000\u0000\u0000\u0000\u0000\u0000\u0000\u0000\u0000\u0000\u0000\u0000\u0000\u0000",
        "\u0000\u0000\u0000\u0000\u0000\u0000\u0000\u0000\u0000\u0000\u0000\u0000\u0000\u0000\u0000\u0000\u0000\u0000\u0000\u0000\u0000\u0000\u0000\u0000\u0000\u0000\u0000\u0000\u0000\u0000\u0000\u0000\u0000\u0000\u0000\u0000\u0000\u0000\u0000\u0000\u0000\u0000\u0000\u0000\u0000\u0000\u0000\u0000\u0000\u0000\u0000\u0000\u0000\u0000\u0000\u0000\u0000\u0000\u0000\u0000\u0000\u0000\u0000\u0000\u0000\u0000",
        "\u0000\u0000\u0000\u0000\u0000\u0000\u0000\u0000\u0000\u0000\u0000\u0000\u0000\u0000\u0000\u0000\u0000\u0000\u0000\u0000\u0000\u0000\u0000\u0000\u0000\u0000\u0000\u0000\u0000\u0000\u0000\u0000\u0000\u0000\u0000\u0000\u0000\u0000\u0000\u0000\u0000\u0000\u0000\u0000\u0000\u0000\u0000\u0000\u0000\u0000\u0000\u0000\u0000\u0000\u0000\u0000\u0000\u0000\u0000\u0000\u0000\u0000\u0000\u0000\u0000\u0000\u0000\u0000\u0000\u0000",
