{
  "AcquisitionMatrixPE": 104,
  "AcquisitionNumber": 1,
  "AcquisitionTime": "16:00:20.742500",
  "BandwidthPerPixelPhaseEncode": 13.935,
  "BaseResolution": 104,
  "CoilString": "C:HEA;HEP",
  "ConversionSoftware": "dcm2niix",
  "ConversionSoftwareVersion": "v1.0.20210317",
  "DerivedVendorReportedEchoSpacing": 0.000690017,
  "DeviceSerialNumber": "35450",
  "DwellTime": 2.5e-06,
  "EchoTime": 0.0348,
  "EffectiveEchoSpacing": 0.000690017,
  "FlipAngle": 55,
  "ImageComments": "Unaliased MB8/PE3 (remote)",
  "ImageOrientationPatientDICOM": [0.999986, 0.000292247, 0.0052278, 3.19162e-08, 0.998441, -0.0558215],
  "ImageType": [
    "ORIGINAL",
    "PRIMARY",
    "M",
    "MB",
    "ND",
    "MOSAIC"
],
  "ImagingFrequency": 123.235,
  "InPlanePhaseEncodingDirectionDICOM": "COL",
  "InstitutionAddress": "Univeristy Ave. 197,Newark,North East,US,07102-1814",
  "InstitutionName": "RUBIC",
  "InstitutionalDepartmentName": "Department",
  "MRAcquisitionType": "2D",
  "MagneticFieldStrength": 3,
  "Manufacturer": "Siemens",
  "ManufacturersModelName": "TrioTim",
  "Modality": "MR",
  "MultibandAccelerationFactor": 8,
  "PartialFourier": 0.875,
  "PatientPosition": "HFS",
  "PercentPhaseFOV": 100,
  "PercentSampling": 100,
  "PhaseEncodingDirection": "j-",
  "PhaseEncodingSteps": 91,
  "PhaseResolution": 1,
  "PixelBandwidth": 1923,
  "ProcedureStepDescription": "Cole^Michael",
  "ProtocolName": "cmrr_mbep2d_bold_2mm_MB8_Task_8x",
  "PulseSequenceDetails": "%CustomerSeq%\\cmrr_mbep2d_bold",
  "ReceiveCoilName": "32Ch_Head",
  "ReconMatrixPE": 104,
  "RepetitionTime": 0.785,
  "SAR": 0.130375,
  "ScanOptions": "PFP\\FS",
  "ScanningSequence": "EP",
  "SequenceName": "epfid2d1_104",
  "SequenceVariant": "SK\\SS",
  "SeriesDescription": "cmrr_mbep2d_bold_2mm_MB8_Task_8x",
  "SeriesNumber": 17,
  "ShimSetting": [2110, -460, -7533, 207, 45, -178, -31, 3],
  "SliceThickness": 2,
  "SliceTiming": [0, 0.4375, 0.0875, 0.525, 0.175, 0.6125, 0.2625, 0.7, 0.35, 0, 0.4375, 0.0875, 0.525, 0.175, 0.6125, 0.2625, 0.7, 0.35, 0, 0.4375, 0.0875, 0.525, 0.175, 0.6125, 0.2625, 0.7, 0.35, 0, 0.4375, 0.0875, 0.525, 0.175, 0.6125, 0.2625, 0.7, 0.35, 0, 0.4375, 0.0875, 0.525, 0.175, 0.6125, 0.2625, 0.7, 0.35, 0, 0.4375, 0.0875, 0.525, 0.175, 0.6125, 0.2625, 0.7, 0.35, 0, 0.4375, 0.0875, 0.525, 0.175, 0.6125, 0.2625, 0.7, 0.35, 0, 0.4375, 0.0875, 0.525, 0.175, 0.6125, 0.2625, 0.7, 0.35],
  "SoftwareVersions": "syngo MR B19",
  "SpacingBetweenSlices": 2,
  "StationName": "MRC35450",
  "TaskName": "cpro",
  "TotalReadoutTime": 0.0710717,
  "TxRefAmp": 325.469,
  "dcmmeta_affine": [
    [-1.9999725818634033, 6.383238115859058e-08, 0.01047192607074976, 101.5929183959961],
    [-0.0005844949628226459, 1.9968814849853516, -0.11164148151874542, -83.04881286621094],
    [0.0104556018486619, 0.11164300888776779, 1.9968540668487549, -98.51277160644531],
    [0.0, 0.0, 0.0, 1.0]
],
  "dcmmeta_reorient_transform": [
    [0.0, -1.0, 0.0, 103.0],
    [1.0, 0.0, 0.0, 0.0],
    [0.0, 0.0, 1.0, 0.0],
    [0.0, 0.0, 0.0, 1.0]
],
  "dcmmeta_shape": [104, 104, 72, 581],
  "dcmmeta_slice_dim": 2,
  "dcmmeta_version": 0.6,
  "global": {
    "const": {
      "AcquisitionMatrix": [104, 0, 0, 104],
      "AngioFlag": "N",
      "BitsAllocated": 16,
      "BitsStored": 12,
      "Columns": 936,
      "EchoNumbers": 1,
      "EchoTime": 34.8,
      "EchoTrainLength": 1,
      "FlipAngle": 55.0,
      "HighBit": 11,
      "ImageOrientationPatient": [0.99998629225056, 0.00029224748689, 0.00522780091313, 3.1916192e-08, 0.99844076412746, -0.0558215059683],
      "ImagePositionPatient": [-933.58154761229, -953.5758519533, -44.919575881825],
      "ImageType": [
        "ORIGINAL",
        "PRIMARY",
        "M",
        "MB",
        "ND",
        "MOSAIC"
],
      "ImagedNucleus": "1H",
      "ImagingFrequency": 123.234686,
      "InPlanePhaseEncodingDirection": "COL",
      "MRAcquisitionType": "2D",
      "MagneticFieldStrength": 3.0,
      "Manufacturer": "SIEMENS",
      "ManufacturerModelName": "TrioTim",
      "Modality": "MR",
      "NumberOfAverages": 1.0,
      "NumberOfPhaseEncodingSteps": 91,
      "PercentPhaseFieldOfView": 100.0,
      "PercentSampling": 100.0,
      "PerformedProcedureStepStartTime": "142717.968000",
      "PhotometricInterpretation": "MONOCHROME2",
      "PixelBandwidth": 1923.0,
      "PixelRepresentation": 0,
      "PixelSpacing": [2.0, 2.0],
      "ProtocolName": "cmrr_mbep2d_bold_2mm_MB8_Task_8x",
      "RepetitionTime": 785.0,
      "Rows": 936,
      "SAR": 0.1303745611117,
      "SamplesPerPixel": 1,
      "ScanOptions": [
        "PFP",
        "FS"
],
      "ScanningSequence": "EP",
      "SequenceName": "epfid2d1_104",
      "SequenceVariant": [
        "SK",
        "SS"
],
      "SeriesDescription": "cmrr_mbep2d_bold_2mm_MB8_Task_8x",
      "SeriesNumber": 17,
      "SeriesTime": "160054.140000",
      "SliceLocation": -93.190032828684,
      "SliceThickness": 2.0,
      "SmallestImagePixelValue": 0,
      "SoftwareVersions": "syngo MR B19",
      "SpacingBetweenSlices": 1.9999999550423,
      "SpecificCharacterSet": "ISO_IR 100",
      "StudyID": "1",
      "StudyTime": "142717.906000",
      "TransmitCoilName": "Body",
      "VariableFlipAngleFlag": "N",
      "WindowCenterWidthExplanation": "Algo1",
      "dBdt": 0.0},
    "slices": {}
  },
  "time": {
    "samples": {
      "AcquisitionNumber": [1, 2, 3, 4, 5, 6, 7, 8, 9, 10, 11, 12, 13, 14, 15, 16, 17, 18, 19, 20, 21, 22, 23, 24, 25, 26, 27, 28, 29, 30, 31, 32, 33, 34, 35, 36, 37, 38, 39, 40, 41, 42, 43, 44, 45, 46, 47, 48, 49, 50, 51, 52, 53, 54, 55, 56, 57, 58, 59, 60, 61, 62, 63, 64, 65, 66, 67, 68, 69, 70, 71, 72, 73, 74, 75, 76, 77, 78, 79, 80, 81, 82, 83, 84, 85, 86, 87, 88, 89, 90, 91, 92, 93, 94, 95, 96, 97, 98, 99, 100, 101, 102, 103, 104, 105, 106, 107, 108, 109, 110, 111, 112, 113, 114, 115, 116, 117, 118, 119, 120, 121, 122, 123, 124, 125, 126, 127, 128, 129, 130, 131, 132, 133, 134, 135, 136, 137, 138, 139, 140, 141, 142, 143, 144, 145, 146, 147, 148, 149, 150, 151, 152, 153, 154, 155, 156, 157, 158, 159, 160, 161, 162, 163, 164, 165, 166, 167, 168, 169, 170, 171, 172, 173, 174, 175, 176, 177, 178, 179, 180, 181, 182, 183, 184, 185, 186, 187, 188, 189, 190, 191, 192, 193, 194, 195, 196, 197, 198, 199, 200, 201, 202, 203, 204, 205, 206, 207, 208, 209, 210, 211, 212, 213, 214, 215, 216, 217, 218, 219, 220, 221, 222, 223, 224, 225, 226, 227, 228, 229, 230, 231, 232, 233, 234, 235, 236, 237, 238, 239, 240, 241, 242, 243, 244, 245, 246, 247, 248, 249, 250, 251, 252, 253, 254, 255, 256, 257, 258, 259, 260, 261, 262, 263, 264, 265, 266, 267, 268, 269, 270, 271, 272, 273, 274, 275, 276, 277, 278, 279, 280, 281, 282, 283, 284, 285, 286, 287, 288, 289, 290, 291, 292, 293, 294, 295, 296, 297, 298, 299, 300, 301, 302, 303, 304, 305, 306, 307, 308, 309, 310, 311, 312, 313, 314, 315, 316, 317, 318, 319, 320, 321, 322, 323, 324, 325, 326, 327, 328, 329, 330, 331, 332, 333, 334, 335, 336, 337, 338, 339, 340, 341, 342, 343, 344, 345, 346, 347, 348, 349, 350, 351, 352, 353, 354, 355, 356, 357, 358, 359, 360, 361, 362, 363, 364, 365, 366, 367, 368, 369, 370, 371, 372, 373, 374, 375, 376, 377, 378, 379, 380, 381, 382, 383, 384, 385, 386, 387, 388, 389, 390, 391, 392, 393, 394, 395, 396, 397, 398, 399, 400, 401, 402, 403, 404, 405, 406, 407, 408, 409, 410, 411, 412, 413, 414, 415, 416, 417, 418, 419, 420, 421, 422, 423, 424, 425, 426, 427, 428, 429, 430, 431, 432, 433, 434, 435, 436, 437, 438, 439, 440, 441, 442, 443, 444, 445, 446, 447, 448, 449, 450, 451, 452, 453, 454, 455, 456, 457, 458, 459, 460, 461, 462, 463, 464, 465, 466, 467, 468, 469, 470, 471, 472, 473, 474, 475, 476, 477, 478, 479, 480, 481, 482, 483, 484, 485, 486, 487, 488, 489, 490, 491, 492, 493, 494, 495, 496, 497, 498, 499, 500, 501, 502, 503, 504, 505, 506, 507, 508, 509, 510, 511, 512, 513, 514, 515, 516, 517, 518, 519, 520, 521, 522, 523, 524, 525, 526, 527, 528, 529, 530, 531, 532, 533, 534, 535, 536, 537, 538, 539, 540, 541, 542, 543, 544, 545, 546, 547, 548, 549, 550, 551, 552, 553, 554, 555, 556, 557, 558, 559, 560, 561, 562, 563, 564, 565, 566, 567, 568, 569, 570, 571, 572, 573, 574, 575, 576, 577, 578, 579, 580, 581],
      "AcquisitionTime": ["160020.742500", "160021.530000", "160022.317500", "160023.105000", "160023.895000", "160024.682500", "160025.470000", "160026.257500", "160027.047500", "160027.835000", "160028.622500", "160029.410000", "160030.200000", "160030.987500", "160031.775000", "160032.562500", "160033.352500", "160034.140000", "160034.927500", "160035.717500", "160036.505000", "160037.292500", "160038.080000", "160038.870000", "160039.657500", "160040.445000", "160041.232500", "160042.022500", "160042.810000", "160043.597500", "160044.385000", "160045.175000", "160045.962500", "160046.750000", "160047.537500", "160048.327500", "160049.115000", "160049.902500", "160050.690000", "160051.480000", "160052.267500", "160053.055000", "160053.845000", "160054.632500", "160055.420000", "160056.207500", "160056.997500", "160057.785000", "160058.572500", "160059.360000", "160100.150000", "160100.937500", "160101.725000", "160102.512500", "160103.302500", "160104.090000", "160104.877500", "160105.665000", "160106.455000", "160107.242500", "160108.030000", "160108.817500", "160109.607500", "160110.395000", "160111.182500", "160111.972500", "160112.760000", "160113.547500", "160114.335000", "160115.125000", "160115.912500", "160116.700000", "160117.487500", "160118.277500", "160119.065000", "160119.852500", "160120.640000", "160121.430000", "160122.217500", "160123.005000", "160123.792500", "160124.582500", "160125.370000", "160126.157500", "160126.945000", "160127.735000", "160128.522500", "160129.310000", "160130.100000", "160130.887500", "160131.675000", "160132.462500", "160133.252500", "160134.040000", "160134.827500", "160135.615000", "160136.405000", "160137.192500", "160137.980000", "160138.767500", "160139.557500", "160140.345000", "160141.132500", "160141.920000", "160142.710000", "160143.497500", "160144.285000", "160145.072500", "160145.862500", "160146.650000", "160147.437500", "160148.227500", "160149.015000", "160149.802500", "160150.590000", "160151.380000", "160152.167500", "160152.955000", "160153.742500", "160154.532500", "160155.320000", "160156.107500", "160156.895000", "160157.685000", "160158.472500", "160159.260000", "160200.047500", "160200.837500", "160201.625000", "160202.412500", "160203.200000", "160203.990000", "160204.777500", "160205.565000", "160206.355000", "160207.142500", "160207.930000", "160208.717500", "160209.507500", "160210.295000", "160211.082500", "160211.870000", "160212.660000", "160213.447500", "160214.235000", "160215.022500", "160215.812500", "160216.600000", "160217.387500", "160218.175000", "160218.965000", "160219.752500", "160220.540000", "160221.327500", "160222.117500", "160222.905000", "160223.692500", "160224.482500", "160225.270000", "160226.057500", "160226.845000", "160227.635000", "160228.422500", "160229.210000", "160229.997500", "160230.787500", "160231.575000", "160232.362500", "160233.150000", "160233.940000", "160234.727500", "160235.515000", "160236.302500", "160237.092500", "160237.880000", "160238.667500", "160239.455000", "160240.245000", "160241.032500", "160241.820000", "160242.610000", "160243.397500", "160244.185000", "160244.972500", "160245.762500", "160246.550000", "160247.337500", "160248.125000", "160248.915000", "160249.702500", "160250.490000", "160251.277500", "160252.067500", "160252.855000", "160253.642500", "160254.430000", "160255.220000", "160256.007500", "160256.795000", "160257.582500", "160258.372500", "160259.160000", "160259.947500", "160300.737500", "160301.525000", "160302.312500", "160303.100000", "160303.890000", "160304.677500", "160305.465000", "160306.252500", "160307.042500", "160307.830000", "160308.617500", "160309.405000", "160310.195000", "160310.982500", "160311.770000", "160312.557500", "160313.347500", "160314.135000", "160314.922500", "160315.712500", "160316.500000", "160317.287500", "160318.075000", "160318.865000", "160319.652500", "160320.440000", "160321.227500", "160322.017500", "160322.805000", "160323.592500", "160324.380000", "160325.170000", "160325.957500", "160326.745000", "160327.532500", "160328.322500", "160329.110000", "160329.897500", "160330.685000", "160331.475000", "160332.262500", "160333.050000", "160333.840000", "160334.627500", "160335.415000", "160336.202500", "160336.992500", "160337.780000", "160338.567500", "160339.355000", "160340.145000", "160340.932500", "160341.720000", "160342.507500", "160343.297500", "160344.085000", "160344.872500", "160345.660000", "160346.450000", "160347.237500", "160348.025000", "160348.812500", "160349.602500", "160350.390000", "160351.177500", "160351.967500", "160352.755000", "160353.542500", "160354.330000", "160355.120000", "160355.907500", "160356.695000", "160357.482500", "160358.272500", "160359.060000", "160359.847500", "160400.635000", "160401.425000", "160402.212500", "160403.000000", "160403.787500", "160404.577500", "160405.365000", "160406.152500", "160406.940000", "160407.730000", "160408.517500", "160409.305000", "160410.095000", "160410.882500", "160411.670000", "160412.457500", "160413.247500", "160414.035000", "160414.822500", "160415.610000", "160416.400000", "160417.187500", "160417.975000", "160418.762500", "160419.552500", "160420.340000", "160421.127500", "160421.915000", "160422.705000", "160423.492500", "160424.280000", "160425.067500", "160425.857500", "160426.645000", "160427.432500", "160428.222500", "160429.010000", "160429.797500", "160430.585000", "160431.375000", "160432.162500", "160432.950000", "160433.737500", "160434.527500", "160435.315000", "160436.102500", "160436.890000", "160437.680000", "160438.467500", "160439.255000", "160440.042500", "160440.832500", "160441.620000", "160442.407500", "160443.195000", "160443.985000", "160444.772500", "160445.560000", "160446.350000", "160447.137500", "160447.925000", "160448.712500", "160449.502500", "160450.290000", "160451.077500", "160451.865000", "160452.655000", "160453.442500", "160454.230000", "160455.017500", "160455.807500", "160456.595000", "160457.382500", "160458.170000", "160458.960000", "160459.747500", "160500.535000", "160501.322500", "160502.112500", "160502.900000", "160503.687500", "160504.477500", "160505.265000", "160506.052500", "160506.840000", "160507.630000", "160508.417500", "160509.205000", "160509.992500", "160510.782500", "160511.570000", "160512.357500", "160513.145000", "160513.935000", "160514.722500", "160515.510000", "160516.297500", "160517.087500", "160517.875000", "160518.662500", "160519.450000", "160520.240000", "160521.027500", "160521.815000", "160522.605000", "160523.392500", "160524.180000", "160524.967500", "160525.757500", "160526.545000", "160527.332500", "160528.120000", "160528.910000", "160529.697500", "160530.485000", "160531.272500", "160532.062500", "160532.850000", "160533.637500", "160534.425000", "160535.215000", "160536.002500", "160536.790000", "160537.577500", "160538.367500", "160539.155000", "160539.942500", "160540.732500", "160541.520000", "160542.307500", "160543.095000", "160543.885000", "160544.672500", "160545.460000", "160546.247500", "160547.037500", "160547.825000", "160548.612500", "160549.400000", "160550.190000", "160550.977500", "160551.765000", "160552.552500", "160553.342500", "160554.130000", "160554.917500", "160555.705000", "160556.495000", "160557.282500", "160558.070000", "160558.860000", "160559.647500", "160600.435000", "160601.222500", "160602.012500", "160602.800000", "160603.587500", "160604.375000", "160605.165000", "160605.952500", "160606.740000", "160607.527500", "160608.317500", "160609.105000", "160609.892500", "160610.680000", "160611.470000", "160612.257500", "160613.045000", "160613.832500", "160614.622500", "160615.410000", "160616.197500", "160616.987500", "160617.775000", "160618.562500", "160619.350000", "160620.140000", "160620.927500", "160621.715000", "160622.502500", "160623.292500", "160624.080000", "160624.867500", "160625.655000", "160626.445000", "160627.232500", "160628.020000", "160628.807500", "160629.597500", "160630.385000", "160631.172500", "160631.962500", "160632.750000", "160633.537500", "160634.325000", "160635.115000", "160635.902500", "160636.690000", "160637.477500", "160638.267500", "160639.055000", "160639.842500", "160640.630000", "160641.420000", "160642.207500", "160642.995000", "160643.782500", "160644.572500", "160645.360000", "160646.147500", "160646.935000", "160647.725000", "160648.512500", "160649.300000", "160650.090000", "160650.877500", "160651.665000", "160652.452500", "160653.242500", "160654.030000", "160654.817500", "160655.605000", "160656.395000", "160657.182500", "160657.970000", "160658.757500", "160659.547500", "160700.335000", "160701.122500", "160701.910000", "160702.700000", "160703.487500", "160704.275000", "160705.062500", "160705.852500", "160706.640000", "160707.427500", "160708.217500", "160709.005000", "160709.792500", "160710.580000", "160711.370000", "160712.157500", "160712.945000", "160713.732500", "160714.522500", "160715.310000", "160716.097500", "160716.885000", "160717.675000", "160718.462500", "160719.250000", "160720.037500", "160720.827500", "160721.615000", "160722.402500", "160723.190000", "160723.980000", "160724.767500", "160725.555000", "160726.345000", "160727.132500", "160727.920000", "160728.707500", "160729.497500", "160730.285000", "160731.072500", "160731.860000", "160732.650000", "160733.437500", "160734.225000", "160735.012500", "160735.802500", "160736.590000", "160737.377500", "160738.165000", "160738.955000", "160739.742500", "160740.530000", "160741.317500", "160742.107500", "160742.895000", "160743.682500", "160744.472500", "160745.260000", "160746.047500", "160746.835000", "160747.625000", "160748.412500", "160749.200000", "160749.987500", "160750.777500", "160751.565000", "160752.352500", "160753.140000", "160753.930000", "160754.717500", "160755.505000", "160756.292500", "160757.082500", "160757.870000"],
      "ContentTime": ["160054.140000", "160054.156000", "160054.156000", "160054.156000", "160054.156000", "160054.156000", "160054.156000", "160054.171000", "160054.171000", "160054.171000", "160054.171000", "160054.171000", "160054.171000", "160054.187000", "160054.187000", "160054.187000", "160054.187000", "160054.187000", "160054.187000", "160054.187000", "160054.203000", "160054.203000", "160054.203000", "160054.203000", "160054.203000", "160054.203000", "160054.203000", "160054.218000", "160054.218000", "160054.218000", "160054.218000", "160054.218000", "160054.218000", "160054.218000", "160054.234000", "160054.234000", "160054.234000", "160054.234000", "160054.234000", "160054.234000", "160114.125000", "160114.125000", "160114.125000", "160114.125000", "160114.125000", "160114.125000", "160114.140000", "160114.140000", "160114.140000", "160114.140000", "160114.140000", "160114.140000", "160114.140000", "160114.140000", "160114.156000", "160114.156000", "160114.156000", "160114.156000", "160114.156000", "160114.156000", "160114.171000", "160114.171000", "160114.171000", "160114.171000", "160114.187000", "160114.187000", "160134.125000", "160134.125000", "160134.125000", "160134.125000", "160134.125000", "160134.125000", "160134.125000", "160134.140000", "160134.140000", "160134.140000", "160134.140000", "160134.140000", "160134.140000", "160134.156000", "160134.156000", "160134.156000", "160134.156000", "160134.156000", "160134.156000", "160134.156000", "160134.171000", "160134.171000", "160134.171000", "160134.171000", "160134.187000", "160154.125000", "160154.125000", "160154.125000", "160154.125000", "160154.140000", "160154.140000", "160154.140000", "160154.140000", "160154.140000", "160154.140000", "160154.140000", "160154.156000", "160154.156000", "160154.156000", "160154.156000", "160154.156000", "160154.156000", "160154.156000", "160154.171000", "160154.171000", "160154.171000", "160154.171000", "160154.171000", "160154.187000", "160154.187000", "160154.187000", "160214.125000", "160214.125000", "160214.125000", "160214.125000", "160214.140000", "160214.140000", "160214.140000", "160214.140000", "160214.140000", "160214.156000", "160214.156000", "160214.156000", "160214.156000", "160214.156000", "160214.156000", "160214.156000", "160214.171000", "160214.171000", "160214.171000", "160214.171000", "160214.171000", "160214.171000", "160214.187000", "160214.187000", "160214.187000", "160234.125000", "160234.125000", "160234.125000", "160234.125000", "160234.125000", "160234.125000", "160234.125000", "160234.140000", "160234.140000", "160234.140000", "160234.140000", "160234.140000", "160234.140000", "160234.156000", "160234.156000", "160234.156000", "160234.156000", "160234.156000", "160234.156000", "160234.156000", "160234.171000", "160234.171000", "160234.171000", "160234.171000", "160234.171000", "160234.171000", "160254.125000", "160254.125000", "160254.125000", "160254.125000", "160254.125000", "160254.125000", "160254.125000", "160254.140000", "160254.140000", "160254.140000", "160254.140000", "160254.140000", "160254.140000", "160254.156000", "160254.156000", "160254.156000", "160254.156000", "160254.156000", "160254.156000", "160254.156000", "160254.171000", "160254.171000", "160254.171000", "160254.171000", "160254.171000", "160314.125000", "160314.125000", "160314.125000", "160314.125000", "160314.125000", "160314.125000", "160314.140000", "160314.140000", "160314.140000", "160314.140000", "160314.140000", "160314.140000", "160314.140000", "160314.156000", "160314.156000", "160314.156000", "160314.156000", "160314.156000", "160314.156000", "160314.171000", "160314.171000", "160314.171000", "160314.171000", "160314.171000", "160314.171000", "160314.171000", "160334.125000", "160334.125000", "160334.125000", "160334.125000", "160334.125000", "160334.125000", "160334.140000", "160334.140000", "160334.140000", "160334.140000", "160334.140000", "160334.140000", "160334.140000", "160334.156000", "160334.156000", "160334.156000", "160334.156000", "160334.156000", "160334.156000", "160334.156000", "160334.171000", "160334.171000", "160334.171000", "160334.171000", "160334.171000", "160354.125000", "160354.125000", "160354.125000", "160354.125000", "160354.125000", "160354.125000", "160354.140000", "160354.140000", "160354.140000", "160354.140000", "160354.140000", "160354.140000", "160354.140000", "160354.156000", "160354.156000", "160354.156000", "160354.156000", "160354.156000", "160354.156000", "160354.156000", "160354.171000", "160354.171000", "160354.171000", "160354.171000", "160354.171000", "160414.125000", "160414.125000", "160414.125000", "160414.125000", "160414.125000", "160414.125000", "160414.140000", "160414.140000", "160414.140000", "160414.140000", "160414.140000", "160414.156000", "160414.156000", "160414.156000", "160414.156000", "160414.156000", "160414.156000", "160414.156000", "160414.171000", "160414.171000", "160414.171000", "160414.171000", "160414.187000", "160414.187000", "160414.187000", "160414.187000", "160434.125000", "160434.125000", "160434.125000", "160434.125000", "160434.140000", "160434.140000", "160434.140000", "160434.140000", "160434.140000", "160434.140000", "160434.156000", "160434.156000", "160434.156000", "160434.156000", "160434.156000", "160434.156000", "160434.156000", "160434.171000", "160434.171000", "160434.171000", "160434.171000", "160434.171000", "160434.171000", "160434.171000", "160434.187000", "160454.125000", "160454.125000", "160454.125000", "160454.125000", "160454.125000", "160454.125000", "160454.140000", "160454.140000", "160454.140000", "160454.140000", "160454.140000", "160454.140000", "160454.140000", "160454.156000", "160454.156000", "160454.156000", "160454.156000", "160454.156000", "160454.156000", "160454.156000", "160454.171000", "160454.171000", "160454.171000", "160454.171000", "160454.171000", "160454.171000", "160514.125000", "160514.125000", "160514.125000", "160514.125000", "160514.125000", "160514.125000", "160514.140000", "160514.140000", "160514.140000", "160514.140000", "160514.140000", "160514.156000", "160514.156000", "160514.156000", "160514.156000", "160514.156000", "160514.156000", "160514.156000", "160514.171000", "160514.171000", "160514.171000", "160514.171000", "160514.171000", "160514.187000", "160514.187000", "160534.125000", "160534.125000", "160534.125000", "160534.125000", "160534.125000", "160534.125000", "160534.125000", "160534.140000", "160534.140000", "160534.140000", "160534.140000", "160534.140000", "160534.140000", "160534.156000", "160534.156000", "160534.156000", "160534.156000", "160534.171000", "160534.171000", "160534.171000", "160534.171000", "160534.171000", "160534.171000", "160534.171000", "160534.187000", "160534.187000", "160554.125000", "160554.125000", "160554.125000", "160554.125000", "160554.125000", "160554.125000", "160554.140000", "160554.140000", "160554.140000", "160554.140000", "160554.140000", "160554.140000", "160554.140000", "160554.156000", "160554.156000", "160554.156000", "160554.156000", "160554.156000", "160554.171000", "160554.171000", "160554.171000", "160554.171000", "160554.171000", "160554.171000", "160554.171000", "160614.125000", "160614.125000", "160614.125000", "160614.125000", "160614.125000", "160614.125000", "160614.125000", "160614.140000", "160614.140000", "160614.140000", "160614.140000", "160614.140000", "160614.140000", "160614.156000", "160614.156000", "160614.156000", "160614.156000", "160614.156000", "160614.156000", "160614.156000", "160614.171000", "160614.171000", "160614.171000", "160614.171000", "160614.171000", "160614.171000", "160634.125000", "160634.125000", "160634.125000", "160634.125000", "160634.125000", "160634.125000", "160634.125000", "160634.140000", "160634.140000", "160634.140000", "160634.140000", "160634.140000", "160634.140000", "160634.156000", "160634.156000", "160634.156000", "160634.156000", "160634.156000", "160634.156000", "160634.156000", "160634.171000", "160634.171000", "160634.171000", "160634.171000", "160634.171000", "160654.125000", "160654.125000", "160654.125000", "160654.125000", "160654.125000", "160654.125000", "160654.125000", "160654.140000", "160654.140000", "160654.140000", "160654.140000", "160654.140000", "160654.140000", "160654.156000", "160654.156000", "160654.156000", "160654.156000", "160654.156000", "160654.171000", "160654.171000", "160654.171000", "160654.171000", "160654.171000", "160654.171000", "160654.171000", "160654.187000", "160714.125000", "160714.125000", "160714.125000", "160714.125000", "160714.125000", "160714.125000", "160714.140000", "160714.140000", "160714.140000", "160714.140000", "160714.140000", "160714.140000", "160714.140000", "160714.156000", "160714.156000", "160714.156000", "160714.156000", "160714.156000", "160714.156000", "160714.156000", "160714.171000", "160714.171000", "160714.171000", "160714.171000", "160714.171000", "160734.125000", "160734.125000", "160734.125000", "160734.125000", "160734.125000", "160734.125000", "160734.140000", "160734.140000", "160734.140000", "160734.140000", "160734.140000", "160734.140000", "160734.140000", "160734.156000", "160734.156000", "160734.156000", "160734.156000", "160734.156000", "160734.156000", "160734.156000", "160734.171000", "160734.171000", "160734.171000", "160734.171000", "160734.171000", "160734.171000", "160754.125000", "160754.125000", "160754.125000", "160754.125000", "160754.125000", "160754.125000", "160754.140000", "160754.140000", "160754.140000", "160754.140000", "160754.140000", "160754.140000", "160754.140000", "160754.156000", "160754.156000", "160754.156000", "160754.156000", "160754.156000", "160754.156000", "160754.156000", "160754.171000", "160754.171000", "160754.171000", "160754.171000", "160754.171000", "160758.328000", "160758.328000", "160758.328000", "160758.328000", "160758.328000", "160758.343000"],
      "DataSetTrailingPadding": [
        "\u0000\u0000\u0000\u0000\u0000\u0000\u0000\u0000\u0000\u0000\u0000\u0000\u0000\u0000\u0000\u0000\u0000\u0000\u0000\u0000\u0000\u0000\u0000\u0000\u0000\u0000\u0000\u0000\u0000\u0000\u0000\u0000\u0000\u0000\u0000\u0000\u0000\u0000\u0000\u0000\u0000\u0000\u0000\u0000\u0000\u0000\u0000\u0000\u0000\u0000\u0000\u0000\u0000\u0000\u0000\u0000\u0000\u0000\u0000\u0000\u0000\u0000\u0000\u0000\u0000\u0000\u0000\u0000\u0000\u0000",
        "\u0000\u0000\u0000\u0000\u0000\u0000\u0000\u0000\u0000\u0000\u0000\u0000\u0000\u0000\u0000\u0000\u0000\u0000\u0000\u0000\u0000\u0000\u0000\u0000\u0000\u0000\u0000\u0000\u0000\u0000\u0000\u0000\u0000\u0000\u0000\u0000\u0000\u0000\u0000\u0000\u0000\u0000\u0000\u0000\u0000\u0000\u0000\u0000\u0000\u0000\u0000\u0000\u0000\u0000\u0000\u0000\u0000\u0000\u0000\u0000\u0000\u0000\u0000\u0000\u0000\u0000",
        "\u0000\u0000\u0000\u0000\u0000\u0000\u0000\u0000\u0000\u0000\u0000\u0000\u0000\u0000\u0000\u0000\u0000\u0000\u0000\u0000\u0000\u0000\u0000\u0000\u0000\u0000\u0000\u0000\u0000\u0000\u0000\u0000\u0000\u0000\u0000\u0000\u0000\u0000\u0000\u0000\u0000\u0000\u0000\u0000\u0000\u0000\u0000\u0000\u0000\u0000\u0000\u0000\u0000\u0000\u0000\u0000\u0000\u0000\u0000\u0000\u0000\u0000\u0000\u0000\u0000\u0000\u0000\u0000",
        "\u0000\u0000\u0000\u0000\u0000\u0000\u0000\u0000\u0000\u0000\u0000\u0000\u0000\u0000\u0000\u0000\u0000\u0000\u0000\u0000\u0000\u0000\u0000\u0000\u0000\u0000\u0000\u0000\u0000\u0000\u0000\u0000\u0000\u0000\u0000\u0000\u0000\u0000\u0000\u0000\u0000\u0000\u0000\u0000\u0000\u0000\u0000\u0000\u0000\u0000\u0000\u0000\u0000\u0000\u0000\u0000\u0000\u0000\u0000\u0000\u0000\u0000\u0000\u0000\u0000\u0000",
