{
  "AcquisitionMatrixPE": 104,
  "AcquisitionNumber": 1,
  "AcquisitionTime": "15:30:41.177500",
  "BandwidthPerPixelPhaseEncode": 13.935,
  "BaseResolution": 104,
  "CoilString": "C:HEA;HEP",
  "ConversionSoftware": "dcm2niix",
  "ConversionSoftwareVersion": "v1.0.20210317",
  "DerivedVendorReportedEchoSpacing": 0.000690017,
  "DeviceSerialNumber": "35450",
  "DwellTime": 2.5e-06,
  "EchoTime": 0.0348,
  "EffectiveEchoSpacing": 0.000690017,
  "FlipAngle": 55,
  "ImageComments": "Unaliased MB8/PE3 (remote)",
  "ImageOrientationPatientDICOM": [0.999917, -0.00033762, -0.012896, 2.42565e-08, 0.999658, -0.0261695],
  "ImageType": [
    "ORIGINAL",
    "PRIMARY",
    "M",
    "MB",
    "ND",
    "MOSAIC"
],
  "ImagingFrequency": 123.234,
  "InPlanePhaseEncodingDirectionDICOM": "COL",
  "InstitutionAddress": "Univeristy Ave. 197,Newark,North East,US,07102-1814",
  "InstitutionName": "RUBIC",
  "InstitutionalDepartmentName": "Department",
  "MRAcquisitionType": "2D",
  "MagneticFieldStrength": 3,
  "Manufacturer": "Siemens",
  "ManufacturersModelName": "TrioTim",
  "Modality": "MR",
  "MultibandAccelerationFactor": 8,
  "PartialFourier": 0.875,
  "PatientPosition": "HFS",
  "PercentPhaseFOV": 100,
  "PercentSampling": 100,
  "PhaseEncodingDirection": "j-",
  "PhaseEncodingSteps": 91,
  "PhaseResolution": 1,
  "PixelBandwidth": 1923,
  "ProcedureStepDescription": "Cole^Michael",
  "ProtocolName": "cmrr_mbep2d_bold_2mm_MB8_Rest",
  "PulseSequenceDetails": "%CustomerSeq%\\cmrr_mbep2d_bold",
  "ReceiveCoilName": "32Ch_Head",
  "ReconMatrixPE": 104,
  "RepetitionTime": 0.785,
  "SAR": 0.11972,
  "ScanOptions": "PFP\\FS",
  "ScanningSequence": "EP",
  "SequenceName": "epfid2d1_104",
  "SequenceVariant": "SK\\SS",
  "SeriesDescription": "cmrr_mbep2d_bold_2mm_MB8_Rest",
  "SeriesNumber": 9,
  "ShimSetting": [2064, -432, -7322, 689, -50, -132, 311, 117],
  "SliceThickness": 2,
  "SliceTiming": [0, 0.4375, 0.0875, 0.525, 0.175, 0.6125, 0.2625, 0.7, 0.35, 0, 0.4375, 0.0875, 0.525, 0.175, 0.6125, 0.2625, 0.7, 0.35, 0, 0.4375, 0.0875, 0.525, 0.175, 0.6125, 0.2625, 0.7, 0.35, 0, 0.4375, 0.0875, 0.525, 0.175, 0.6125, 0.2625, 0.7, 0.35, 0, 0.4375, 0.0875, 0.525, 0.175, 0.6125, 0.2625, 0.7, 0.35, 0, 0.4375, 0.0875, 0.525, 0.175, 0.6125, 0.2625, 0.7, 0.35, 0, 0.4375, 0.0875, 0.525, 0.175, 0.6125, 0.2625, 0.7, 0.35, 0, 0.4375, 0.0875, 0.525, 0.175, 0.6125, 0.2625, 0.7, 0.35],
  "SoftwareVersions": "syngo MR B19",
  "SpacingBetweenSlices": 2,
  "StationName": "MRC35450",
  "TaskName": "rest",
  "TotalReadoutTime": 0.0710717,
  "TxRefAmp": 313.071,
  "dcmmeta_affine": [
    [-1.999833583831787, 4.851301937947028e-08, -0.02580077387392521, 104.28946685791016],
    [0.0006752407061867416, 1.9993150234222412, -0.052334558218717575, -84.8324203491211],
    [-0.025791935622692108, 0.05233891308307648, 1.9991487264633179, -83.8442153930664],
    [0.0, 0.0, 0.0, 1.0]
],
  "dcmmeta_reorient_transform": [
    [0.0, -1.0, 0.0, 103.0],
    [1.0, 0.0, 0.0, 0.0],
    [0.0, 0.0, 1.0, 0.0],
    [0.0, 0.0, 0.0, 1.0]
],
  "dcmmeta_shape": [104, 104, 72, 1070],
  "dcmmeta_slice_dim": 2,
  "dcmmeta_version": 0.6,
  "global": {
    "const": {
      "AcquisitionMatrix": [104, 0, 0, 104],
      "AngioFlag": "N",
      "BitsAllocated": 16,
      "BitsStored": 12,
      "Columns": 936,
      "EchoNumbers": 1,
      "EchoTime": 34.8,
      "EchoTrainLength": 1,
      "FlipAngle": 55.0,
      "HighBit": 11,
      "ImageOrientationPatient": [0.99991678654841, -0.0003376203603, -0.0128959680208, 2.4256509e-08, 0.99965752111952, -0.0261694567995],
      "ImagePositionPatient": [-936.22025839229, -952.53118986694, -45.950875649448],
      "ImageType": [
        "ORIGINAL",
        "PRIMARY",
        "M",
        "MB",
        "ND",
        "MOSAIC"
],
      "ImagedNucleus": "1H",
      "ImagingFrequency": 123.234376,
      "InPlanePhaseEncodingDirection": "COL",
      "MRAcquisitionType": "2D",
      "MagneticFieldStrength": 3.0,
      "Manufacturer": "SIEMENS",
      "ManufacturerModelName": "TrioTim",
      "Modality": "MR",
      "NumberOfAverages": 1.0,
      "NumberOfPhaseEncodingSteps": 91,
      "PercentPhaseFieldOfView": 100.0,
      "PercentSampling": 100.0,
      "PerformedProcedureStepStartTime": "144207.140000",
      "PhotometricInterpretation": "MONOCHROME2",
      "PixelBandwidth": 1923.0,
      "PixelRepresentation": 0,
      "PixelSpacing": [2.0, 2.0],
      "ProtocolName": "cmrr_mbep2d_bold_2mm_MB8_Rest",
      "RepetitionTime": 785.0,
      "Rows": 936,
      "SAR": 0.11972031063022,
      "SamplesPerPixel": 1,
      "ScanOptions": [
        "PFP",
        "FS"
],
      "ScanningSequence": "EP",
      "SequenceName": "epfid2d1_104",
      "SequenceVariant": [
        "SK",
        "SS"
],
      "SeriesDescription": "cmrr_mbep2d_bold_2mm_MB8_Rest",
      "SeriesNumber": 9,
      "SeriesTime": "153105.968000",
      "SliceLocation": -82.934068700058,
      "SliceThickness": 2.0,
      "SmallestImagePixelValue": 0,
      "SoftwareVersions": "syngo MR B19",
      "SpacingBetweenSlices": 2.0000000057387,
      "SpecificCharacterSet": "ISO_IR 100",
      "StudyID": "1",
      "StudyTime": "144207.093000",
      "TransmitCoilName": "Body",
      "VariableFlipAngleFlag": "N",
      "WindowCenterWidthExplanation": "Algo1",
      "dBdt": 0.0},
    "slices": {}
  },
  "time": {
    "samples": {
      "AcquisitionNumber": [1, 2, 3, 4, 5, 6, 7, 8, 9, 10, 11, 12, 13, 14, 15, 16, 17, 18, 19, 20, 21, 22, 23, 24, 25, 26, 27, 28, 29, 30, 31, 32, 33, 34, 35, 36, 37, 38, 39, 40, 41, 42, 43, 44, 45, 46, 47, 48, 49, 50, 51, 52, 53, 54, 55, 56, 57, 58, 59, 60, 61, 62, 63, 64, 65, 66, 67, 68, 69, 70, 71, 72, 73, 74, 75, 76, 77, 78, 79, 80, 81, 82, 83, 84, 85, 86, 87, 88, 89, 90, 91, 92, 93, 94, 95, 96, 97, 98, 99, 100, 101, 102, 103, 104, 105, 106, 107, 108, 109, 110, 111, 112, 113, 114, 115, 116, 117, 118, 119, 120, 121, 122, 123, 124, 125, 126, 127, 128, 129, 130, 131, 132, 133, 134, 135, 136, 137, 138, 139, 140, 141, 142, 143, 144, 145, 146, 147, 148, 149, 150, 151, 152, 153, 154, 155, 156, 157, 158, 159, 160, 161, 162, 163, 164, 165, 166, 167, 168, 169, 170, 171, 172, 173, 174, 175, 176, 177, 178, 179, 180, 181, 182, 183, 184, 185, 186, 187, 188, 189, 190, 191, 192, 193, 194, 195, 196, 197, 198, 199, 200, 201, 202, 203, 204, 205, 206, 207, 208, 209, 210, 211, 212, 213, 214, 215, 216, 217, 218, 219, 220, 221, 222, 223, 224, 225, 226, 227, 228, 229, 230, 231, 232, 233, 234, 235, 236, 237, 238, 239, 240, 241, 242, 243, 244, 245, 246, 247, 248, 249, 250, 251, 252, 253, 254, 255, 256, 257, 258, 259, 260, 261, 262, 263, 264, 265, 266, 267, 268, 269, 270, 271, 272, 273, 274, 275, 276, 277, 278, 279, 280, 281, 282, 283, 284, 285, 286, 287, 288, 289, 290, 291, 292, 293, 294, 295, 296, 297, 298, 299, 300, 301, 302, 303, 304, 305, 306, 307, 308, 309, 310, 311, 312, 313, 314, 315, 316, 317, 318, 319, 320, 321, 322, 323, 324, 325, 326, 327, 328, 329, 330, 331, 332, 333, 334, 335, 336, 337, 338, 339, 340, 341, 342, 343, 344, 345, 346, 347, 348, 349, 350, 351, 352, 353, 354, 355, 356, 357, 358, 359, 360, 361, 362, 363, 364, 365, 366, 367, 368, 369, 370, 371, 372, 373, 374, 375, 376, 377, 378, 379, 380, 381, 382, 383, 384, 385, 386, 387, 388, 389, 390, 391, 392, 393, 394, 395, 396, 397, 398, 399, 400, 401, 402, 403, 404, 405, 406, 407, 408, 409, 410, 411, 412, 413, 414, 415, 416, 417, 418, 419, 420, 421, 422, 423, 424, 425, 426, 427, 428, 429, 430, 431, 432, 433, 434, 435, 436, 437, 438, 439, 440, 441, 442, 443, 444, 445, 446, 447, 448, 449, 450, 451, 452, 453, 454, 455, 456, 457, 458, 459, 460, 461, 462, 463, 464, 465, 466, 467, 468, 469, 470, 471, 472, 473, 474, 475, 476, 477, 478, 479, 480, 481, 482, 483, 484, 485, 486, 487, 488, 489, 490, 491, 492, 493, 494, 495, 496, 497, 498, 499, 500, 501, 502, 503, 504, 505, 506, 507, 508, 509, 510, 511, 512, 513, 514, 515, 516, 517, 518, 519, 520, 521, 522, 523, 524, 525, 526, 527, 528, 529, 530, 531, 532, 533, 534, 535, 536, 537, 538, 539, 540, 541, 542, 543, 544, 545, 546, 547, 548, 549, 550, 551, 552, 553, 554, 555, 556, 557, 558, 559, 560, 561, 562, 563, 564, 565, 566, 567, 568, 569, 570, 571, 572, 573, 574, 575, 576, 577, 578, 579, 580, 581, 582, 583, 584, 585, 586, 587, 588, 589, 590, 591, 592, 593, 594, 595, 596, 597, 598, 599, 600, 601, 602, 603, 604, 605, 606, 607, 608, 609, 610, 611, 612, 613, 614, 615, 616, 617, 618, 619, 620, 621, 622, 623, 624, 625, 626, 627, 628, 629, 630, 631, 632, 633, 634, 635, 636, 637, 638, 639, 640, 641, 642, 643, 644, 645, 646, 647, 648, 649, 650, 651, 652, 653, 654, 655, 656, 657, 658, 659, 660, 661, 662, 663, 664, 665, 666, 667, 668, 669, 670, 671, 672, 673, 674, 675, 676, 677, 678, 679, 680, 681, 682, 683, 684, 685, 686, 687, 688, 689, 690, 691, 692, 693, 694, 695, 696, 697, 698, 699, 700, 701, 702, 703, 704, 705, 706, 707, 708, 709, 710, 711, 712, 713, 714, 715, 716, 717, 718, 719, 720, 721, 722, 723, 724, 725, 726, 727, 728, 729, 730, 731, 732, 733, 734, 735, 736, 737, 738, 739, 740, 741, 742, 743, 744, 745, 746, 747, 748, 749, 750, 751, 752, 753, 754, 755, 756, 757, 758, 759, 760, 761, 762, 763, 764, 765, 766, 767, 768, 769, 770, 771, 772, 773, 774, 775, 776, 777, 778, 779, 780, 781, 782, 783, 784, 785, 786, 787, 788, 789, 790, 791, 792, 793, 794, 795, 796, 797, 798, 799, 800, 801, 802, 803, 804, 805, 806, 807, 808, 809, 810, 811, 812, 813, 814, 815, 816, 817, 818, 819, 820, 821, 822, 823, 824, 825, 826, 827, 828, 829, 830, 831, 832, 833, 834, 835, 836, 837, 838, 839, 840, 841, 842, 843, 844, 845, 846, 847, 848, 849, 850, 851, 852, 853, 854, 855, 856, 857, 858, 859, 860, 861, 862, 863, 864, 865, 866, 867, 868, 869, 870, 871, 872, 873, 874, 875, 876, 877, 878, 879, 880, 881, 882, 883, 884, 885, 886, 887, 888, 889, 890, 891, 892, 893, 894, 895, 896, 897, 898, 899, 900, 901, 902, 903, 904, 905, 906, 907, 908, 909, 910, 911, 912, 913, 914, 915, 916, 917, 918, 919, 920, 921, 922, 923, 924, 925, 926, 927, 928, 929, 930, 931, 932, 933, 934, 935, 936, 937, 938, 939, 940, 941, 942, 943, 944, 945, 946, 947, 948, 949, 950, 951, 952, 953, 954, 955, 956, 957, 958, 959, 960, 961, 962, 963, 964, 965, 966, 967, 968, 969, 970, 971, 972, 973, 974, 975, 976, 977, 978, 979, 980, 981, 982, 983, 984, 985, 986, 987, 988, 989, 990, 991, 992, 993, 994, 995, 996, 997, 998, 999, 1000, 1001, 1002, 1003, 1004, 1005, 1006, 1007, 1008, 1009, 1010, 1011, 1012, 1013, 1014, 1015, 1016, 1017, 1018, 1019, 1020, 1021, 1022, 1023, 1024, 1025, 1026, 1027, 1028, 1029, 1030, 1031, 1032, 1033, 1034, 1035, 1036, 1037, 1038, 1039, 1040, 1041, 1042, 1043, 1044, 1045, 1046, 1047, 1048, 1049, 1050, 1051, 1052, 1053, 1054, 1055, 1056, 1057, 1058, 1059, 1060, 1061, 1062, 1063, 1064, 1065, 1066, 1067, 1068, 1069, 1070],
      "AcquisitionTime": ["153041.177500", "153041.965000", "153042.755000", "153043.542500", "153044.330000", "153045.117500", "153045.907500", "153046.695000", "153047.482500", "153048.270000", "153049.060000", "153049.847500", "153050.635000", "153051.422500", "153052.212500", "153053.000000", "153053.787500", "153054.577500", "153055.365000", "153056.152500", "153056.940000", "153057.730000", "153058.517500", "153059.305000", "153100.092500", "153100.882500", "153101.670000", "153102.457500", "153103.245000", "153104.035000", "153104.822500", "153105.610000", "153106.397500", "153107.187500", "153107.975000", "153108.762500", "153109.550000", "153110.340000", "153111.127500", "153111.915000", "153112.705000", "153113.492500", "153114.280000", "153115.067500", "153115.857500", "153116.645000", "153117.432500", "153118.220000", "153119.010000", "153119.797500", "153120.585000", "153121.372500", "153122.162500", "153122.950000", "153123.737500", "153124.525000", "153125.315000", "153126.102500", "153126.890000", "153127.677500", "153128.467500", "153129.255000", "153130.042500", "153130.832500", "153131.620000", "153132.407500", "153133.195000", "153133.985000", "153134.772500", "153135.560000", "153136.347500", "153137.137500", "153137.925000", "153138.712500", "153139.500000", "153140.290000", "153141.077500", "153141.865000", "153142.652500", "153143.442500", "153144.230000", "153145.017500", "153145.805000", "153146.595000", "153147.382500", "153148.170000", "153148.960000", "153149.747500", "153150.535000", "153151.322500", "153152.112500", "153152.900000", "153153.687500", "153154.475000", "153155.265000", "153156.052500", "153156.840000", "153157.627500", "153158.417500", "153159.205000", "153159.992500", "153200.780000", "153201.570000", "153202.357500", "153203.145000", "153203.932500", "153204.722500", "153205.510000", "153206.297500", "153207.087500", "153207.875000", "153208.662500", "153209.450000", "153210.240000", "153211.027500", "153211.815000", "153212.602500", "153213.392500", "153214.180000", "153214.967500", "153215.755000", "153216.545000", "153217.332500", "153218.120000", "153218.907500", "153219.697500", "153220.485000", "153221.272500", "153222.062500", "153222.850000", "153223.637500", "153224.425000", "153225.215000", "153226.002500", "153226.790000", "153227.577500", "153228.367500", "153229.155000", "153229.942500", "153230.730000", "153231.520000", "153232.307500", "153233.095000", "153233.882500", "153234.672500", "153235.460000", "153236.247500", "153237.035000", "153237.825000", "153238.612500", "153239.400000", "153240.190000", "153240.977500", "153241.765000", "153242.552500", "153243.342500", "153244.130000", "153244.917500", "153245.705000", "153246.495000", "153247.282500", "153248.070000", "153248.857500", "153249.647500", "153250.435000", "153251.222500", "153252.010000", "153252.800000", "153253.587500", "153254.375000", "153255.162500", "153255.952500", "153256.740000", "153257.527500", "153258.317500", "153259.105000", "153259.892500", "153300.680000", "153301.470000", "153302.257500", "153303.045000", "153303.832500", "153304.622500", "153305.410000", "153306.197500", "153306.985000", "153307.775000", "153308.562500", "153309.350000", "153310.137500", "153310.927500", "153311.715000", "153312.502500", "153313.290000", "153314.080000", "153314.867500", "153315.655000", "153316.445000", "153317.232500", "153318.020000", "153318.807500", "153319.597500", "153320.385000", "153321.172500", "153321.960000", "153322.750000", "153323.537500", "153324.325000", "153325.112500", "153325.902500", "153326.690000", "153327.477500", "153328.265000", "153329.055000", "153329.842500", "153330.630000", "153331.417500", "153332.207500", "153332.995000", "153333.782500", "153334.572500", "153335.360000", "153336.147500", "153336.935000", "153337.725000", "153338.512500", "153339.300000", "153340.087500", "153340.877500", "153341.665000", "153342.452500", "153343.240000", "153344.030000", "153344.817500", "153345.605000", "153346.392500", "153347.182500", "153347.970000", "153348.757500", "153349.545000", "153350.335000", "153351.122500", "153351.910000", "153352.700000", "153353.487500", "153354.275000", "153355.062500", "153355.852500", "153356.640000", "153357.427500", "153358.215000", "153359.005000", "153359.792500", "153400.580000", "153401.367500", "153402.157500", "153402.945000", "153403.732500", "153404.520000", "153405.310000", "153406.097500", "153406.885000", "153407.672500", "153408.462500", "153409.250000", "153410.037500", "153410.827500", "153411.615000", "153412.402500", "153413.190000", "153413.980000", "153414.767500", "153415.555000", "153416.342500", "153417.132500", "153417.920000", "153418.707500", "153419.495000", "153420.285000", "153421.072500", "153421.860000", "153422.647500", "153423.437500", "153424.225000", "153425.012500", "153425.800000", "153426.590000", "153427.377500", "153428.165000", "153428.955000", "153429.742500", "153430.530000", "153431.317500", "153432.107500", "153432.895000", "153433.682500", "153434.470000", "153435.260000", "153436.047500", "153436.835000", "153437.622500", "153438.412500", "153439.200000", "153439.987500", "153440.775000", "153441.565000", "153442.352500", "153443.140000", "153443.927500", "153444.717500", "153445.505000", "153446.292500", "153447.082500", "153447.870000", "153448.657500", "153449.445000", "153450.235000", "153451.022500", "153451.810000", "153452.597500", "153453.387500", "153454.175000", "153454.962500", "153455.750000", "153456.540000", "153457.327500", "153458.115000", "153458.902500", "153459.692500", "153500.480000", "153501.267500", "153502.055000", "153502.845000", "153503.632500", "153504.420000", "153505.210000", "153505.997500", "153506.785000", "153507.572500", "153508.362500", "153509.150000", "153509.937500", "153510.725000", "153511.515000", "153512.302500", "153513.090000", "153513.877500", "153514.667500", "153515.455000", "153516.242500", "153517.030000", "153517.820000", "153518.607500", "153519.395000", "153520.182500", "153520.972500", "153521.760000", "153522.547500", "153523.337500", "153524.125000", "153524.912500", "153525.700000", "153526.490000", "153527.277500", "153528.065000", "153528.852500", "153529.642500", "153530.430000", "153531.217500", "153532.005000", "153532.795000", "153533.582500", "153534.370000", "153535.157500", "153535.947500", "153536.735000", "153537.522500", "153538.312500", "153539.100000", "153539.887500", "153540.675000", "153541.465000", "153542.252500", "153543.040000", "153543.827500", "153544.617500", "153545.405000", "153546.192500", "153546.980000", "153547.770000", "153548.557500", "153549.345000", "153550.132500", "153550.922500", "153551.710000", "153552.497500", "153553.285000", "153554.075000", "153554.862500", "153555.650000", "153556.440000", "153557.227500", "153558.015000", "153558.802500", "153559.592500", "153600.380000", "153601.167500", "153601.955000", "153602.745000", "153603.532500", "153604.320000", "153605.107500", "153605.897500", "153606.685000", "153607.472500", "153608.260000", "153609.050000", "153609.837500", "153610.625000", "153611.412500", "153612.202500", "153612.990000", "153613.777500", "153614.567500", "153615.355000", "153616.142500", "153616.930000", "153617.720000", "153618.507500", "153619.295000", "153620.082500", "153620.872500", "153621.660000", "153622.447500", "153623.235000", "153624.025000", "153624.812500", "153625.600000", "153626.387500", "153627.177500", "153627.965000", "153628.752500", "153629.540000", "153630.330000", "153631.117500", "153631.905000", "153632.695000", "153633.482500", "153634.270000", "153635.057500", "153635.847500", "153636.635000", "153637.422500", "153638.210000", "153639.000000", "153639.787500", "153640.575000", "153641.362500", "153642.152500", "153642.940000", "153643.727500", "153644.515000", "153645.305000", "153646.092500", "153646.880000", "153647.667500", "153648.457500", "153649.245000", "153650.032500", "153650.822500", "153651.610000", "153652.397500", "153653.185000", "153653.975000", "153654.762500", "153655.550000", "153656.337500", "153657.127500", "153657.915000", "153658.702500", "153659.490000", "153700.280000", "153701.067500", "153701.855000", "153702.642500", "153703.432500", "153704.220000", "153705.007500", "153705.795000", "153706.585000", "153707.372500", "153708.160000", "153708.950000", "153709.737500", "153710.525000", "153711.312500", "153712.102500", "153712.890000", "153713.677500", "153714.465000", "153715.255000", "153716.042500", "153716.830000", "153717.617500", "153718.407500", "153719.195000", "153719.982500", "153720.770000", "153721.560000", "153722.347500", "153723.135000", "153723.922500", "153724.712500", "153725.500000", "153726.287500", "153727.077500", "153727.865000", "153728.652500", "153729.440000", "153730.230000", "153731.017500", "153731.805000", "153732.592500", "153733.382500", "153734.170000", "153734.957500", "153735.745000", "153736.535000", "153737.322500", "153738.110000", "153738.897500", "153739.687500", "153740.475000", "153741.262500", "153742.050000", "153742.840000", "153743.627500", "153744.415000", "153745.205000", "153745.992500", "153746.780000", "153747.567500", "153748.357500", "153749.145000", "153749.932500", "153750.720000", "153751.510000", "153752.297500", "153753.085000", "153753.872500", "153754.662500", "153755.450000", "153756.237500", "153757.025000", "153757.815000", "153758.602500", "153759.390000", "153800.177500", "153800.967500", "153801.755000", "153802.542500", "153803.332500", "153804.120000", "153804.907500", "153805.695000", "153806.485000", "153807.272500", "153808.060000", "153808.847500", "153809.637500", "153810.425000", "153811.212500", "153812.000000", "153812.790000", "153813.577500", "153814.365000", "153815.152500", "153815.942500", "153816.730000", "153817.517500", "153818.305000", "153819.095000", "153819.882500", "153820.670000", "153821.460000", "153822.247500", "153823.035000", "153823.822500", "153824.612500", "153825.400000", "153826.187500", "153826.975000", "153827.765000", "153828.552500", "153829.340000", "153830.127500", "153830.917500", "153831.705000", "153832.492500", "153833.280000", "153834.070000", "153834.857500", "153835.645000", "153836.432500", "153837.222500", "153838.010000", "153838.797500", "153839.587500", "153840.375000", "153841.162500", "153841.950000", "153842.740000", "153843.527500", "153844.315000", "153845.102500", "153845.892500", "153846.680000", "153847.467500", "153848.255000", "153849.045000", "153849.832500", "153850.620000", "153851.407500", "153852.197500", "153852.985000", "153853.772500", "153854.562500", "153855.350000", "153856.137500", "153856.925000", "153857.715000", "153858.502500", "153859.290000", "153900.077500", "153900.867500", "153901.655000", "153902.442500", "153903.230000", "153904.020000", "153904.807500", "153905.595000", "153906.382500", "153907.172500", "153907.960000", "153908.747500", "153909.535000", "153910.325000", "153911.112500", "153911.900000", "153912.690000", "153913.477500", "153914.265000", "153915.052500", "153915.842500", "153916.630000", "153917.417500", "153918.205000", "153918.995000", "153919.782500", "153920.570000", "153921.357500", "153922.147500", "153922.935000", "153923.722500", "153924.510000", "153925.300000", "153926.087500", "153926.875000", "153927.662500", "153928.452500", "153929.240000", "153930.027500", "153930.817500", "153931.605000", "153932.392500", "153933.180000", "153933.970000", "153934.757500", "153935.545000", "153936.332500", "153937.122500", "153937.910000", "153938.697500", "153939.485000", "153940.275000", "153941.062500", "153941.850000", "153942.637500", "153943.427500", "153944.215000", "153945.002500", "153945.790000", "153946.580000", "153947.367500", "153948.155000", "153948.945000", "153949.732500", "153950.520000", "153951.307500", "153952.097500", "153952.885000", "153953.672500", "153954.460000", "153955.250000", "153956.037500", "153956.825000", "153957.612500", "153958.402500", "153959.190000", "153959.977500", "154000.765000", "154001.555000", "154002.342500", "154003.130000", "154003.917500", "154004.707500", "154005.495000", "154006.282500", "154007.072500", "154007.860000", "154008.647500", "154009.435000", "154010.225000", "154011.012500", "154011.800000", "154012.587500", "154013.377500", "154014.165000", "154014.952500", "154015.740000", "154016.530000", "154017.317500", "154018.105000", "154018.892500", "154019.682500", "154020.470000", "154021.257500", "154022.045000", "154022.835000", "154023.622500", "154024.410000", "154025.200000", "154025.987500", "154026.775000", "154027.562500", "154028.352500", "154029.140000", "154029.927500", "154030.715000", "154031.505000", "154032.292500", "154033.080000", "154033.867500", "154034.657500", "154035.445000", "154036.232500", "154037.020000", "154037.810000", "154038.597500", "154039.385000", "154040.172500", "154040.962500", "154041.750000", "154042.537500", "154043.327500", "154044.115000", "154044.902500", "154045.690000", "154046.480000", "154047.267500", "154048.055000", "154048.842500", "154049.632500", "154050.420000", "154051.207500", "154051.995000", "154052.785000", "154053.572500", "154054.360000", "154055.147500", "154055.937500", "154056.725000", "154057.512500", "154058.300000", "154059.090000", "154059.877500", "154100.665000", "154101.455000", "154102.242500", "154103.030000", "154103.817500", "154104.607500", "154105.395000", "154106.182500", "154106.970000", "154107.760000", "154108.547500", "154109.335000", "154110.122500", "154110.912500", "154111.700000", "154112.487500", "154113.275000", "154114.065000", "154114.852500", "154115.640000", "154116.427500", "154117.217500", "154118.005000", "154118.792500", "154119.582500", "154120.370000", "154121.157500", "154121.945000", "154122.735000", "154123.522500", "154124.310000", "154125.097500", "154125.887500", "154126.675000", "154127.462500", "154128.250000", "154129.040000", "154129.827500", "154130.615000", "154131.402500", "154132.192500", "154132.980000", "154133.767500", "154134.555000", "154135.345000", "154136.132500", "154136.920000", "154137.710000", "154138.497500", "154139.285000", "154140.072500", "154140.862500", "154141.650000", "154142.437500", "154143.225000", "154144.015000", "154144.802500", "154145.590000", "154146.377500", "154147.167500", "154147.955000", "154148.742500", "154149.530000", "154150.320000", "154151.107500", "154151.895000", "154152.682500", "154153.472500", "154154.260000", "154155.047500", "154155.837500", "154156.625000", "154157.412500", "154158.200000", "154158.990000", "154159.777500", "154200.565000", "154201.352500", "154202.142500", "154202.930000", "154203.717500", "154204.505000", "154205.295000", "154206.082500", "154206.870000", "154207.657500", "154208.447500", "154209.235000", "154210.022500", "154210.812500", "154211.600000", "154212.387500", "154213.175000", "154213.965000", "154214.752500", "154215.540000", "154216.327500", "154217.117500", "154217.905000", "154218.692500", "154219.480000", "154220.270000", "154221.057500", "154221.845000", "154222.632500", "154223.422500", "154224.210000", "154224.997500", "154225.785000", "154226.575000", "154227.362500", "154228.150000", "154228.940000", "154229.727500", "154230.515000", "154231.302500", "154232.092500", "154232.880000", "154233.667500", "154234.455000", "154235.245000", "154236.032500", "154236.820000", "154237.607500", "154238.397500", "154239.185000", "154239.972500", "154240.760000", "154241.550000", "154242.337500", "154243.125000", "154243.912500", "154244.702500", "154245.490000", "154246.277500", "154247.067500", "154247.855000", "154248.642500", "154249.430000", "154250.220000", "154251.007500", "154251.795000", "154252.582500", "154253.372500", "154254.160000", "154254.947500", "154255.735000", "154256.525000", "154257.312500", "154258.100000", "154258.887500", "154259.677500", "154300.465000", "154301.252500", "154302.040000", "154302.830000", "154303.617500", "154304.405000", "154305.195000", "154305.982500", "154306.770000", "154307.557500", "154308.347500", "154309.135000", "154309.922500", "154310.710000", "154311.500000", "154312.287500", "154313.075000", "154313.862500", "154314.652500", "154315.440000", "154316.227500", "154317.015000", "154317.805000", "154318.592500", "154319.380000", "154320.167500", "154320.957500", "154321.745000", "154322.532500", "154323.322500", "154324.110000", "154324.897500", "154325.685000", "154326.475000", "154327.262500", "154328.050000", "154328.837500", "154329.627500", "154330.415000", "154331.202500", "154331.990000", "154332.780000", "154333.567500", "154334.355000", "154335.142500", "154335.932500", "154336.720000", "154337.507500", "154338.295000", "154339.085000", "154339.872500", "154340.660000", "154341.450000", "154342.237500", "154343.025000", "154343.812500", "154344.602500", "154345.390000", "154346.177500", "154346.965000", "154347.755000", "154348.542500", "154349.330000", "154350.117500", "154350.907500", "154351.695000", "154352.482500", "154353.270000", "154354.060000", "154354.847500", "154355.635000", "154356.422500", "154357.212500", "154358.000000", "154358.787500", "154359.577500", "154400.365000", "154401.152500", "154401.940000", "154402.730000", "154403.517500", "154404.305000", "154405.092500", "154405.882500", "154406.670000", "154407.457500", "154408.245000", "154409.035000", "154409.822500", "154410.610000", "154411.397500", "154412.187500", "154412.975000", "154413.762500", "154414.550000", "154415.340000", "154416.127500", "154416.915000", "154417.705000", "154418.492500", "154419.280000", "154420.067500", "154420.857500", "154421.645000", "154422.432500", "154423.220000", "154424.010000", "154424.797500", "154425.585000", "154426.372500", "154427.162500", "154427.950000", "154428.737500", "154429.525000", "154430.315000", "154431.102500", "154431.890000", "154432.677500", "154433.467500", "154434.255000", "154435.042500", "154435.832500", "154436.620000", "154437.407500", "154438.195000", "154438.985000", "154439.772500", "154440.560000", "154441.347500", "154442.137500", "154442.925000", "154443.712500"],
