{
  "AcquisitionMatrixPE": 104,
  "AcquisitionNumber": 1,
  "AcquisitionTime": "15:19:1.795000",
  "BandwidthPerPixelPhaseEncode": 13.935,
  "BaseResolution": 104,
  "CoilString": "C:HEA;HEP",
  "ConversionSoftware": "dcm2niix",
  "ConversionSoftwareVersion": "v1.0.20210317",
  "DerivedVendorReportedEchoSpacing": 0.000690017,
  "DeviceSerialNumber": "35450",
  "DwellTime": 2.5e-06,
  "EchoTime": 0.0348,
  "EffectiveEchoSpacing": 0.000690017,
  "FlipAngle": 55,
  "ImageComments": "Unaliased MB8/PE3 (remote)",
  "ImageOrientationPatientDICOM": [0.999986, 0.000337262, 0.00521416, -7.28505e-08, 0.997916, -0.0645332],
  "ImageType": [
    "ORIGINAL",
    "PRIMARY",
    "M",
    "MB",
    "ND",
    "MOSAIC"
],
  "ImagingFrequency": 123.234,
  "InPlanePhaseEncodingDirectionDICOM": "COL",
  "InstitutionAddress": "Univeristy Ave. 197,Newark,North East,US,07102-1814",
  "InstitutionName": "RUBIC",
  "InstitutionalDepartmentName": "Department",
  "MRAcquisitionType": "2D",
  "MagneticFieldStrength": 3,
  "Manufacturer": "Siemens",
  "ManufacturersModelName": "TrioTim",
  "Modality": "MR",
  "MultibandAccelerationFactor": 8,
  "PartialFourier": 0.875,
  "PatientPosition": "HFS",
  "PercentPhaseFOV": 100,
  "PercentSampling": 100,
  "PhaseEncodingDirection": "j-",
  "PhaseEncodingSteps": 91,
  "PhaseResolution": 1,
  "PixelBandwidth": 1923,
  "ProcedureStepDescription": "Cole^Michael",
  "ProtocolName": "cmrr_mbep2d_bold_2mm_MB8_Rest",
  "PulseSequenceDetails": "%CustomerSeq%\\cmrr_mbep2d_bold",
  "ReceiveCoilName": "32Ch_Head",
  "ReconMatrixPE": 104,
  "RepetitionTime": 0.785,
  "SAR": 0.17766,
  "ScanOptions": "PFP\\FS",
  "ScanningSequence": "EP",
  "SequenceName": "epfid2d1_104",
  "SequenceVariant": "SK\\SS",
  "SeriesDescription": "cmrr_mbep2d_bold_2mm_MB8_Rest",
  "SeriesNumber": 9,
  "ShimSetting": [2113, -348, -7350, 468, -141, -320, 209, 4],
  "SliceThickness": 2,
  "SliceTiming": [0, 0.4375, 0.0875, 0.525, 0.175, 0.6125, 0.2625, 0.7, 0.35, 0, 0.4375, 0.0875, 0.525, 0.175, 0.6125, 0.2625, 0.7, 0.35, 0, 0.4375, 0.0875, 0.525, 0.175, 0.6125, 0.2625, 0.7, 0.35, 0, 0.4375, 0.0875, 0.525, 0.175, 0.6125, 0.2625, 0.7, 0.35, 0, 0.4375, 0.0875, 0.525, 0.175, 0.6125, 0.2625, 0.7, 0.35, 0, 0.4375, 0.0875, 0.525, 0.175, 0.6125, 0.2625, 0.7, 0.35, 0, 0.4375, 0.0875, 0.525, 0.175, 0.6125, 0.2625, 0.7, 0.35, 0, 0.4375, 0.0875, 0.525, 0.175, 0.6125, 0.2625, 0.7, 0.35],
  "SoftwareVersions": "syngo MR B19",
  "SpacingBetweenSlices": 2,
  "StationName": "MRC35450",
  "TaskName": "rest",
  "TotalReadoutTime": 0.0710717,
  "TxRefAmp": 363.784,
  "dcmmeta_affine": [
    [-1.9999727010726929, -1.4570093753718538e-07, 0.010450106114149094, 104.98873901367188],
    [-0.000674524053465575, 1.9958311319351196, -0.1290646195411682, -81.82478332519531],
    [0.010428314097225666, 0.1290663778781891, 1.9958038330078125, -105.8681411743164],
    [0.0, 0.0, 0.0, 1.0]
],
  "dcmmeta_reorient_transform": [
    [0.0, -1.0, 0.0, 103.0],
    [1.0, 0.0, 0.0, 0.0],
    [0.0, 0.0, 1.0, 0.0],
    [0.0, 0.0, 0.0, 1.0]
],
  "dcmmeta_shape": [104, 104, 72, 1070],
  "dcmmeta_slice_dim": 2,
  "dcmmeta_version": 0.6,
  "global": {
    "const": {
      "AcquisitionMatrix": [104, 0, 0, 104],
      "AngioFlag": "N",
      "BitsAllocated": 16,
      "BitsStored": 12,
      "Columns": 936,
      "EchoNumbers": 1,
      "EchoTime": 34.8,
      "EchoTrainLength": 1,
      "FlipAngle": 55.0,
      "HighBit": 11,
      "ImageOrientationPatient": [0.99998634931758, 0.00033726203615, 0.00521415696145, -7.2850471e-08, 0.99791556121803, -0.0645331905216],
      "ImagePositionPatient": [-936.97730445001, -954.29217285461, -43.220869084802],
      "ImageType": [
        "ORIGINAL",
        "PRIMARY",
        "M",
        "MB",
        "ND",
        "MOSAIC"
],
      "ImagedNucleus": "1H",
      "ImagingFrequency": 123.234453,
      "InPlanePhaseEncodingDirection": "COL",
      "MRAcquisitionType": "2D",
      "MagneticFieldStrength": 3.0,
      "Manufacturer": "SIEMENS",
      "ManufacturerModelName": "TrioTim",
      "Modality": "MR",
      "NumberOfAverages": 1.0,
      "NumberOfPhaseEncodingSteps": 91,
      "PercentPhaseFieldOfView": 100.0,
      "PercentSampling": 100.0,
      "PerformedProcedureStepStartTime": "141412.781000",
      "PhotometricInterpretation": "MONOCHROME2",
      "PixelBandwidth": 1923.0,
      "PixelRepresentation": 0,
      "PixelSpacing": [2.0, 2.0],
      "ProtocolName": "cmrr_mbep2d_bold_2mm_MB8_Rest",
      "RepetitionTime": 785.0,
      "Rows": 936,
      "SAR": 0.17765954382559,
      "SamplesPerPixel": 1,
      "ScanOptions": [
        "PFP",
        "FS"
],
      "ScanningSequence": "EP",
      "SequenceName": "epfid2d1_104",
      "SequenceVariant": [
        "SK",
        "SS"
],
      "SeriesDescription": "cmrr_mbep2d_bold_2mm_MB8_Rest",
      "SeriesNumber": 9,
      "SeriesTime": "151938.593000",
      "SliceLocation": -99.817110606713,
      "SliceThickness": 2.0,
      "SmallestImagePixelValue": 0,
      "SoftwareVersions": "syngo MR B19",
      "SpacingBetweenSlices": 2.000000009219,
      "SpecificCharacterSet": "ISO_IR 100",
      "StudyID": "1",
      "StudyTime": "141412.750000",
      "TransmitCoilName": "Body",
      "VariableFlipAngleFlag": "N",
      "WindowCenterWidthExplanation": "Algo1",
      "dBdt": 0.0},
    "slices": {}
  },
  "time": {
    "samples": {
      "AcquisitionNumber": [1, 2, 3, 4, 5, 6, 7, 8, 9, 10, 11, 12, 13, 14, 15, 16, 17, 18, 19, 20, 21, 22, 23, 24, 25, 26, 27, 28, 29, 30, 31, 32, 33, 34, 35, 36, 37, 38, 39, 40, 41, 42, 43, 44, 45, 46, 47, 48, 49, 50, 51, 52, 53, 54, 55, 56, 57, 58, 59, 60, 61, 62, 63, 64, 65, 66, 67, 68, 69, 70, 71, 72, 73, 74, 75, 76, 77, 78, 79, 80, 81, 82, 83, 84, 85, 86, 87, 88, 89, 90, 91, 92, 93, 94, 95, 96, 97, 98, 99, 100, 101, 102, 103, 104, 105, 106, 107, 108, 109, 110, 111, 112, 113, 114, 115, 116, 117, 118, 119, 120, 121, 122, 123, 124, 125, 126, 127, 128, 129, 130, 131, 132, 133, 134, 135, 136, 137, 138, 139, 140, 141, 142, 143, 144, 145, 146, 147, 148, 149, 150, 151, 152, 153, 154, 155, 156, 157, 158, 159, 160, 161, 162, 163, 164, 165, 166, 167, 168, 169, 170, 171, 172, 173, 174, 175, 176, 177, 178, 179, 180, 181, 182, 183, 184, 185, 186, 187, 188, 189, 190, 191, 192, 193, 194, 195, 196, 197, 198, 199, 200, 201, 202, 203, 204, 205, 206, 207, 208, 209, 210, 211, 212, 213, 214, 215, 216, 217, 218, 219, 220, 221, 222, 223, 224, 225, 226, 227, 228, 229, 230, 231, 232, 233, 234, 235, 236, 237, 238, 239, 240, 241, 242, 243, 244, 245, 246, 247, 248, 249, 250, 251, 252, 253, 254, 255, 256, 257, 258, 259, 260, 261, 262, 263, 264, 265, 266, 267, 268, 269, 270, 271, 272, 273, 274, 275, 276, 277, 278, 279, 280, 281, 282, 283, 284, 285, 286, 287, 288, 289, 290, 291, 292, 293, 294, 295, 296, 297, 298, 299, 300, 301, 302, 303, 304, 305, 306, 307, 308, 309, 310, 311, 312, 313, 314, 315, 316, 317, 318, 319, 320, 321, 322, 323, 324, 325, 326, 327, 328, 329, 330, 331, 332, 333, 334, 335, 336, 337, 338, 339, 340, 341, 342, 343, 344, 345, 346, 347, 348, 349, 350, 351, 352, 353, 354, 355, 356, 357, 358, 359, 360, 361, 362, 363, 364, 365, 366, 367, 368, 369, 370, 371, 372, 373, 374, 375, 376, 377, 378, 379, 380, 381, 382, 383, 384, 385, 386, 387, 388, 389, 390, 391, 392, 393, 394, 395, 396, 397, 398, 399, 400, 401, 402, 403, 404, 405, 406, 407, 408, 409, 410, 411, 412, 413, 414, 415, 416, 417, 418, 419, 420, 421, 422, 423, 424, 425, 426, 427, 428, 429, 430, 431, 432, 433, 434, 435, 436, 437, 438, 439, 440, 441, 442, 443, 444, 445, 446, 447, 448, 449, 450, 451, 452, 453, 454, 455, 456, 457, 458, 459, 460, 461, 462, 463, 464, 465, 466, 467, 468, 469, 470, 471, 472, 473, 474, 475, 476, 477, 478, 479, 480, 481, 482, 483, 484, 485, 486, 487, 488, 489, 490, 491, 492, 493, 494, 495, 496, 497, 498, 499, 500, 501, 502, 503, 504, 505, 506, 507, 508, 509, 510, 511, 512, 513, 514, 515, 516, 517, 518, 519, 520, 521, 522, 523, 524, 525, 526, 527, 528, 529, 530, 531, 532, 533, 534, 535, 536, 537, 538, 539, 540, 541, 542, 543, 544, 545, 546, 547, 548, 549, 550, 551, 552, 553, 554, 555, 556, 557, 558, 559, 560, 561, 562, 563, 564, 565, 566, 567, 568, 569, 570, 571, 572, 573, 574, 575, 576, 577, 578, 579, 580, 581, 582, 583, 584, 585, 586, 587, 588, 589, 590, 591, 592, 593, 594, 595, 596, 597, 598, 599, 600, 601, 602, 603, 604, 605, 606, 607, 608, 609, 610, 611, 612, 613, 614, 615, 616, 617, 618, 619, 620, 621, 622, 623, 624, 625, 626, 627, 628, 629, 630, 631, 632, 633, 634, 635, 636, 637, 638, 639, 640, 641, 642, 643, 644, 645, 646, 647, 648, 649, 650, 651, 652, 653, 654, 655, 656, 657, 658, 659, 660, 661, 662, 663, 664, 665, 666, 667, 668, 669, 670, 671, 672, 673, 674, 675, 676, 677, 678, 679, 680, 681, 682, 683, 684, 685, 686, 687, 688, 689, 690, 691, 692, 693, 694, 695, 696, 697, 698, 699, 700, 701, 702, 703, 704, 705, 706, 707, 708, 709, 710, 711, 712, 713, 714, 715, 716, 717, 718, 719, 720, 721, 722, 723, 724, 725, 726, 727, 728, 729, 730, 731, 732, 733, 734, 735, 736, 737, 738, 739, 740, 741, 742, 743, 744, 745, 746, 747, 748, 749, 750, 751, 752, 753, 754, 755, 756, 757, 758, 759, 760, 761, 762, 763, 764, 765, 766, 767, 768, 769, 770, 771, 772, 773, 774, 775, 776, 777, 778, 779, 780, 781, 782, 783, 784, 785, 786, 787, 788, 789, 790, 791, 792, 793, 794, 795, 796, 797, 798, 799, 800, 801, 802, 803, 804, 805, 806, 807, 808, 809, 810, 811, 812, 813, 814, 815, 816, 817, 818, 819, 820, 821, 822, 823, 824, 825, 826, 827, 828, 829, 830, 831, 832, 833, 834, 835, 836, 837, 838, 839, 840, 841, 842, 843, 844, 845, 846, 847, 848, 849, 850, 851, 852, 853, 854, 855, 856, 857, 858, 859, 860, 861, 862, 863, 864, 865, 866, 867, 868, 869, 870, 871, 872, 873, 874, 875, 876, 877, 878, 879, 880, 881, 882, 883, 884, 885, 886, 887, 888, 889, 890, 891, 892, 893, 894, 895, 896, 897, 898, 899, 900, 901, 902, 903, 904, 905, 906, 907, 908, 909, 910, 911, 912, 913, 914, 915, 916, 917, 918, 919, 920, 921, 922, 923, 924, 925, 926, 927, 928, 929, 930, 931, 932, 933, 934, 935, 936, 937, 938, 939, 940, 941, 942, 943, 944, 945, 946, 947, 948, 949, 950, 951, 952, 953, 954, 955, 956, 957, 958, 959, 960, 961, 962, 963, 964, 965, 966, 967, 968, 969, 970, 971, 972, 973, 974, 975, 976, 977, 978, 979, 980, 981, 982, 983, 984, 985, 986, 987, 988, 989, 990, 991, 992, 993, 994, 995, 996, 997, 998, 999, 1000, 1001, 1002, 1003, 1004, 1005, 1006, 1007, 1008, 1009, 1010, 1011, 1012, 1013, 1014, 1015, 1016, 1017, 1018, 1019, 1020, 1021, 1022, 1023, 1024, 1025, 1026, 1027, 1028, 1029, 1030, 1031, 1032, 1033, 1034, 1035, 1036, 1037, 1038, 1039, 1040, 1041, 1042, 1043, 1044, 1045, 1046, 1047, 1048, 1049, 1050, 1051, 1052, 1053, 1054, 1055, 1056, 1057, 1058, 1059, 1060, 1061, 1062, 1063, 1064, 1065, 1066, 1067, 1068, 1069, 1070],
      "AcquisitionTime": ["151901.795000", "151902.582500", "151903.370000", "151904.160000", "151904.947500", "151905.735000", "151906.522500", "151907.312500", "151908.100000", "151908.887500", "151909.675000", "151910.465000", "151911.252500", "151912.040000", "151912.827500", "151913.617500", "151914.405000", "151915.192500", "151915.982500", "151916.770000", "151917.557500", "151918.345000", "151919.135000", "151919.922500", "151920.710000", "151921.497500", "151922.287500", "151923.075000", "151923.862500", "151924.650000", "151925.440000", "151926.227500", "151927.015000", "151927.802500", "151928.592500", "151929.380000", "151930.167500", "151930.955000", "151931.745000", "151932.532500", "151933.320000", "151934.110000", "151934.897500", "151935.685000", "151936.472500", "151937.262500", "151938.050000", "151938.837500", "151939.625000", "151940.415000", "151941.202500", "151941.990000", "151942.777500", "151943.567500", "151944.355000", "151945.142500", "151945.930000", "151946.720000", "151947.507500", "151948.295000", "151949.085000", "151949.872500", "151950.660000", "151951.447500", "151952.237500", "151953.025000", "151953.812500", "151954.600000", "151955.390000", "151956.177500", "151956.965000", "151957.752500", "151958.542500", "151959.330000", "152000.117500", "152000.905000", "152001.695000", "152002.482500", "152003.270000", "152004.057500", "152004.847500", "152005.635000", "152006.422500", "152007.212500", "152008.000000", "152008.787500", "152009.575000", "152010.365000", "152011.152500", "152011.940000", "152012.727500", "152013.517500", "152014.305000", "152015.092500", "152015.880000", "152016.670000", "152017.457500", "152018.245000", "152019.032500", "152019.822500", "152020.610000", "152021.397500", "152022.185000", "152022.975000", "152023.762500", "152024.550000", "152025.340000", "152026.127500", "152026.915000", "152027.702500", "152028.492500", "152029.280000", "152030.067500", "152030.855000", "152031.645000", "152032.432500", "152033.220000", "152034.007500", "152034.797500", "152035.585000", "152036.372500", "152037.160000", "152037.950000", "152038.737500", "152039.525000", "152040.312500", "152041.102500", "152041.890000", "152042.677500", "152043.467500", "152044.255000", "152045.042500", "152045.830000", "152046.620000", "152047.407500", "152048.195000", "152048.982500", "152049.772500", "152050.560000", "152051.347500", "152052.135000", "152052.925000", "152053.712500", "152054.500000", "152055.287500", "152056.077500", "152056.865000", "152057.652500", "152058.440000", "152059.230000", "152100.017500", "152100.805000", "152101.595000", "152102.382500", "152103.170000", "152103.957500", "152104.747500", "152105.535000", "152106.322500", "152107.110000", "152107.900000", "152108.687500", "152109.475000", "152110.262500", "152111.052500", "152111.840000", "152112.627500", "152113.415000", "152114.205000", "152114.992500", "152115.780000", "152116.567500", "152117.357500", "152118.145000", "152118.932500", "152119.722500", "152120.510000", "152121.297500", "152122.085000", "152122.875000", "152123.662500", "152124.450000", "152125.237500", "152126.027500", "152126.815000", "152127.602500", "152128.390000", "152129.180000", "152129.967500", "152130.755000", "152131.542500", "152132.332500", "152133.120000", "152133.907500", "152134.695000", "152135.485000", "152136.272500", "152137.060000", "152137.850000", "152138.637500", "152139.425000", "152140.212500", "152141.002500", "152141.790000", "152142.577500", "152143.365000", "152144.155000", "152144.942500", "152145.730000", "152146.517500", "152147.307500", "152148.095000", "152148.882500", "152149.670000", "152150.460000", "152151.247500", "152152.035000", "152152.822500", "152153.612500", "152154.400000", "152155.187500", "152155.977500", "152156.765000", "152157.552500", "152158.340000", "152159.130000", "152159.917500", "152200.705000", "152201.492500", "152202.282500", "152203.070000", "152203.857500", "152204.645000", "152205.435000", "152206.222500", "152207.010000", "152207.797500", "152208.587500", "152209.375000", "152210.162500", "152210.950000", "152211.740000", "152212.527500", "152213.315000", "152214.105000", "152214.892500", "152215.680000", "152216.467500", "152217.257500", "152218.045000", "152218.832500", "152219.620000", "152220.410000", "152221.197500", "152221.985000", "152222.772500", "152223.562500", "152224.350000", "152225.137500", "152225.925000", "152226.715000", "152227.502500", "152228.290000", "152229.077500", "152229.867500", "152230.655000", "152231.442500", "152232.232500", "152233.020000", "152233.807500", "152234.595000", "152235.385000", "152236.172500", "152236.960000", "152237.747500", "152238.537500", "152239.325000", "152240.112500", "152240.900000", "152241.690000", "152242.477500", "152243.265000", "152244.052500", "152244.842500", "152245.630000", "152246.417500", "152247.205000", "152247.995000", "152248.782500", "152249.570000", "152250.360000", "152251.147500", "152251.935000", "152252.722500", "152253.512500", "152254.300000", "152255.087500", "152255.875000", "152256.665000", "152257.452500", "152258.240000", "152259.027500", "152259.817500", "152300.605000", "152301.392500", "152302.180000", "152302.970000", "152303.757500", "152304.545000", "152305.335000", "152306.122500", "152306.910000", "152307.697500", "152308.487500", "152309.275000", "152310.062500", "152310.850000", "152311.640000", "152312.427500", "152313.215000", "152314.002500", "152314.792500", "152315.580000", "152316.367500", "152317.155000", "152317.945000", "152318.732500", "152319.520000", "152320.307500", "152321.097500", "152321.885000", "152322.672500", "152323.462500", "152324.250000", "152325.037500", "152325.825000", "152326.615000", "152327.402500", "152328.190000", "152328.977500", "152329.767500", "152330.555000", "152331.342500", "152332.130000", "152332.920000", "152333.707500", "152334.495000", "152335.282500", "152336.072500", "152336.860000", "152337.647500", "152338.435000", "152339.225000", "152340.012500", "152340.800000", "152341.590000", "152342.377500", "152343.165000", "152343.952500", "152344.742500", "152345.530000", "152346.317500", "152347.105000", "152347.895000", "152348.682500", "152349.470000", "152350.257500", "152351.047500", "152351.835000", "152352.622500", "152353.410000", "152354.200000", "152354.987500", "152355.775000", "152356.562500", "152357.352500", "152358.140000", "152358.927500", "152359.717500", "152400.505000", "152401.292500", "152402.080000", "152402.870000", "152403.657500", "152404.445000", "152405.232500", "152406.022500", "152406.810000", "152407.597500", "152408.385000", "152409.175000", "152409.962500", "152410.750000", "152411.537500", "152412.327500", "152413.115000", "152413.902500", "152414.690000", "152415.480000", "152416.267500", "152417.055000", "152417.845000", "152418.632500", "152419.420000", "152420.207500", "152420.997500", "152421.785000", "152422.572500", "152423.360000", "152424.150000", "152424.937500", "152425.725000", "152426.512500", "152427.302500", "152428.090000", "152428.877500", "152429.665000", "152430.455000", "152431.242500", "152432.030000", "152432.817500", "152433.607500", "152434.395000", "152435.182500", "152435.972500", "152436.760000", "152437.547500", "152438.335000", "152439.125000", "152439.912500", "152440.700000", "152441.487500", "152442.277500", "152443.065000", "152443.852500", "152444.640000", "152445.430000", "152446.217500", "152447.005000", "152447.792500", "152448.582500", "152449.370000", "152450.157500", "152450.945000", "152451.735000", "152452.522500", "152453.310000", "152454.100000", "152454.887500", "152455.675000", "152456.462500", "152457.252500", "152458.040000", "152458.827500", "152459.615000", "152500.405000", "152501.192500", "152501.980000", "152502.767500", "152503.557500", "152504.345000", "152505.132500", "152505.920000", "152506.710000", "152507.497500", "152508.285000", "152509.072500", "152509.862500", "152510.650000", "152511.437500", "152512.227500", "152513.015000", "152513.802500", "152514.590000", "152515.380000", "152516.167500", "152516.955000", "152517.742500", "152518.532500", "152519.320000", "152520.107500", "152520.895000", "152521.685000", "152522.472500", "152523.260000", "152524.047500", "152524.837500", "152525.625000", "152526.412500", "152527.200000", "152527.990000", "152528.777500", "152529.565000", "152530.355000", "152531.142500", "152531.930000", "152532.717500", "152533.507500", "152534.295000", "152535.082500", "152535.870000", "152536.660000", "152537.447500", "152538.235000", "152539.022500", "152539.812500", "152540.600000", "152541.387500", "152542.175000", "152542.965000", "152543.752500", "152544.540000", "152545.327500", "152546.117500", "152546.905000", "152547.692500", "152548.482500", "152549.270000", "152550.057500", "152550.845000", "152551.635000", "152552.422500", "152553.210000", "152553.997500", "152554.787500", "152555.575000", "152556.362500", "152557.150000", "152557.940000", "152558.727500", "152559.515000", "152600.302500", "152601.092500", "152601.880000", "152602.667500", "152603.455000", "152604.245000", "152605.032500", "152605.820000", "152606.610000", "152607.397500", "152608.185000", "152608.972500", "152609.762500", "152610.550000", "152611.337500", "152612.125000", "152612.915000", "152613.702500", "152614.490000", "152615.277500", "152616.067500", "152616.855000", "152617.642500", "152618.430000", "152619.220000", "152620.007500", "152620.795000", "152621.585000", "152622.372500", "152623.160000", "152623.947500", "152624.737500", "152625.525000", "152626.312500", "152627.100000", "152627.890000", "152628.677500", "152629.465000", "152630.252500", "152631.042500", "152631.830000", "152632.617500", "152633.405000", "152634.195000", "152634.982500", "152635.770000", "152636.557500", "152637.347500", "152638.135000", "152638.922500", "152639.712500", "152640.500000", "152641.287500", "152642.075000", "152642.865000", "152643.652500", "152644.440000", "152645.227500", "152646.017500", "152646.805000", "152647.592500", "152648.380000", "152649.170000", "152649.957500", "152650.745000", "152651.532500", "152652.322500", "152653.110000", "152653.897500", "152654.685000", "152655.475000", "152656.262500", "152657.050000", "152657.840000", "152658.627500", "152659.415000", "152700.202500", "152700.992500", "152701.780000", "152702.567500", "152703.355000", "152704.145000", "152704.932500", "152705.720000", "152706.507500", "152707.297500", "152708.085000", "152708.872500", "152709.660000", "152710.450000", "152711.237500", "152712.025000", "152712.812500", "152713.602500", "152714.390000", "152715.177500", "152715.967500", "152716.755000", "152717.542500", "152718.330000", "152719.120000", "152719.907500", "152720.695000", "152721.482500", "152722.272500", "152723.060000", "152723.847500", "152724.635000", "152725.425000", "152726.212500", "152727.000000", "152727.787500", "152728.577500", "152729.365000", "152730.152500", "152730.940000", "152731.730000", "152732.517500", "152733.305000", "152734.095000", "152734.882500", "152735.670000", "152736.457500", "152737.247500", "152738.035000", "152738.822500", "152739.610000", "152740.400000", "152741.187500", "152741.975000", "152742.762500", "152743.552500", "152744.340000", "152745.127500", "152745.915000", "152746.705000", "152747.492500", "152748.280000", "152749.067500", "152749.857500", "152750.645000", "152751.432500", "152752.222500", "152753.010000", "152753.797500", "152754.585000", "152755.375000", "152756.162500", "152756.950000", "152757.737500", "152758.527500", "152759.315000", "152800.102500", "152800.890000", "152801.680000", "152802.467500", "152803.255000", "152804.042500", "152804.832500", "152805.620000", "152806.407500", "152807.195000", "152807.985000", "152808.772500", "152809.560000", "152810.350000", "152811.137500", "152811.925000", "152812.712500", "152813.502500", "152814.290000", "152815.077500", "152815.865000", "152816.655000", "152817.442500", "152818.230000", "152819.017500", "152819.807500", "152820.595000", "152821.382500", "152822.170000", "152822.960000", "152823.747500", "152824.535000", "152825.322500", "152826.112500", "152826.900000", "152827.687500", "152828.477500", "152829.265000", "152830.052500", "152830.840000", "152831.630000", "152832.417500", "152833.205000", "152833.992500", "152834.782500", "152835.570000", "152836.357500", "152837.145000", "152837.935000", "152838.722500", "152839.510000", "152840.297500", "152841.087500", "152841.875000", "152842.662500", "152843.450000", "152844.240000", "152845.027500", "152845.815000", "152846.605000", "152847.392500", "152848.180000", "152848.967500", "152849.757500", "152850.545000", "152851.332500", "152852.120000", "152852.910000", "152853.697500", "152854.485000", "152855.272500", "152856.062500", "152856.850000", "152857.637500", "152858.425000", "152859.215000", "152900.002500", "152900.790000", "152901.577500", "152902.367500", "152903.155000", "152903.942500", "152904.732500", "152905.520000", "152906.307500", "152907.095000", "152907.885000", "152908.672500", "152909.460000", "152910.247500", "152911.037500", "152911.825000", "152912.612500", "152913.400000", "152914.190000", "152914.977500", "152915.765000", "152916.552500", "152917.342500", "152918.130000", "152918.917500", "152919.705000", "152920.495000", "152921.282500", "152922.070000", "152922.860000", "152923.647500", "152924.435000", "152925.222500", "152926.012500", "152926.800000", "152927.587500", "152928.375000", "152929.165000", "152929.952500", "152930.740000", "152931.527500", "152932.317500", "152933.105000", "152933.892500", "152934.680000", "152935.470000", "152936.257500", "152937.045000", "152937.835000", "152938.622500", "152939.410000", "152940.197500", "152940.987500", "152941.775000", "152942.562500", "152943.350000", "152944.140000", "152944.927500", "152945.715000", "152946.502500", "152947.292500", "152948.080000", "152948.867500", "152949.655000", "152950.445000", "152951.232500", "152952.020000", "152952.807500", "152953.597500", "152954.385000", "152955.172500", "152955.962500", "152956.750000", "152957.537500", "152958.325000", "152959.115000", "152959.902500", "153000.690000", "153001.477500", "153002.267500", "153003.055000", "153003.842500", "153004.630000", "153005.420000", "153006.207500", "153006.995000", "153007.782500", "153008.572500", "153009.360000", "153010.147500", "153010.935000", "153011.725000", "153012.512500", "153013.300000", "153014.090000", "153014.877500", "153015.665000", "153016.452500", "153017.242500", "153018.030000", "153018.817500", "153019.605000", "153020.395000", "153021.182500", "153021.970000", "153022.757500", "153023.547500", "153024.335000", "153025.122500", "153025.910000", "153026.700000", "153027.487500", "153028.275000", "153029.062500", "153029.852500", "153030.640000", "153031.427500", "153032.217500", "153033.005000", "153033.792500", "153034.580000", "153035.370000", "153036.157500", "153036.945000", "153037.732500", "153038.522500", "153039.310000", "153040.097500", "153040.885000", "153041.675000", "153042.462500", "153043.250000", "153044.037500", "153044.827500", "153045.615000", "153046.402500", "153047.190000", "153047.980000", "153048.767500", "153049.555000", "153050.345000", "153051.132500", "153051.920000", "153052.707500", "153053.497500", "153054.285000", "153055.072500", "153055.860000", "153056.650000", "153057.437500", "153058.225000", "153059.012500", "153059.802500", "153100.590000", "153101.377500", "153102.165000", "153102.955000", "153103.742500", "153104.530000", "153105.317500", "153106.107500", "153106.895000", "153107.682500", "153108.472500", "153109.260000", "153110.047500", "153110.835000", "153111.625000", "153112.412500", "153113.200000", "153113.987500", "153114.777500", "153115.565000", "153116.352500", "153117.140000", "153117.930000", "153118.717500", "153119.505000", "153120.292500", "153121.082500", "153121.870000", "153122.657500", "153123.445000", "153124.235000", "153125.022500", "153125.810000", "153126.600000", "153127.387500", "153128.175000", "153128.962500", "153129.752500", "153130.540000", "153131.327500", "153132.115000", "153132.905000", "153133.692500", "153134.480000", "153135.267500", "153136.057500", "153136.845000", "153137.632500", "153138.420000", "153139.210000", "153139.997500", "153140.785000", "153141.572500", "153142.362500", "153143.150000", "153143.937500", "153144.727500", "153145.515000", "153146.302500", "153147.090000", "153147.880000", "153148.667500", "153149.455000", "153150.242500", "153151.032500", "153151.820000", "153152.607500", "153153.395000", "153154.185000", "153154.972500", "153155.760000", "153156.547500", "153157.337500", "153158.125000", "153158.912500", "153159.700000", "153200.490000", "153201.277500", "153202.065000", "153202.855000", "153203.642500", "153204.430000", "153205.217500", "153206.007500", "153206.795000", "153207.582500", "153208.370000", "153209.160000", "153209.947500", "153210.735000", "153211.522500", "153212.312500", "153213.100000", "153213.887500", "153214.675000", "153215.465000", "153216.252500", "153217.040000", "153217.827500", "153218.617500", "153219.405000", "153220.192500", "153220.982500", "153221.770000", "153222.557500", "153223.345000", "153224.135000", "153224.922500", "153225.710000", "153226.497500", "153227.287500", "153228.075000", "153228.862500", "153229.650000", "153230.440000", "153231.227500", "153232.015000", "153232.802500", "153233.592500", "153234.380000", "153235.167500", "153235.955000", "153236.745000", "153237.532500", "153238.320000", "153239.110000", "153239.897500", "153240.685000", "153241.472500", "153242.262500", "153243.050000", "153243.837500", "153244.625000", "153245.415000", "153246.202500", "153246.990000", "153247.777500", "153248.567500", "153249.355000", "153250.142500", "153250.930000", "153251.720000", "153252.507500", "153253.295000", "153254.085000", "153254.872500", "153255.660000", "153256.447500", "153257.237500", "153258.025000", "153258.812500", "153259.600000", "153300.390000", "153301.177500", "153301.965000", "153302.752500", "153303.542500", "153304.330000"],
