{
  "AcquisitionMatrixPE": 104,
  "AcquisitionNumber": 1,
  "AcquisitionTime": "16:39:16.692500",
  "BandwidthPerPixelPhaseEncode": 13.935,
  "BaseResolution": 104,
  "CoilString": "C:HEA;HEP",
  "ConversionSoftware": "dcm2niix",
  "ConversionSoftwareVersion": "v1.0.20210317",
  "DerivedVendorReportedEchoSpacing": 0.000690017,
  "DeviceSerialNumber": "35450",
  "DwellTime": 2.5e-06,
  "EchoTime": 0.0348,
  "EffectiveEchoSpacing": 0.000690017,
  "FlipAngle": 55,
  "ImageComments": "Unaliased MB8/PE3 (remote)",
  "ImageOrientationPatientDICOM": [0.999986, 0.000337262, 0.00521416, -7.28505e-08, 0.997916, -0.0645332],
  "ImageType": [
    "ORIGINAL",
    "PRIMARY",
    "M",
    "MB",
    "ND",
    "MOSAIC"
],
  "ImagingFrequency": 123.235,
  "InPlanePhaseEncodingDirectionDICOM": "COL",
  "InstitutionAddress": "Univeristy Ave. 197,Newark,North East,US,07102-1814",
  "InstitutionName": "RUBIC",
  "InstitutionalDepartmentName": "Department",
  "MRAcquisitionType": "2D",
  "MagneticFieldStrength": 3,
  "Manufacturer": "Siemens",
  "ManufacturersModelName": "TrioTim",
  "Modality": "MR",
  "MultibandAccelerationFactor": 8,
  "PartialFourier": 0.875,
  "PatientPosition": "HFS",
  "PercentPhaseFOV": 100,
  "PercentSampling": 100,
  "PhaseEncodingDirection": "j-",
  "PhaseEncodingSteps": 91,
  "PhaseResolution": 1,
  "PixelBandwidth": 1923,
  "ProcedureStepDescription": "Cole^Michael",
  "ProtocolName": "cmrr_mbep2d_bold_2mm_MB8_Task_8x",
  "PulseSequenceDetails": "%CustomerSeq%\\cmrr_mbep2d_bold",
  "ReceiveCoilName": "32Ch_Head",
  "ReconMatrixPE": 104,
  "RepetitionTime": 0.785,
  "SAR": 0.164509,
  "ScanOptions": "PFP\\FS",
  "ScanningSequence": "EP",
  "SequenceName": "epfid2d1_104",
  "SequenceVariant": "SK\\SS",
  "SeriesDescription": "cmrr_mbep2d_bold_2mm_MB8_Task_8x",
  "SeriesNumber": 27,
  "ShimSetting": [2113, -348, -7350, 468, -141, -320, 209, 4],
  "SliceThickness": 2,
  "SliceTiming": [0, 0.4375, 0.0875, 0.525, 0.175, 0.6125, 0.2625, 0.7, 0.35, 0, 0.4375, 0.0875, 0.525, 0.175, 0.6125, 0.2625, 0.7, 0.35, 0, 0.4375, 0.0875, 0.525, 0.175, 0.6125, 0.2625, 0.7, 0.35, 0, 0.4375, 0.0875, 0.525, 0.175, 0.6125, 0.2625, 0.7, 0.35, 0, 0.4375, 0.0875, 0.525, 0.175, 0.6125, 0.2625, 0.7, 0.35, 0, 0.4375, 0.0875, 0.525, 0.175, 0.6125, 0.2625, 0.7, 0.35, 0, 0.4375, 0.0875, 0.525, 0.175, 0.6125, 0.2625, 0.7, 0.35, 0, 0.4375, 0.0875, 0.525, 0.175, 0.6125, 0.2625, 0.7, 0.35],
  "SoftwareVersions": "syngo MR B19",
  "SpacingBetweenSlices": 2,
  "StationName": "MRC35450",
  "TaskName": "cpro",
  "TotalReadoutTime": 0.0710717,
  "TxRefAmp": 363.784,
  "dcmmeta_affine": [
    [-1.9999727010726929, -1.4570093753718538e-07, 0.010450106114149094, 104.98873901367188],
    [-0.000674524053465575, 1.9958311319351196, -0.1290646195411682, -81.82478332519531],
    [0.010428314097225666, 0.1290663778781891, 1.9958038330078125, -105.8681411743164],
    [0.0, 0.0, 0.0, 1.0]
],
  "dcmmeta_reorient_transform": [
    [0.0, -1.0, 0.0, 103.0],
    [1.0, 0.0, 0.0, 0.0],
    [0.0, 0.0, 1.0, 0.0],
    [0.0, 0.0, 0.0, 1.0]
],
  "dcmmeta_shape": [104, 104, 72, 581],
  "dcmmeta_slice_dim": 2,
  "dcmmeta_version": 0.6,
  "global": {
    "const": {
      "AcquisitionMatrix": [104, 0, 0, 104],
      "AngioFlag": "N",
      "BitsAllocated": 16,
      "BitsStored": 12,
      "Columns": 936,
      "EchoNumbers": 1,
      "EchoTime": 34.8,
      "EchoTrainLength": 1,
      "FlipAngle": 55.0,
      "HighBit": 11,
      "ImageOrientationPatient": [0.99998634931758, 0.00033726203615, 0.00521415696145, -7.2850471e-08, 0.99791556121803, -0.0645331905216],
      "ImagePositionPatient": [-936.97730445001, -954.29217285461, -43.220869084802],
      "ImageType": [
        "ORIGINAL",
        "PRIMARY",
        "M",
        "MB",
        "ND",
        "MOSAIC"
],
      "ImagedNucleus": "1H",
      "ImagingFrequency": 123.234504,
      "InPlanePhaseEncodingDirection": "COL",
      "MRAcquisitionType": "2D",
      "MagneticFieldStrength": 3.0,
      "Manufacturer": "SIEMENS",
      "ManufacturerModelName": "TrioTim",
      "Modality": "MR",
      "NumberOfAverages": 1.0,
      "NumberOfPhaseEncodingSteps": 91,
      "PercentPhaseFieldOfView": 100.0,
      "PercentSampling": 100.0,
      "PerformedProcedureStepStartTime": "141412.781000",
      "PhotometricInterpretation": "MONOCHROME2",
      "PixelBandwidth": 1923.0,
      "PixelRepresentation": 0,
      "PixelSpacing": [2.0, 2.0],
      "ProtocolName": "cmrr_mbep2d_bold_2mm_MB8_Task_8x",
      "RepetitionTime": 785.0,
      "Rows": 936,
      "SAR": 0.16450869366247,
      "SamplesPerPixel": 1,
      "ScanOptions": [
        "PFP",
        "FS"
],
      "ScanningSequence": "EP",
      "SequenceName": "epfid2d1_104",
      "SequenceVariant": [
        "SK",
        "SS"
],
      "SeriesDescription": "cmrr_mbep2d_bold_2mm_MB8_Task_8x",
      "SeriesNumber": 27,
      "SeriesTime": "163938.593000",
      "SliceLocation": -99.817110606713,
      "SliceThickness": 2.0,
      "SmallestImagePixelValue": 0,
      "SoftwareVersions": "syngo MR B19",
      "SpacingBetweenSlices": 2.000000009219,
      "SpecificCharacterSet": "ISO_IR 100",
      "StudyID": "1",
      "StudyTime": "141412.750000",
      "TransmitCoilName": "Body",
      "VariableFlipAngleFlag": "N",
      "WindowCenterWidthExplanation": "Algo1",
      "dBdt": 0.0},
    "slices": {}
  },
  "time": {
    "samples": {
      "AcquisitionNumber": [1, 2, 3, 4, 5, 6, 7, 8, 9, 10, 11, 12, 13, 14, 15, 16, 17, 18, 19, 20, 21, 22, 23, 24, 25, 26, 27, 28, 29, 30, 31, 32, 33, 34, 35, 36, 37, 38, 39, 40, 41, 42, 43, 44, 45, 46, 47, 48, 49, 50, 51, 52, 53, 54, 55, 56, 57, 58, 59, 60, 61, 62, 63, 64, 65, 66, 67, 68, 69, 70, 71, 72, 73, 74, 75, 76, 77, 78, 79, 80, 81, 82, 83, 84, 85, 86, 87, 88, 89, 90, 91, 92, 93, 94, 95, 96, 97, 98, 99, 100, 101, 102, 103, 104, 105, 106, 107, 108, 109, 110, 111, 112, 113, 114, 115, 116, 117, 118, 119, 120, 121, 122, 123, 124, 125, 126, 127, 128, 129, 130, 131, 132, 133, 134, 135, 136, 137, 138, 139, 140, 141, 142, 143, 144, 145, 146, 147, 148, 149, 150, 151, 152, 153, 154, 155, 156, 157, 158, 159, 160, 161, 162, 163, 164, 165, 166, 167, 168, 169, 170, 171, 172, 173, 174, 175, 176, 177, 178, 179, 180, 181, 182, 183, 184, 185, 186, 187, 188, 189, 190, 191, 192, 193, 194, 195, 196, 197, 198, 199, 200, 201, 202, 203, 204, 205, 206, 207, 208, 209, 210, 211, 212, 213, 214, 215, 216, 217, 218, 219, 220, 221, 222, 223, 224, 225, 226, 227, 228, 229, 230, 231, 232, 233, 234, 235, 236, 237, 238, 239, 240, 241, 242, 243, 244, 245, 246, 247, 248, 249, 250, 251, 252, 253, 254, 255, 256, 257, 258, 259, 260, 261, 262, 263, 264, 265, 266, 267, 268, 269, 270, 271, 272, 273, 274, 275, 276, 277, 278, 279, 280, 281, 282, 283, 284, 285, 286, 287, 288, 289, 290, 291, 292, 293, 294, 295, 296, 297, 298, 299, 300, 301, 302, 303, 304, 305, 306, 307, 308, 309, 310, 311, 312, 313, 314, 315, 316, 317, 318, 319, 320, 321, 322, 323, 324, 325, 326, 327, 328, 329, 330, 331, 332, 333, 334, 335, 336, 337, 338, 339, 340, 341, 342, 343, 344, 345, 346, 347, 348, 349, 350, 351, 352, 353, 354, 355, 356, 357, 358, 359, 360, 361, 362, 363, 364, 365, 366, 367, 368, 369, 370, 371, 372, 373, 374, 375, 376, 377, 378, 379, 380, 381, 382, 383, 384, 385, 386, 387, 388, 389, 390, 391, 392, 393, 394, 395, 396, 397, 398, 399, 400, 401, 402, 403, 404, 405, 406, 407, 408, 409, 410, 411, 412, 413, 414, 415, 416, 417, 418, 419, 420, 421, 422, 423, 424, 425, 426, 427, 428, 429, 430, 431, 432, 433, 434, 435, 436, 437, 438, 439, 440, 441, 442, 443, 444, 445, 446, 447, 448, 449, 450, 451, 452, 453, 454, 455, 456, 457, 458, 459, 460, 461, 462, 463, 464, 465, 466, 467, 468, 469, 470, 471, 472, 473, 474, 475, 476, 477, 478, 479, 480, 481, 482, 483, 484, 485, 486, 487, 488, 489, 490, 491, 492, 493, 494, 495, 496, 497, 498, 499, 500, 501, 502, 503, 504, 505, 506, 507, 508, 509, 510, 511, 512, 513, 514, 515, 516, 517, 518, 519, 520, 521, 522, 523, 524, 525, 526, 527, 528, 529, 530, 531, 532, 533, 534, 535, 536, 537, 538, 539, 540, 541, 542, 543, 544, 545, 546, 547, 548, 549, 550, 551, 552, 553, 554, 555, 556, 557, 558, 559, 560, 561, 562, 563, 564, 565, 566, 567, 568, 569, 570, 571, 572, 573, 574, 575, 576, 577, 578, 579, 580, 581],
      "AcquisitionTime": ["163916.692500", "163917.480000", "163918.267500", "163919.055000", "163919.845000", "163920.632500", "163921.420000", "163922.207500", "163922.997500", "163923.785000", "163924.572500", "163925.360000", "163926.150000", "163926.937500", "163927.725000", "163928.515000", "163929.302500", "163930.090000", "163930.877500", "163931.667500", "163932.455000", "163933.242500", "163934.030000", "163934.820000", "163935.607500", "163936.395000", "163937.182500", "163937.972500", "163938.760000", "163939.547500", "163940.335000", "163941.125000", "163941.912500", "163942.700000", "163943.487500", "163944.277500", "163945.065000", "163945.852500", "163946.642500", "163947.430000", "163948.217500", "163949.005000", "163949.795000", "163950.582500", "163951.370000", "163952.157500", "163952.947500", "163953.735000", "163954.522500", "163955.310000", "163956.100000", "163956.887500", "163957.675000", "163958.462500", "163959.252500", "164000.040000", "164000.827500", "164001.615000", "164002.405000", "164003.192500", "164003.980000", "164004.770000", "164005.557500", "164006.345000", "164007.132500", "164007.922500", "164008.710000", "164009.497500", "164010.285000", "164011.075000", "164011.862500", "164012.650000", "164013.437500", "164014.227500", "164015.015000", "164015.802500", "164016.590000", "164017.380000", "164018.167500", "164018.955000", "164019.745000", "164020.532500", "164021.320000", "164022.107500", "164022.897500", "164023.685000", "164024.472500", "164025.260000", "164026.050000", "164026.837500", "164027.625000", "164028.412500", "164029.202500", "164029.990000", "164030.777500", "164031.565000", "164032.355000", "164033.142500", "164033.930000", "164034.717500", "164035.507500", "164036.295000", "164037.082500", "164037.872500", "164038.660000", "164039.447500", "164040.235000", "164041.025000", "164041.812500", "164042.600000", "164043.387500", "164044.177500", "164044.965000", "164045.752500", "164046.540000", "164047.330000", "164048.117500", "164048.905000", "164049.692500", "164050.482500", "164051.270000", "164052.057500", "164052.845000", "164053.635000", "164054.422500", "164055.210000", "164056.000000", "164056.787500", "164057.575000", "164058.362500", "164059.152500", "164059.940000", "164100.727500", "164101.515000", "164102.305000", "164103.092500", "164103.880000", "164104.667500", "164105.457500", "164106.245000", "164107.032500", "164107.820000", "164108.610000", "164109.397500", "164110.185000", "164110.972500", "164111.762500", "164112.550000", "164113.337500", "164114.127500", "164114.915000", "164115.702500", "164116.490000", "164117.280000", "164118.067500", "164118.855000", "164119.642500", "164120.432500", "164121.220000", "164122.007500", "164122.795000", "164123.585000", "164124.372500", "164125.160000", "164125.947500", "164126.737500", "164127.525000", "164128.312500", "164129.100000", "164129.890000", "164130.677500", "164131.465000", "164132.255000", "164133.042500", "164133.830000", "164134.617500", "164135.407500", "164136.195000", "164136.982500", "164137.770000", "164138.560000", "164139.347500", "164140.135000", "164140.922500", "164141.712500", "164142.500000", "164143.287500", "164144.075000", "164144.865000", "164145.652500", "164146.440000", "164147.227500", "164148.017500", "164148.805000", "164149.592500", "164150.382500", "164151.170000", "164151.957500", "164152.745000", "164153.535000", "164154.322500", "164155.110000", "164155.897500", "164156.687500", "164157.475000", "164158.262500", "164159.050000", "164159.840000", "164200.627500", "164201.415000", "164202.202500", "164202.992500", "164203.780000", "164204.567500", "164205.355000", "164206.145000", "164206.932500", "164207.720000", "164208.510000", "164209.297500", "164210.085000", "164210.872500", "164211.662500", "164212.450000", "164213.237500", "164214.025000", "164214.815000", "164215.602500", "164216.390000", "164217.177500", "164217.967500", "164218.755000", "164219.542500", "164220.330000", "164221.120000", "164221.907500", "164222.695000", "164223.482500", "164224.272500", "164225.060000", "164225.847500", "164226.637500", "164227.425000", "164228.212500", "164229.000000", "164229.790000", "164230.577500", "164231.365000", "164232.152500", "164232.942500", "164233.730000", "164234.517500", "164235.305000", "164236.095000", "164236.882500", "164237.670000", "164238.457500", "164239.247500", "164240.035000", "164240.822500", "164241.610000", "164242.400000", "164243.187500", "164243.975000", "164244.765000", "164245.552500", "164246.340000", "164247.127500", "164247.917500", "164248.705000", "164249.492500", "164250.280000", "164251.070000", "164251.857500", "164252.645000", "164253.432500", "164254.222500", "164255.010000", "164255.797500", "164256.585000", "164257.375000", "164258.162500", "164258.950000", "164259.737500", "164300.527500", "164301.315000", "164302.102500", "164302.892500", "164303.680000", "164304.467500", "164305.255000", "164306.045000", "164306.832500", "164307.620000", "164308.407500", "164309.197500", "164309.985000", "164310.772500", "164311.560000", "164312.350000", "164313.137500", "164313.925000", "164314.712500", "164315.502500", "164316.290000", "164317.077500", "164317.865000", "164318.655000", "164319.442500", "164320.230000", "164321.020000", "164321.807500", "164322.595000", "164323.382500", "164324.172500", "164324.960000", "164325.747500", "164326.535000", "164327.325000", "164328.112500", "164328.900000", "164329.687500", "164330.477500", "164331.265000", "164332.052500", "164332.840000", "164333.630000", "164334.417500", "164335.205000", "164335.995000", "164336.782500", "164337.570000", "164338.357500", "164339.147500", "164339.935000", "164340.722500", "164341.510000", "164342.300000", "164343.087500", "164343.875000", "164344.662500", "164345.452500", "164346.240000", "164347.027500", "164347.815000", "164348.605000", "164349.392500", "164350.180000", "164350.967500", "164351.757500", "164352.545000", "164353.332500", "164354.122500", "164354.910000", "164355.697500", "164356.485000", "164357.275000", "164358.062500", "164358.850000", "164359.637500", "164400.427500", "164401.215000", "164402.002500", "164402.790000", "164403.580000", "164404.367500", "164405.155000", "164405.942500", "164406.732500", "164407.520000", "164408.307500", "164409.095000", "164409.885000", "164410.672500", "164411.460000", "164412.250000", "164413.037500", "164413.825000", "164414.612500", "164415.402500", "164416.190000", "164416.977500", "164417.765000", "164418.555000", "164419.342500", "164420.130000", "164420.917500", "164421.707500", "164422.495000", "164423.282500", "164424.070000", "164424.860000", "164425.647500", "164426.435000", "164427.222500", "164428.012500", "164428.800000", "164429.587500", "164430.377500", "164431.165000", "164431.952500", "164432.740000", "164433.530000", "164434.317500", "164435.105000", "164435.892500", "164436.682500", "164437.470000", "164438.257500", "164439.045000", "164439.835000", "164440.622500", "164441.410000", "164442.197500", "164442.987500", "164443.775000", "164444.562500", "164445.350000", "164446.140000", "164446.927500", "164447.715000", "164448.505000", "164449.292500", "164450.080000", "164450.867500", "164451.657500", "164452.445000", "164453.232500", "164454.020000", "164454.810000", "164455.597500", "164456.385000", "164457.172500", "164457.962500", "164458.750000", "164459.537500", "164500.325000", "164501.115000", "164501.902500", "164502.690000", "164503.477500", "164504.267500", "164505.055000", "164505.842500", "164506.632500", "164507.420000", "164508.207500", "164508.995000", "164509.785000", "164510.572500", "164511.360000", "164512.147500", "164512.937500", "164513.725000", "164514.512500", "164515.300000", "164516.090000", "164516.877500", "164517.665000", "164518.452500", "164519.242500", "164520.030000", "164520.817500", "164521.605000", "164522.395000", "164523.182500", "164523.970000", "164524.760000", "164525.547500", "164526.335000", "164527.122500", "164527.912500", "164528.700000", "164529.487500", "164530.275000", "164531.065000", "164531.852500", "164532.640000", "164533.427500", "164534.217500", "164535.005000", "164535.792500", "164536.580000", "164537.370000", "164538.157500", "164538.945000", "164539.732500", "164540.522500", "164541.310000", "164542.097500", "164542.887500", "164543.675000", "164544.462500", "164545.250000", "164546.040000", "164546.827500", "164547.615000", "164548.402500", "164549.192500", "164549.980000", "164550.767500", "164551.555000", "164552.345000", "164553.132500", "164553.920000", "164554.707500", "164555.497500", "164556.285000", "164557.072500", "164557.860000", "164558.650000", "164559.437500", "164600.225000", "164601.015000", "164601.802500", "164602.590000", "164603.377500", "164604.167500", "164604.955000", "164605.742500", "164606.530000", "164607.320000", "164608.107500", "164608.895000", "164609.682500", "164610.472500", "164611.260000", "164612.047500", "164612.835000", "164613.625000", "164614.412500", "164615.200000", "164615.987500", "164616.777500", "164617.565000", "164618.352500", "164619.142500", "164619.930000", "164620.717500", "164621.505000", "164622.295000", "164623.082500", "164623.870000", "164624.657500", "164625.447500", "164626.235000", "164627.022500", "164627.810000", "164628.600000", "164629.387500", "164630.175000", "164630.962500", "164631.752500", "164632.540000", "164633.327500", "164634.115000", "164634.905000", "164635.692500", "164636.480000", "164637.270000", "164638.057500", "164638.845000", "164639.632500", "164640.422500", "164641.210000", "164641.997500", "164642.785000", "164643.575000", "164644.362500", "164645.150000", "164645.937500", "164646.727500", "164647.515000", "164648.302500", "164649.090000", "164649.880000", "164650.667500", "164651.455000", "164652.245000", "164653.032500", "164653.820000"],
      "ContentTime": ["163938.593000", "163938.593000", "163938.609000", "163938.609000", "163938.609000", "163938.609000", "163938.609000", "163938.609000", "163938.609000", "163938.625000", "163938.625000", "163938.625000", "163938.625000", "163938.625000", "163938.625000", "163938.625000", "163938.640000", "163938.640000", "163938.640000", "163938.640000", "163938.640000", "163938.640000", "163938.640000", "163938.656000", "163958.578000", "163958.578000", "163958.578000", "163958.578000", "163958.578000", "163958.593000", "163958.593000", "163958.593000", "163958.593000", "163958.593000", "163958.593000", "163958.593000", "163958.609000", "163958.609000", "163958.609000", "163958.609000", "163958.609000", "163958.609000", "163958.609000", "163958.625000", "163958.625000", "163958.625000", "163958.625000", "163958.625000", "163958.625000", "164018.578000", "164018.578000", "164018.578000", "164018.578000", "164018.578000", "164018.593000", "164018.593000", "164018.593000", "164018.593000", "164018.593000", "164018.593000", "164018.593000", "164018.609000", "164018.609000", "164018.609000", "164018.609000", "164018.609000", "164018.609000", "164018.609000", "164018.625000", "164018.625000", "164018.625000", "164018.625000", "164018.625000", "164018.625000", "164018.625000", "164038.578000", "164038.578000", "164038.578000", "164038.578000", "164038.578000", "164038.593000", "164038.593000", "164038.593000", "164038.593000", "164038.593000", "164038.593000", "164038.593000", "164038.609000", "164038.609000", "164038.609000", "164038.609000", "164038.609000", "164038.609000", "164038.609000", "164038.625000", "164038.625000", "164038.625000", "164038.625000", "164038.625000", "164038.625000", "164058.578000", "164058.578000", "164058.578000", "164058.578000", "164058.578000", "164058.593000", "164058.593000", "164058.593000", "164058.593000", "164058.593000", "164058.593000", "164058.593000", "164058.609000", "164058.609000", "164058.609000", "164058.609000", "164058.609000", "164058.609000", "164058.625000", "164058.625000", "164058.625000", "164058.625000", "164058.625000", "164058.625000", "164058.625000", "164058.640000", "164118.578000", "164118.578000", "164118.578000", "164118.578000", "164118.578000", "164118.593000", "164118.593000", "164118.593000", "164118.593000", "164118.593000", "164118.609000", "164118.609000", "164118.609000", "164118.609000", "164118.609000", "164118.609000", "164118.609000", "164118.625000", "164118.625000", "164118.625000", "164118.625000", "164118.625000", "164118.640000", "164118.640000", "164118.640000", "164138.578000", "164138.578000", "164138.578000", "164138.578000", "164138.578000", "164138.593000", "164138.593000", "164138.593000", "164138.593000", "164138.593000", "164138.593000", "164138.593000", "164138.609000", "164138.609000", "164138.609000", "164138.609000", "164138.609000", "164138.609000", "164138.609000", "164138.625000", "164138.625000", "164138.625000", "164138.625000", "164138.625000", "164138.625000", "164138.640000", "164158.578000", "164158.578000", "164158.578000", "164158.578000", "164158.578000", "164158.593000", "164158.593000", "164158.593000", "164158.593000", "164158.593000", "164158.593000", "164158.593000", "164158.609000", "164158.609000", "164158.609000", "164158.609000", "164158.609000", "164158.609000", "164158.625000", "164158.625000", "164158.625000", "164158.625000", "164158.625000", "164158.625000", "164158.625000", "164218.578000", "164218.578000", "164218.578000", "164218.578000", "164218.578000", "164218.593000", "164218.593000", "164218.593000", "164218.593000", "164218.593000", "164218.593000", "164218.593000", "164218.609000", "164218.609000", "164218.609000", "164218.609000", "164218.609000", "164218.609000", "164218.609000", "164218.625000", "164218.625000", "164218.625000", "164218.625000", "164218.625000", "164218.625000", "164218.625000", "164238.578000", "164238.578000", "164238.578000", "164238.578000", "164238.578000", "164238.593000", "164238.593000", "164238.593000", "164238.593000", "164238.593000", "164238.593000", "164238.593000", "164238.609000", "164238.609000", "164238.609000", "164238.609000", "164238.625000", "164238.625000", "164238.625000", "164238.625000", "164238.625000", "164238.625000", "164238.625000", "164238.640000", "164238.640000", "164258.578000", "164258.578000", "164258.578000", "164258.578000", "164258.578000", "164258.593000", "164258.593000", "164258.593000", "164258.593000", "164258.593000", "164258.593000", "164258.593000", "164258.609000", "164258.609000", "164258.609000", "164258.609000", "164258.609000", "164258.609000", "164258.609000", "164258.625000", "164258.625000", "164258.625000", "164258.625000", "164258.625000", "164258.625000", "164258.625000", "164318.578000", "164318.578000", "164318.578000", "164318.578000", "164318.578000", "164318.593000", "164318.593000", "164318.593000", "164318.593000", "164318.593000", "164318.593000", "164318.593000", "164318.609000", "164318.609000", "164318.609000", "164318.609000", "164318.609000", "164318.609000", "164318.609000", "164318.625000", "164318.625000", "164318.625000", "164318.625000", "164318.625000", "164318.625000", "164338.578000", "164338.578000", "164338.578000", "164338.578000", "164338.578000", "164338.593000", "164338.593000", "164338.593000", "164338.593000", "164338.593000", "164338.593000", "164338.593000", "164338.609000", "164338.609000", "164338.609000", "164338.609000", "164338.609000", "164338.609000", "164338.625000", "164338.625000", "164338.625000", "164338.625000", "164338.625000", "164338.625000", "164338.640000", "164338.640000", "164358.578000", "164358.578000", "164358.578000", "164358.578000", "164358.578000", "164358.593000", "164358.593000", "164358.593000", "164358.593000", "164358.593000", "164358.593000", "164358.609000", "164358.609000", "164358.609000", "164358.609000", "164358.609000", "164358.609000", "164358.625000", "164358.625000", "164358.625000", "164358.625000", "164358.625000", "164358.625000", "164358.625000", "164358.640000", "164418.578000", "164418.578000", "164418.578000", "164418.578000", "164418.578000", "164418.593000", "164418.593000", "164418.593000", "164418.593000", "164418.593000", "164418.593000", "164418.593000", "164418.609000", "164418.609000", "164418.609000", "164418.609000", "164418.609000", "164418.609000", "164418.609000", "164418.625000", "164418.625000", "164418.625000", "164418.625000", "164418.625000", "164418.640000", "164418.640000", "164438.578000", "164438.578000", "164438.578000", "164438.578000", "164438.578000", "164438.593000", "164438.593000", "164438.593000", "164438.593000", "164438.593000", "164438.593000", "164438.593000", "164438.609000", "164438.609000", "164438.609000", "164438.609000", "164438.609000", "164438.609000", "164438.609000", "164438.625000", "164438.625000", "164438.625000", "164438.625000", "164438.625000", "164438.640000", "164458.578000", "164458.578000", "164458.578000", "164458.578000", "164458.578000", "164458.593000", "164458.593000", "164458.593000", "164458.593000", "164458.593000", "164458.593000", "164458.609000", "164458.609000", "164458.609000", "164458.609000", "164458.609000", "164458.609000", "164458.609000", "164458.625000", "164458.625000", "164458.625000", "164458.625000", "164458.625000", "164458.625000", "164458.625000", "164458.640000", "164518.578000", "164518.578000", "164518.578000", "164518.578000", "164518.578000", "164518.593000", "164518.593000", "164518.593000", "164518.593000", "164518.593000", "164518.593000", "164518.593000", "164518.609000", "164518.609000", "164518.609000", "164518.609000", "164518.609000", "164518.609000", "164518.609000", "164518.625000", "164518.625000", "164518.625000", "164518.625000", "164518.625000", "164518.625000", "164538.578000", "164538.578000", "164538.578000", "164538.578000", "164538.593000", "164538.593000", "164538.593000", "164538.593000", "164538.609000", "164538.609000", "164538.609000", "164538.609000", "164538.609000", "164538.609000", "164538.609000", "164538.625000", "164538.625000", "164538.625000", "164538.625000", "164538.625000", "164538.640000", "164538.640000", "164538.640000", "164538.640000", "164538.640000", "164558.578000", "164558.578000", "164558.578000", "164558.578000", "164558.578000", "164558.593000", "164558.593000", "164558.593000", "164558.593000", "164558.593000", "164558.609000", "164558.609000", "164558.609000", "164558.609000", "164558.609000", "164558.609000", "164558.609000", "164558.625000", "164558.625000", "164558.625000", "164558.625000", "164558.625000", "164558.625000", "164558.640000", "164558.640000", "164558.640000", "164618.578000", "164618.578000", "164618.578000", "164618.578000", "164618.578000", "164618.593000", "164618.593000", "164618.593000", "164618.593000", "164618.593000", "164618.593000", "164618.609000", "164618.609000", "164618.609000", "164618.609000", "164618.609000", "164618.609000", "164618.625000", "164618.625000", "164618.625000", "164618.625000", "164618.625000", "164618.625000", "164618.625000", "164618.640000", "164638.578000", "164638.578000", "164638.578000", "164638.578000", "164638.578000", "164638.593000", "164638.593000", "164638.593000", "164638.593000", "164638.593000", "164638.593000", "164638.609000", "164638.609000", "164638.609000", "164638.609000", "164638.609000", "164638.625000", "164638.625000", "164638.625000", "164638.625000", "164638.625000", "164638.625000", "164638.625000", "164638.640000", "164638.640000", "164638.640000", "164655.609000", "164655.609000", "164655.609000", "164655.609000", "164655.609000", "164655.609000", "164655.609000", "164655.625000", "164655.625000", "164655.625000", "164655.625000", "164655.640000", "164655.640000", "164655.640000", "164655.640000", "164655.640000", "164655.640000", "164655.640000", "164655.656000", "164655.656000", "164655.656000", "164655.656000"],
      "DataSetTrailingPadding": [
