{
  "AcquisitionMatrixPE": 104,
  "AcquisitionNumber": 1,
  "AcquisitionTime": "16:31:16.675000",
  "BandwidthPerPixelPhaseEncode": 13.935,
  "BaseResolution": 104,
  "CoilString": "C:HEA;HEP",
  "ConversionSoftware": "dcm2niix",
  "ConversionSoftwareVersion": "v1.0.20210317",
  "DerivedVendorReportedEchoSpacing": 0.000690017,
  "DeviceSerialNumber": "35450",
  "DwellTime": 2.5e-06,
  "EchoTime": 0.0348,
  "EffectiveEchoSpacing": 0.000690017,
  "FlipAngle": 55,
  "ImageComments": "Unaliased MB8/PE3 (remote)",
  "ImageOrientationPatientDICOM": [0.999986, 0.000337262, 0.00521416, -7.28505e-08, 0.997916, -0.0645332],
  "ImageType": [
    "ORIGINAL",
    "PRIMARY",
    "M",
    "MB",
    "ND",
    "MOSAIC"
],
  "ImagingFrequency": 123.235,
  "InPlanePhaseEncodingDirectionDICOM": "COL",
  "InstitutionAddress": "Univeristy Ave. 197,Newark,North East,US,07102-1814",
  "InstitutionName": "RUBIC",
  "InstitutionalDepartmentName": "Department",
  "MRAcquisitionType": "2D",
  "MagneticFieldStrength": 3,
  "Manufacturer": "Siemens",
  "ManufacturersModelName": "TrioTim",
  "Modality": "MR",
  "MultibandAccelerationFactor": 8,
  "PartialFourier": 0.875,
  "PatientPosition": "HFS",
  "PercentPhaseFOV": 100,
  "PercentSampling": 100,
  "PhaseEncodingDirection": "j-",
  "PhaseEncodingSteps": 91,
  "PhaseResolution": 1,
  "PixelBandwidth": 1923,
  "ProcedureStepDescription": "Cole^Michael",
  "ProtocolName": "cmrr_mbep2d_bold_2mm_MB8_Task_8x",
  "PulseSequenceDetails": "%CustomerSeq%\\cmrr_mbep2d_bold",
  "ReceiveCoilName": "32Ch_Head",
  "ReconMatrixPE": 104,
  "RepetitionTime": 0.785,
  "SAR": 0.164509,
  "ScanOptions": "PFP\\FS",
  "ScanningSequence": "EP",
  "SequenceName": "epfid2d1_104",
  "SequenceVariant": "SK\\SS",
  "SeriesDescription": "cmrr_mbep2d_bold_2mm_MB8_Task_8x",
  "SeriesNumber": 25,
  "ShimSetting": [2113, -348, -7350, 468, -141, -320, 209, 4],
  "SliceThickness": 2,
  "SliceTiming": [0, 0.4375, 0.0875, 0.525, 0.175, 0.6125, 0.2625, 0.7, 0.35, 0, 0.4375, 0.0875, 0.525, 0.175, 0.6125, 0.2625, 0.7, 0.35, 0, 0.4375, 0.0875, 0.525, 0.175, 0.6125, 0.2625, 0.7, 0.35, 0, 0.4375, 0.0875, 0.525, 0.175, 0.6125, 0.2625, 0.7, 0.35, 0, 0.4375, 0.0875, 0.525, 0.175, 0.6125, 0.2625, 0.7, 0.35, 0, 0.4375, 0.0875, 0.525, 0.175, 0.6125, 0.2625, 0.7, 0.35, 0, 0.4375, 0.0875, 0.525, 0.175, 0.6125, 0.2625, 0.7, 0.35, 0, 0.4375, 0.0875, 0.525, 0.175, 0.6125, 0.2625, 0.7, 0.35],
  "SoftwareVersions": "syngo MR B19",
  "SpacingBetweenSlices": 2,
  "StationName": "MRC35450",
  "TaskName": "cpro",
  "TotalReadoutTime": 0.0710717,
  "TxRefAmp": 363.784,
  "dcmmeta_affine": [
    [-1.9999727010726929, -1.4570093753718538e-07, 0.010450106114149094, 104.98873901367188],
    [-0.000674524053465575, 1.9958311319351196, -0.1290646195411682, -81.82478332519531],
    [0.010428314097225666, 0.1290663778781891, 1.9958038330078125, -105.8681411743164],
    [0.0, 0.0, 0.0, 1.0]
],
  "dcmmeta_reorient_transform": [
    [0.0, -1.0, 0.0, 103.0],
    [1.0, 0.0, 0.0, 0.0],
    [0.0, 0.0, 1.0, 0.0],
    [0.0, 0.0, 0.0, 1.0]
],
  "dcmmeta_shape": [104, 104, 72, 581],
  "dcmmeta_slice_dim": 2,
  "dcmmeta_version": 0.6,
  "global": {
    "const": {
      "AcquisitionMatrix": [104, 0, 0, 104],
      "AngioFlag": "N",
      "BitsAllocated": 16,
      "BitsStored": 12,
      "Columns": 936,
      "EchoNumbers": 1,
      "EchoTime": 34.8,
      "EchoTrainLength": 1,
      "FlipAngle": 55.0,
      "HighBit": 11,
      "ImageOrientationPatient": [0.99998634931758, 0.00033726203615, 0.00521415696145, -7.2850471e-08, 0.99791556121803, -0.0645331905216],
      "ImagePositionPatient": [-936.97730445001, -954.29217285461, -43.220869084802],
      "ImageType": [
        "ORIGINAL",
        "PRIMARY",
        "M",
        "MB",
        "ND",
        "MOSAIC"
],
      "ImagedNucleus": "1H",
      "ImagingFrequency": 123.234504,
      "InPlanePhaseEncodingDirection": "COL",
      "MRAcquisitionType": "2D",
      "MagneticFieldStrength": 3.0,
      "Manufacturer": "SIEMENS",
      "ManufacturerModelName": "TrioTim",
      "Modality": "MR",
      "NumberOfAverages": 1.0,
      "NumberOfPhaseEncodingSteps": 91,
      "PercentPhaseFieldOfView": 100.0,
      "PercentSampling": 100.0,
      "PerformedProcedureStepStartTime": "141412.781000",
      "PhotometricInterpretation": "MONOCHROME2",
      "PixelBandwidth": 1923.0,
      "PixelRepresentation": 0,
      "PixelSpacing": [2.0, 2.0],
      "ProtocolName": "cmrr_mbep2d_bold_2mm_MB8_Task_8x",
      "RepetitionTime": 785.0,
      "Rows": 936,
      "SAR": 0.16450869366247,
      "SamplesPerPixel": 1,
      "ScanOptions": [
        "PFP",
        "FS"
],
      "ScanningSequence": "EP",
      "SequenceName": "epfid2d1_104",
      "SequenceVariant": [
        "SK",
        "SS"
],
      "SeriesDescription": "cmrr_mbep2d_bold_2mm_MB8_Task_8x",
      "SeriesNumber": 25,
      "SeriesTime": "163142.531000",
      "SliceLocation": -99.817110606713,
      "SliceThickness": 2.0,
      "SmallestImagePixelValue": 0,
      "SoftwareVersions": "syngo MR B19",
      "SpacingBetweenSlices": 2.000000009219,
      "SpecificCharacterSet": "ISO_IR 100",
      "StudyID": "1",
      "StudyTime": "141412.750000",
      "TransmitCoilName": "Body",
      "VariableFlipAngleFlag": "N",
      "WindowCenterWidthExplanation": "Algo1",
      "dBdt": 0.0},
    "slices": {}
  },
  "time": {
    "samples": {
      "AcquisitionNumber": [1, 2, 3, 4, 5, 6, 7, 8, 9, 10, 11, 12, 13, 14, 15, 16, 17, 18, 19, 20, 21, 22, 23, 24, 25, 26, 27, 28, 29, 30, 31, 32, 33, 34, 35, 36, 37, 38, 39, 40, 41, 42, 43, 44, 45, 46, 47, 48, 49, 50, 51, 52, 53, 54, 55, 56, 57, 58, 59, 60, 61, 62, 63, 64, 65, 66, 67, 68, 69, 70, 71, 72, 73, 74, 75, 76, 77, 78, 79, 80, 81, 82, 83, 84, 85, 86, 87, 88, 89, 90, 91, 92, 93, 94, 95, 96, 97, 98, 99, 100, 101, 102, 103, 104, 105, 106, 107, 108, 109, 110, 111, 112, 113, 114, 115, 116, 117, 118, 119, 120, 121, 122, 123, 124, 125, 126, 127, 128, 129, 130, 131, 132, 133, 134, 135, 136, 137, 138, 139, 140, 141, 142, 143, 144, 145, 146, 147, 148, 149, 150, 151, 152, 153, 154, 155, 156, 157, 158, 159, 160, 161, 162, 163, 164, 165, 166, 167, 168, 169, 170, 171, 172, 173, 174, 175, 176, 177, 178, 179, 180, 181, 182, 183, 184, 185, 186, 187, 188, 189, 190, 191, 192, 193, 194, 195, 196, 197, 198, 199, 200, 201, 202, 203, 204, 205, 206, 207, 208, 209, 210, 211, 212, 213, 214, 215, 216, 217, 218, 219, 220, 221, 222, 223, 224, 225, 226, 227, 228, 229, 230, 231, 232, 233, 234, 235, 236, 237, 238, 239, 240, 241, 242, 243, 244, 245, 246, 247, 248, 249, 250, 251, 252, 253, 254, 255, 256, 257, 258, 259, 260, 261, 262, 263, 264, 265, 266, 267, 268, 269, 270, 271, 272, 273, 274, 275, 276, 277, 278, 279, 280, 281, 282, 283, 284, 285, 286, 287, 288, 289, 290, 291, 292, 293, 294, 295, 296, 297, 298, 299, 300, 301, 302, 303, 304, 305, 306, 307, 308, 309, 310, 311, 312, 313, 314, 315, 316, 317, 318, 319, 320, 321, 322, 323, 324, 325, 326, 327, 328, 329, 330, 331, 332, 333, 334, 335, 336, 337, 338, 339, 340, 341, 342, 343, 344, 345, 346, 347, 348, 349, 350, 351, 352, 353, 354, 355, 356, 357, 358, 359, 360, 361, 362, 363, 364, 365, 366, 367, 368, 369, 370, 371, 372, 373, 374, 375, 376, 377, 378, 379, 380, 381, 382, 383, 384, 385, 386, 387, 388, 389, 390, 391, 392, 393, 394, 395, 396, 397, 398, 399, 400, 401, 402, 403, 404, 405, 406, 407, 408, 409, 410, 411, 412, 413, 414, 415, 416, 417, 418, 419, 420, 421, 422, 423, 424, 425, 426, 427, 428, 429, 430, 431, 432, 433, 434, 435, 436, 437, 438, 439, 440, 441, 442, 443, 444, 445, 446, 447, 448, 449, 450, 451, 452, 453, 454, 455, 456, 457, 458, 459, 460, 461, 462, 463, 464, 465, 466, 467, 468, 469, 470, 471, 472, 473, 474, 475, 476, 477, 478, 479, 480, 481, 482, 483, 484, 485, 486, 487, 488, 489, 490, 491, 492, 493, 494, 495, 496, 497, 498, 499, 500, 501, 502, 503, 504, 505, 506, 507, 508, 509, 510, 511, 512, 513, 514, 515, 516, 517, 518, 519, 520, 521, 522, 523, 524, 525, 526, 527, 528, 529, 530, 531, 532, 533, 534, 535, 536, 537, 538, 539, 540, 541, 542, 543, 544, 545, 546, 547, 548, 549, 550, 551, 552, 553, 554, 555, 556, 557, 558, 559, 560, 561, 562, 563, 564, 565, 566, 567, 568, 569, 570, 571, 572, 573, 574, 575, 576, 577, 578, 579, 580, 581],
      "AcquisitionTime": ["163116.675000", "163117.462500", "163118.250000", "163119.037500", "163119.827500", "163120.615000", "163121.402500", "163122.192500", "163122.980000", "163123.767500", "163124.555000", "163125.345000", "163126.132500", "163126.920000", "163127.707500", "163128.497500", "163129.285000", "163130.072500", "163130.860000", "163131.650000", "163132.437500", "163133.225000", "163134.012500", "163134.802500", "163135.590000", "163136.377500", "163137.165000", "163137.955000", "163138.742500", "163139.530000", "163140.320000", "163141.107500", "163141.895000", "163142.682500", "163143.472500", "163144.260000", "163145.047500", "163145.835000", "163146.625000", "163147.412500", "163148.200000", "163148.987500", "163149.777500", "163150.565000", "163151.352500", "163152.140000", "163152.930000", "163153.717500", "163154.505000", "163155.295000", "163156.082500", "163156.870000", "163157.657500", "163158.447500", "163159.235000", "163200.022500", "163200.810000", "163201.600000", "163202.387500", "163203.175000", "163203.962500", "163204.752500", "163205.540000", "163206.327500", "163207.115000", "163207.905000", "163208.692500", "163209.480000", "163210.267500", "163211.057500", "163211.845000", "163212.632500", "163213.422500", "163214.210000", "163214.997500", "163215.785000", "163216.575000", "163217.362500", "163218.150000", "163218.937500", "163219.727500", "163220.515000", "163221.302500", "163222.090000", "163222.880000", "163223.667500", "163224.455000", "163225.242500", "163226.032500", "163226.820000", "163227.607500", "163228.395000", "163229.185000", "163229.972500", "163230.760000", "163231.550000", "163232.337500", "163233.125000", "163233.912500", "163234.702500", "163235.490000", "163236.277500", "163237.065000", "163237.855000", "163238.642500", "163239.430000", "163240.217500", "163241.007500", "163241.795000", "163242.582500", "163243.370000", "163244.160000", "163244.947500", "163245.735000", "163246.522500", "163247.312500", "163248.100000", "163248.887500", "163249.677500", "163250.465000", "163251.252500", "163252.040000", "163252.830000", "163253.617500", "163254.405000", "163255.192500", "163255.982500", "163256.770000", "163257.557500", "163258.345000", "163259.135000", "163259.922500", "163300.710000", "163301.497500", "163302.287500", "163303.075000", "163303.862500", "163304.650000", "163305.440000", "163306.227500", "163307.015000", "163307.805000", "163308.592500", "163309.380000", "163310.167500", "163310.957500", "163311.745000", "163312.532500", "163313.320000", "163314.110000", "163314.897500", "163315.685000", "163316.472500", "163317.262500", "163318.050000", "163318.837500", "163319.625000", "163320.415000", "163321.202500", "163321.990000", "163322.777500", "163323.567500", "163324.355000", "163325.142500", "163325.932500", "163326.720000", "163327.507500", "163328.295000", "163329.085000", "163329.872500", "163330.660000", "163331.447500", "163332.237500", "163333.025000", "163333.812500", "163334.600000", "163335.390000", "163336.177500", "163336.965000", "163337.752500", "163338.542500", "163339.330000", "163340.117500", "163340.905000", "163341.695000", "163342.482500", "163343.270000", "163344.060000", "163344.847500", "163345.635000", "163346.422500", "163347.212500", "163348.000000", "163348.787500", "163349.575000", "163350.365000", "163351.152500", "163351.940000", "163352.727500", "163353.517500", "163354.305000", "163355.092500", "163355.880000", "163356.670000", "163357.457500", "163358.245000", "163359.032500", "163359.822500", "163400.610000", "163401.397500", "163402.187500", "163402.975000", "163403.762500", "163404.550000", "163405.340000", "163406.127500", "163406.915000", "163407.702500", "163408.492500", "163409.280000", "163410.067500", "163410.855000", "163411.645000", "163412.432500", "163413.220000", "163414.007500", "163414.797500", "163415.585000", "163416.372500", "163417.160000", "163417.950000", "163418.737500", "163419.525000", "163420.315000", "163421.102500", "163421.890000", "163422.677500", "163423.467500", "163424.255000", "163425.042500", "163425.830000", "163426.620000", "163427.407500", "163428.195000", "163428.982500", "163429.772500", "163430.560000", "163431.347500", "163432.135000", "163432.925000", "163433.712500", "163434.500000", "163435.287500", "163436.077500", "163436.865000", "163437.652500", "163438.442500", "163439.230000", "163440.017500", "163440.805000", "163441.595000", "163442.382500", "163443.170000", "163443.957500", "163444.747500", "163445.535000", "163446.322500", "163447.110000", "163447.900000", "163448.687500", "163449.475000", "163450.262500", "163451.052500", "163451.840000", "163452.627500", "163453.415000", "163454.205000", "163454.992500", "163455.780000", "163456.570000", "163457.357500", "163458.145000", "163458.932500", "163459.722500", "163500.510000", "163501.297500", "163502.085000", "163502.875000", "163503.662500", "163504.450000", "163505.237500", "163506.027500", "163506.815000", "163507.602500", "163508.390000", "163509.180000", "163509.967500", "163510.755000", "163511.545000", "163512.332500", "163513.120000", "163513.907500", "163514.697500", "163515.485000", "163516.272500", "163517.060000", "163517.850000", "163518.637500", "163519.425000", "163520.212500", "163521.002500", "163521.790000", "163522.577500", "163523.365000", "163524.155000", "163524.942500", "163525.730000", "163526.517500", "163527.307500", "163528.095000", "163528.882500", "163529.672500", "163530.460000", "163531.247500", "163532.035000", "163532.825000", "163533.612500", "163534.400000", "163535.187500", "163535.977500", "163536.765000", "163537.552500", "163538.340000", "163539.130000", "163539.917500", "163540.705000", "163541.492500", "163542.282500", "163543.070000", "163543.857500", "163544.645000", "163545.435000", "163546.222500", "163547.010000", "163547.800000", "163548.587500", "163549.375000", "163550.162500", "163550.952500", "163551.740000", "163552.527500", "163553.315000", "163554.105000", "163554.892500", "163555.680000", "163556.467500", "163557.257500", "163558.045000", "163558.832500", "163559.620000", "163600.410000", "163601.197500", "163601.985000", "163602.772500", "163603.562500", "163604.350000", "163605.137500", "163605.927500", "163606.715000", "163607.502500", "163608.290000", "163609.080000", "163609.867500", "163610.655000", "163611.442500", "163612.232500", "163613.020000", "163613.807500", "163614.595000", "163615.385000", "163616.172500", "163616.960000", "163617.747500", "163618.537500", "163619.325000", "163620.112500", "163620.900000", "163621.690000", "163622.477500", "163623.265000", "163624.055000", "163624.842500", "163625.630000", "163626.417500", "163627.207500", "163627.995000", "163628.782500", "163629.570000", "163630.360000", "163631.147500", "163631.935000", "163632.722500", "163633.512500", "163634.300000", "163635.087500", "163635.875000", "163636.665000", "163637.452500", "163638.240000", "163639.027500", "163639.817500", "163640.605000", "163641.392500", "163642.182500", "163642.970000", "163643.757500", "163644.545000", "163645.335000", "163646.122500", "163646.910000", "163647.697500", "163648.487500", "163649.275000", "163650.062500", "163650.850000", "163651.640000", "163652.427500", "163653.215000", "163654.002500", "163654.792500", "163655.580000", "163656.367500", "163657.155000", "163657.945000", "163658.732500", "163659.520000", "163700.310000", "163701.097500", "163701.885000", "163702.672500", "163703.462500", "163704.250000", "163705.037500", "163705.825000", "163706.615000", "163707.402500", "163708.190000", "163708.977500", "163709.767500", "163710.555000", "163711.342500", "163712.130000", "163712.920000", "163713.707500", "163714.495000", "163715.282500", "163716.072500", "163716.860000", "163717.647500", "163718.437500", "163719.225000", "163720.012500", "163720.800000", "163721.590000", "163722.377500", "163723.165000", "163723.952500", "163724.742500", "163725.530000", "163726.317500", "163727.105000", "163727.895000", "163728.682500", "163729.470000", "163730.257500", "163731.047500", "163731.835000", "163732.622500", "163733.410000", "163734.200000", "163734.987500", "163735.775000", "163736.565000", "163737.352500", "163738.140000", "163738.927500", "163739.717500", "163740.505000", "163741.292500", "163742.080000", "163742.870000", "163743.657500", "163744.445000", "163745.232500", "163746.022500", "163746.810000", "163747.597500", "163748.385000", "163749.175000", "163749.962500", "163750.750000", "163751.537500", "163752.327500", "163753.115000", "163753.902500", "163754.692500", "163755.480000", "163756.267500", "163757.055000", "163757.845000", "163758.632500", "163759.420000", "163800.207500", "163800.997500", "163801.785000", "163802.572500", "163803.360000", "163804.150000", "163804.937500", "163805.725000", "163806.512500", "163807.302500", "163808.090000", "163808.877500", "163809.665000", "163810.455000", "163811.242500", "163812.030000", "163812.820000", "163813.607500", "163814.395000", "163815.182500", "163815.972500", "163816.760000", "163817.547500", "163818.335000", "163819.125000", "163819.912500", "163820.700000", "163821.487500", "163822.277500", "163823.065000", "163823.852500", "163824.640000", "163825.430000", "163826.217500", "163827.005000", "163827.795000", "163828.582500", "163829.370000", "163830.157500", "163830.947500", "163831.735000", "163832.522500", "163833.310000", "163834.100000", "163834.887500", "163835.675000", "163836.462500", "163837.252500", "163838.040000", "163838.827500", "163839.615000", "163840.405000", "163841.192500", "163841.980000", "163842.767500", "163843.557500", "163844.345000", "163845.132500", "163845.922500", "163846.710000", "163847.497500", "163848.285000", "163849.075000", "163849.862500", "163850.650000", "163851.437500", "163852.227500", "163853.015000", "163853.802500"],
      "ContentTime": ["163142.531000", "163142.546000", "163142.546000", "163142.546000", "163142.546000", "163142.546000", "163142.546000", "163142.546000", "163142.562000", "163142.562000", "163142.562000", "163142.562000", "163142.562000", "163142.562000", "163142.578000", "163142.578000", "163142.578000", "163142.578000", "163142.578000", "163142.578000", "163142.593000", "163142.593000", "163142.593000", "163142.593000", "163142.593000", "163142.609000", "163142.609000", "163142.609000", "163142.609000", "163202.515000", "163202.515000", "163202.515000", "163202.515000", "163202.515000", "163202.531000", "163202.531000", "163202.531000", "163202.531000", "163202.531000", "163202.546000", "163202.546000", "163202.546000", "163202.546000", "163202.546000", "163202.546000", "163202.562000", "163202.562000", "163202.562000", "163202.562000", "163202.562000", "163202.562000", "163202.578000", "163202.578000", "163202.578000", "163202.578000", "163222.515000", "163222.515000", "163222.515000", "163222.515000", "163222.515000", "163222.531000", "163222.531000", "163222.531000", "163222.531000", "163222.531000", "163222.531000", "163222.531000", "163222.546000", "163222.546000", "163222.546000", "163222.546000", "163222.546000", "163222.546000", "163222.546000", "163222.562000", "163222.562000", "163222.562000", "163222.562000", "163222.562000", "163222.562000", "163242.515000", "163242.515000", "163242.515000", "163242.515000", "163242.515000", "163242.531000", "163242.531000", "163242.531000", "163242.531000", "163242.531000", "163242.531000", "163242.531000", "163242.546000", "163242.546000", "163242.546000", "163242.546000", "163242.546000", "163242.546000", "163242.562000", "163242.562000", "163242.562000", "163242.562000", "163242.562000", "163242.562000", "163242.562000", "163242.578000", "163302.515000", "163302.515000", "163302.515000", "163302.515000", "163302.515000", "163302.531000", "163302.531000", "163302.531000", "163302.531000", "163302.531000", "163302.531000", "163302.531000", "163302.546000", "163302.546000", "163302.546000", "163302.546000", "163302.546000", "163302.546000", "163302.562000", "163302.562000", "163302.562000", "163302.562000", "163302.562000", "163302.562000", "163302.578000", "163322.515000", "163322.515000", "163322.515000", "163322.515000", "163322.515000", "163322.531000", "163322.531000", "163322.531000", "163322.531000", "163322.531000", "163322.531000", "163322.531000", "163322.546000", "163322.546000", "163322.546000", "163322.546000", "163322.546000", "163322.546000", "163322.546000", "163322.562000", "163322.562000", "163322.562000", "163322.562000", "163322.562000", "163322.562000", "163322.562000", "163342.515000", "163342.515000", "163342.515000", "163342.515000", "163342.515000", "163342.531000", "163342.531000", "163342.531000", "163342.531000", "163342.531000", "163342.531000", "163342.531000", "163342.546000", "163342.546000", "163342.546000", "163342.546000", "163342.546000", "163342.546000", "163342.546000", "163342.562000", "163342.562000", "163342.562000", "163342.562000", "163342.562000", "163342.562000", "163402.515000", "163402.515000", "163402.515000", "163402.515000", "163402.515000", "163402.531000", "163402.531000", "163402.531000", "163402.531000", "163402.531000", "163402.531000", "163402.531000", "163402.546000", "163402.546000", "163402.546000", "163402.546000", "163402.546000", "163402.546000", "163402.562000", "163402.562000", "163402.562000", "163402.562000", "163402.562000", "163402.562000", "163402.562000", "163402.578000", "163422.515000", "163422.515000", "163422.515000", "163422.515000", "163422.515000", "163422.531000", "163422.531000", "163422.531000", "163422.531000", "163422.531000", "163422.531000", "163422.546000", "163422.546000", "163422.546000", "163422.546000", "163422.546000", "163422.546000", "163422.546000", "163422.562000", "163422.562000", "163422.562000", "163422.562000", "163422.562000", "163422.562000", "163422.562000", "163442.515000", "163442.515000", "163442.515000", "163442.515000", "163442.515000", "163442.531000", "163442.531000", "163442.531000", "163442.531000", "163442.531000", "163442.531000", "163442.531000", "163442.546000", "163442.546000", "163442.546000", "163442.546000", "163442.546000", "163442.546000", "163442.562000", "163442.562000", "163442.562000", "163442.562000", "163442.562000", "163442.562000", "163442.562000", "163442.578000", "163502.515000", "163502.515000", "163502.515000", "163502.515000", "163502.515000", "163502.531000", "163502.531000", "163502.531000", "163502.531000", "163502.531000", "163502.531000", "163502.546000", "163502.546000", "163502.546000", "163502.546000", "163502.546000", "163502.546000", "163502.546000", "163502.562000", "163502.562000", "163502.562000", "163502.562000", "163502.562000", "163502.562000", "163502.562000", "163522.515000", "163522.515000", "163522.515000", "163522.515000", "163522.515000", "163522.531000", "163522.531000", "163522.531000", "163522.531000", "163522.531000", "163522.531000", "163522.531000", "163522.546000", "163522.546000", "163522.546000", "163522.546000", "163522.546000", "163522.546000", "163522.546000", "163522.562000", "163522.562000", "163522.562000", "163522.562000", "163522.562000", "163522.562000", "163522.578000", "163542.515000", "163542.515000", "163542.515000", "163542.515000", "163542.515000", "163542.531000", "163542.531000", "163542.531000", "163542.531000", "163542.546000", "163542.546000", "163542.546000", "163542.546000", "163542.546000", "163542.546000", "163542.546000", "163542.562000", "163542.562000", "163542.562000", "163542.562000", "163542.562000", "163542.562000", "163542.562000", "163542.578000", "163542.578000", "163602.515000", "163602.515000", "163602.515000", "163602.515000", "163602.515000", "163602.531000", "163602.531000", "163602.531000", "163602.531000", "163602.531000", "163602.531000", "163602.531000", "163602.546000", "163602.546000", "163602.546000", "163602.546000", "163602.546000", "163602.546000", "163602.546000", "163602.562000", "163602.562000", "163602.562000", "163602.562000", "163602.562000", "163602.562000", "163602.578000", "163622.515000", "163622.515000", "163622.515000", "163622.515000", "163622.515000", "163622.531000", "163622.531000", "163622.531000", "163622.531000", "163622.531000", "163622.531000", "163622.531000", "163622.546000", "163622.546000", "163622.546000", "163622.546000", "163622.546000", "163622.546000", "163622.562000", "163622.562000", "163622.562000", "163622.562000", "163622.562000", "163622.562000", "163622.562000", "163642.515000", "163642.515000", "163642.515000", "163642.515000", "163642.515000", "163642.531000", "163642.531000", "163642.531000", "163642.531000", "163642.546000", "163642.546000", "163642.546000", "163642.546000", "163642.546000", "163642.546000", "163642.546000", "163642.562000", "163642.562000", "163642.562000", "163642.562000", "163642.562000", "163642.562000", "163642.562000", "163642.578000", "163642.578000", "163642.578000", "163702.515000", "163702.515000", "163702.515000", "163702.515000", "163702.515000", "163702.531000", "163702.531000", "163702.531000", "163702.531000", "163702.531000", "163702.531000", "163702.546000", "163702.546000", "163702.546000", "163702.546000", "163702.546000", "163702.546000", "163702.562000", "163702.562000", "163702.562000", "163702.562000", "163702.562000", "163702.562000", "163702.578000", "163702.578000", "163722.515000", "163722.515000", "163722.515000", "163722.515000", "163722.515000", "163722.531000", "163722.531000", "163722.531000", "163722.531000", "163722.531000", "163722.531000", "163722.531000", "163722.546000", "163722.546000", "163722.546000", "163722.546000", "163722.546000", "163722.546000", "163722.562000", "163722.562000", "163722.562000", "163722.562000", "163722.562000", "163722.562000", "163722.562000", "163722.578000", "163742.515000", "163742.515000", "163742.515000", "163742.515000", "163742.515000", "163742.531000", "163742.531000", "163742.531000", "163742.531000", "163742.531000", "163742.531000", "163742.531000", "163742.546000", "163742.546000", "163742.546000", "163742.546000", "163742.546000", "163742.546000", "163742.562000", "163742.562000", "163742.562000", "163742.562000", "163742.562000", "163742.578000", "163742.578000", "163802.515000", "163802.515000", "163802.515000", "163802.515000", "163802.515000", "163802.531000", "163802.531000", "163802.531000", "163802.531000", "163802.531000", "163802.531000", "163802.531000", "163802.546000", "163802.546000", "163802.546000", "163802.546000", "163802.546000", "163802.546000", "163802.562000", "163802.562000", "163802.562000", "163802.562000", "163802.562000", "163802.562000", "163802.562000", "163802.578000", "163822.515000", "163822.515000", "163822.515000", "163822.515000", "163822.531000", "163822.531000", "163822.531000", "163822.531000", "163822.531000", "163822.531000", "163822.546000", "163822.546000", "163822.546000", "163822.546000", "163822.546000", "163822.546000", "163822.546000", "163822.562000", "163822.562000", "163822.562000", "163822.562000", "163822.562000", "163822.562000", "163822.562000", "163822.578000", "163842.515000", "163842.515000", "163842.515000", "163842.515000", "163842.531000", "163842.531000", "163842.531000", "163842.531000", "163842.531000", "163842.531000", "163842.546000", "163842.546000", "163842.546000", "163842.546000", "163842.546000", "163842.546000", "163842.562000", "163842.562000", "163842.562000", "163842.562000", "163842.578000", "163842.578000", "163842.578000", "163842.578000", "163842.578000", "163855.203000", "163855.218000", "163855.218000", "163855.218000", "163855.218000", "163855.234000", "163855.234000", "163855.234000", "163855.250000", "163855.250000", "163855.250000", "163855.250000", "163855.250000", "163855.250000", "163855.250000", "163855.265000", "163855.265000"],
      "DataSetTrailingPadding": [
