{
  "AcquisitionMatrixPE": 104,
  "AcquisitionNumber": 1,
  "AcquisitionTime": "16:15:3.740000",
  "BandwidthPerPixelPhaseEncode": 13.935,
  "BaseResolution": 104,
  "CoilString": "C:HEA;HEP",
  "ConversionSoftware": "dcm2niix",
  "ConversionSoftwareVersion": "v1.0.20210317",
  "DerivedVendorReportedEchoSpacing": 0.000690017,
  "DeviceSerialNumber": "35450",
  "DwellTime": 2.5e-06,
  "EchoTime": 0.0348,
  "EffectiveEchoSpacing": 0.000690017,
  "FlipAngle": 55,
  "ImageComments": "Unaliased MB8/PE3 (remote)",
  "ImageOrientationPatientDICOM": [0.999986, 0.000337262, 0.00521416, -7.28505e-08, 0.997916, -0.0645332],
  "ImageType": [
    "ORIGINAL",
    "PRIMARY",
    "M",
    "MB",
    "ND",
    "MOSAIC"
],
  "ImagingFrequency": 123.235,
  "InPlanePhaseEncodingDirectionDICOM": "COL",
  "InstitutionAddress": "Univeristy Ave. 197,Newark,North East,US,07102-1814",
  "InstitutionName": "RUBIC",
  "InstitutionalDepartmentName": "Department",
  "MRAcquisitionType": "2D",
  "MagneticFieldStrength": 3,
  "Manufacturer": "Siemens",
  "ManufacturersModelName": "TrioTim",
  "Modality": "MR",
  "MultibandAccelerationFactor": 8,
  "PartialFourier": 0.875,
  "PatientPosition": "HFS",
  "PercentPhaseFOV": 100,
  "PercentSampling": 100,
  "PhaseEncodingDirection": "j-",
  "PhaseEncodingSteps": 91,
  "PhaseResolution": 1,
  "PixelBandwidth": 1923,
  "ProcedureStepDescription": "Cole^Michael",
  "ProtocolName": "cmrr_mbep2d_bold_2mm_MB8_Task_8x",
  "PulseSequenceDetails": "%CustomerSeq%\\cmrr_mbep2d_bold",
  "ReceiveCoilName": "32Ch_Head",
  "ReconMatrixPE": 104,
  "RepetitionTime": 0.785,
  "SAR": 0.164509,
  "ScanOptions": "PFP\\FS",
  "ScanningSequence": "EP",
  "SequenceName": "epfid2d1_104",
  "SequenceVariant": "SK\\SS",
  "SeriesDescription": "cmrr_mbep2d_bold_2mm_MB8_Task_8x",
  "SeriesNumber": 21,
  "ShimSetting": [2113, -348, -7350, 468, -141, -320, 209, 4],
  "SliceThickness": 2,
  "SliceTiming": [0, 0.4375, 0.0875, 0.525, 0.175, 0.6125, 0.2625, 0.7, 0.35, 0, 0.4375, 0.0875, 0.525, 0.175, 0.6125, 0.2625, 0.7, 0.35, 0, 0.4375, 0.0875, 0.525, 0.175, 0.6125, 0.2625, 0.7, 0.35, 0, 0.4375, 0.0875, 0.525, 0.175, 0.6125, 0.2625, 0.7, 0.35, 0, 0.4375, 0.0875, 0.525, 0.175, 0.6125, 0.2625, 0.7, 0.35, 0, 0.4375, 0.0875, 0.525, 0.175, 0.6125, 0.2625, 0.7, 0.35, 0, 0.4375, 0.0875, 0.525, 0.175, 0.6125, 0.2625, 0.7, 0.35, 0, 0.4375, 0.0875, 0.525, 0.175, 0.6125, 0.2625, 0.7, 0.35],
  "SoftwareVersions": "syngo MR B19",
  "SpacingBetweenSlices": 2,
  "StationName": "MRC35450",
  "TaskName": "cpro",
  "TotalReadoutTime": 0.0710717,
  "TxRefAmp": 363.784,
  "dcmmeta_affine": [
    [-1.9999727010726929, -1.4570093753718538e-07, 0.010450106114149094, 104.98873901367188],
    [-0.000674524053465575, 1.9958311319351196, -0.1290646195411682, -81.82478332519531],
    [0.010428314097225666, 0.1290663778781891, 1.9958038330078125, -105.8681411743164],
    [0.0, 0.0, 0.0, 1.0]
],
  "dcmmeta_reorient_transform": [
    [0.0, -1.0, 0.0, 103.0],
    [1.0, 0.0, 0.0, 0.0],
    [0.0, 0.0, 1.0, 0.0],
    [0.0, 0.0, 0.0, 1.0]
],
  "dcmmeta_shape": [104, 104, 72, 581],
  "dcmmeta_slice_dim": 2,
  "dcmmeta_version": 0.6,
  "global": {
    "const": {
      "AcquisitionMatrix": [104, 0, 0, 104],
      "AngioFlag": "N",
      "BitsAllocated": 16,
      "BitsStored": 12,
      "Columns": 936,
      "EchoNumbers": 1,
      "EchoTime": 34.8,
      "EchoTrainLength": 1,
      "FlipAngle": 55.0,
      "HighBit": 11,
      "ImageOrientationPatient": [0.99998634931758, 0.00033726203615, 0.00521415696145, -7.2850471e-08, 0.99791556121803, -0.0645331905216],
      "ImagePositionPatient": [-936.97730445001, -954.29217285461, -43.220869084802],
      "ImageType": [
        "ORIGINAL",
        "PRIMARY",
        "M",
        "MB",
        "ND",
        "MOSAIC"
],
      "ImagedNucleus": "1H",
      "ImagingFrequency": 123.234504,
      "InPlanePhaseEncodingDirection": "COL",
      "MRAcquisitionType": "2D",
      "MagneticFieldStrength": 3.0,
      "Manufacturer": "SIEMENS",
      "ManufacturerModelName": "TrioTim",
      "Modality": "MR",
      "NumberOfAverages": 1.0,
      "NumberOfPhaseEncodingSteps": 91,
      "PercentPhaseFieldOfView": 100.0,
      "PercentSampling": 100.0,
      "PerformedProcedureStepStartTime": "141412.781000",
      "PhotometricInterpretation": "MONOCHROME2",
      "PixelBandwidth": 1923.0,
      "PixelRepresentation": 0,
      "PixelSpacing": [2.0, 2.0],
      "ProtocolName": "cmrr_mbep2d_bold_2mm_MB8_Task_8x",
      "RepetitionTime": 785.0,
      "Rows": 936,
      "SAR": 0.16450869366247,
      "SamplesPerPixel": 1,
      "ScanOptions": [
        "PFP",
        "FS"
],
      "ScanningSequence": "EP",
      "SequenceName": "epfid2d1_104",
      "SequenceVariant": [
        "SK",
        "SS"
],
      "SeriesDescription": "cmrr_mbep2d_bold_2mm_MB8_Task_8x",
      "SeriesNumber": 21,
      "SeriesTime": "161538.609000",
      "SliceLocation": -99.817110606713,
      "SliceThickness": 2.0,
      "SmallestImagePixelValue": 0,
      "SoftwareVersions": "syngo MR B19",
      "SpacingBetweenSlices": 2.000000009219,
      "SpecificCharacterSet": "ISO_IR 100",
      "StudyID": "1",
      "StudyTime": "141412.750000",
      "TransmitCoilName": "Body",
      "VariableFlipAngleFlag": "N",
      "WindowCenterWidthExplanation": "Algo1",
      "dBdt": 0.0},
    "slices": {}
  },
  "time": {
    "samples": {
      "AcquisitionNumber": [1, 2, 3, 4, 5, 6, 7, 8, 9, 10, 11, 12, 13, 14, 15, 16, 17, 18, 19, 20, 21, 22, 23, 24, 25, 26, 27, 28, 29, 30, 31, 32, 33, 34, 35, 36, 37, 38, 39, 40, 41, 42, 43, 44, 45, 46, 47, 48, 49, 50, 51, 52, 53, 54, 55, 56, 57, 58, 59, 60, 61, 62, 63, 64, 65, 66, 67, 68, 69, 70, 71, 72, 73, 74, 75, 76, 77, 78, 79, 80, 81, 82, 83, 84, 85, 86, 87, 88, 89, 90, 91, 92, 93, 94, 95, 96, 97, 98, 99, 100, 101, 102, 103, 104, 105, 106, 107, 108, 109, 110, 111, 112, 113, 114, 115, 116, 117, 118, 119, 120, 121, 122, 123, 124, 125, 126, 127, 128, 129, 130, 131, 132, 133, 134, 135, 136, 137, 138, 139, 140, 141, 142, 143, 144, 145, 146, 147, 148, 149, 150, 151, 152, 153, 154, 155, 156, 157, 158, 159, 160, 161, 162, 163, 164, 165, 166, 167, 168, 169, 170, 171, 172, 173, 174, 175, 176, 177, 178, 179, 180, 181, 182, 183, 184, 185, 186, 187, 188, 189, 190, 191, 192, 193, 194, 195, 196, 197, 198, 199, 200, 201, 202, 203, 204, 205, 206, 207, 208, 209, 210, 211, 212, 213, 214, 215, 216, 217, 218, 219, 220, 221, 222, 223, 224, 225, 226, 227, 228, 229, 230, 231, 232, 233, 234, 235, 236, 237, 238, 239, 240, 241, 242, 243, 244, 245, 246, 247, 248, 249, 250, 251, 252, 253, 254, 255, 256, 257, 258, 259, 260, 261, 262, 263, 264, 265, 266, 267, 268, 269, 270, 271, 272, 273, 274, 275, 276, 277, 278, 279, 280, 281, 282, 283, 284, 285, 286, 287, 288, 289, 290, 291, 292, 293, 294, 295, 296, 297, 298, 299, 300, 301, 302, 303, 304, 305, 306, 307, 308, 309, 310, 311, 312, 313, 314, 315, 316, 317, 318, 319, 320, 321, 322, 323, 324, 325, 326, 327, 328, 329, 330, 331, 332, 333, 334, 335, 336, 337, 338, 339, 340, 341, 342, 343, 344, 345, 346, 347, 348, 349, 350, 351, 352, 353, 354, 355, 356, 357, 358, 359, 360, 361, 362, 363, 364, 365, 366, 367, 368, 369, 370, 371, 372, 373, 374, 375, 376, 377, 378, 379, 380, 381, 382, 383, 384, 385, 386, 387, 388, 389, 390, 391, 392, 393, 394, 395, 396, 397, 398, 399, 400, 401, 402, 403, 404, 405, 406, 407, 408, 409, 410, 411, 412, 413, 414, 415, 416, 417, 418, 419, 420, 421, 422, 423, 424, 425, 426, 427, 428, 429, 430, 431, 432, 433, 434, 435, 436, 437, 438, 439, 440, 441, 442, 443, 444, 445, 446, 447, 448, 449, 450, 451, 452, 453, 454, 455, 456, 457, 458, 459, 460, 461, 462, 463, 464, 465, 466, 467, 468, 469, 470, 471, 472, 473, 474, 475, 476, 477, 478, 479, 480, 481, 482, 483, 484, 485, 486, 487, 488, 489, 490, 491, 492, 493, 494, 495, 496, 497, 498, 499, 500, 501, 502, 503, 504, 505, 506, 507, 508, 509, 510, 511, 512, 513, 514, 515, 516, 517, 518, 519, 520, 521, 522, 523, 524, 525, 526, 527, 528, 529, 530, 531, 532, 533, 534, 535, 536, 537, 538, 539, 540, 541, 542, 543, 544, 545, 546, 547, 548, 549, 550, 551, 552, 553, 554, 555, 556, 557, 558, 559, 560, 561, 562, 563, 564, 565, 566, 567, 568, 569, 570, 571, 572, 573, 574, 575, 576, 577, 578, 579, 580, 581],
      "AcquisitionTime": ["161503.740000", "161504.530000", "161505.317500", "161506.105000", "161506.892500", "161507.682500", "161508.470000", "161509.257500", "161510.045000", "161510.835000", "161511.622500", "161512.410000", "161513.197500", "161513.987500", "161514.775000", "161515.562500", "161516.350000", "161517.140000", "161517.927500", "161518.715000", "161519.505000", "161520.292500", "161521.080000", "161521.867500", "161522.657500", "161523.445000", "161524.232500", "161525.020000", "161525.810000", "161526.597500", "161527.385000", "161528.172500", "161528.962500", "161529.750000", "161530.537500", "161531.325000", "161532.115000", "161532.902500", "161533.690000", "161534.477500", "161535.267500", "161536.055000", "161536.842500", "161537.632500", "161538.420000", "161539.207500", "161539.995000", "161540.785000", "161541.572500", "161542.360000", "161543.147500", "161543.937500", "161544.725000", "161545.512500", "161546.300000", "161547.090000", "161547.877500", "161548.665000", "161549.452500", "161550.242500", "161551.030000", "161551.817500", "161552.605000", "161553.395000", "161554.182500", "161554.970000", "161555.760000", "161556.547500", "161557.335000", "161558.122500", "161558.912500", "161559.700000", "161600.487500", "161601.275000", "161602.065000", "161602.852500", "161603.640000", "161604.427500", "161605.217500", "161606.005000", "161606.792500", "161607.580000", "161608.370000", "161609.157500", "161609.945000", "161610.732500", "161611.522500", "161612.310000", "161613.097500", "161613.887500", "161614.675000", "161615.462500", "161616.250000", "161617.040000", "161617.827500", "161618.615000", "161619.402500", "161620.192500", "161620.980000", "161621.767500", "161622.555000", "161623.345000", "161624.132500", "161624.920000", "161625.707500", "161626.497500", "161627.285000", "161628.072500", "161628.860000", "161629.650000", "161630.437500", "161631.225000", "161632.015000", "161632.802500", "161633.590000", "161634.377500", "161635.167500", "161635.955000", "161636.742500", "161637.530000", "161638.320000", "161639.107500", "161639.895000", "161640.682500", "161641.472500", "161642.260000", "161643.047500", "161643.835000", "161644.625000", "161645.412500", "161646.200000", "161646.987500", "161647.777500", "161648.565000", "161649.352500", "161650.142500", "161650.930000", "161651.717500", "161652.505000", "161653.295000", "161654.082500", "161654.870000", "161655.657500", "161656.447500", "161657.235000", "161658.022500", "161658.810000", "161659.600000", "161700.387500", "161701.175000", "161701.962500", "161702.752500", "161703.540000", "161704.327500", "161705.115000", "161705.905000", "161706.692500", "161707.480000", "161708.270000", "161709.057500", "161709.845000", "161710.632500", "161711.422500", "161712.210000", "161712.997500", "161713.785000", "161714.575000", "161715.362500", "161716.150000", "161716.937500", "161717.727500", "161718.515000", "161719.302500", "161720.090000", "161720.880000", "161721.667500", "161722.455000", "161723.245000", "161724.032500", "161724.820000", "161725.607500", "161726.397500", "161727.185000", "161727.972500", "161728.760000", "161729.550000", "161730.337500", "161731.125000", "161731.912500", "161732.702500", "161733.490000", "161734.277500", "161735.065000", "161735.855000", "161736.642500", "161737.430000", "161738.217500", "161739.007500", "161739.795000", "161740.582500", "161741.372500", "161742.160000", "161742.947500", "161743.735000", "161744.525000", "161745.312500", "161746.100000", "161746.887500", "161747.677500", "161748.465000", "161749.252500", "161750.040000", "161750.830000", "161751.617500", "161752.405000", "161753.192500", "161753.982500", "161754.770000", "161755.557500", "161756.345000", "161757.135000", "161757.922500", "161758.710000", "161759.500000", "161800.287500", "161801.075000", "161801.862500", "161802.652500", "161803.440000", "161804.227500", "161805.015000", "161805.805000", "161806.592500", "161807.380000", "161808.167500", "161808.957500", "161809.745000", "161810.532500", "161811.320000", "161812.110000", "161812.897500", "161813.685000", "161814.472500", "161815.262500", "161816.050000", "161816.837500", "161817.627500", "161818.415000", "161819.202500", "161819.990000", "161820.780000", "161821.567500", "161822.355000", "161823.142500", "161823.932500", "161824.720000", "161825.507500", "161826.295000", "161827.085000", "161827.872500", "161828.660000", "161829.447500", "161830.237500", "161831.025000", "161831.812500", "161832.600000", "161833.390000", "161834.177500", "161834.965000", "161835.755000", "161836.542500", "161837.330000", "161838.117500", "161838.907500", "161839.695000", "161840.482500", "161841.270000", "161842.060000", "161842.847500", "161843.635000", "161844.422500", "161845.212500", "161846.000000", "161846.787500", "161847.575000", "161848.365000", "161849.152500", "161849.940000", "161850.727500", "161851.517500", "161852.305000", "161853.092500", "161853.882500", "161854.670000", "161855.457500", "161856.245000", "161857.035000", "161857.822500", "161858.610000", "161859.397500", "161900.187500", "161900.975000", "161901.762500", "161902.550000", "161903.340000", "161904.127500", "161904.915000", "161905.702500", "161906.492500", "161907.280000", "161908.067500", "161908.855000", "161909.645000", "161910.432500", "161911.220000", "161912.010000", "161912.797500", "161913.585000", "161914.372500", "161915.162500", "161915.950000", "161916.737500", "161917.525000", "161918.315000", "161919.102500", "161919.890000", "161920.677500", "161921.467500", "161922.255000", "161923.042500", "161923.830000", "161924.620000", "161925.407500", "161926.195000", "161926.982500", "161927.772500", "161928.560000", "161929.347500", "161930.137500", "161930.925000", "161931.712500", "161932.500000", "161933.290000", "161934.077500", "161934.865000", "161935.652500", "161936.442500", "161937.230000", "161938.017500", "161938.805000", "161939.595000", "161940.382500", "161941.170000", "161941.957500", "161942.747500", "161943.535000", "161944.322500", "161945.110000", "161945.900000", "161946.687500", "161947.475000", "161948.265000", "161949.052500", "161949.840000", "161950.627500", "161951.417500", "161952.205000", "161952.992500", "161953.780000", "161954.570000", "161955.357500", "161956.145000", "161956.932500", "161957.722500", "161958.510000", "161959.297500", "162000.085000", "162000.875000", "162001.662500", "162002.450000", "162003.237500", "162004.027500", "162004.815000", "162005.602500", "162006.392500", "162007.180000", "162007.967500", "162008.755000", "162009.545000", "162010.332500", "162011.120000", "162011.907500", "162012.697500", "162013.485000", "162014.272500", "162015.060000", "162015.850000", "162016.637500", "162017.425000", "162018.212500", "162019.002500", "162019.790000", "162020.577500", "162021.365000", "162022.155000", "162022.942500", "162023.730000", "162024.520000", "162025.307500", "162026.095000", "162026.882500", "162027.672500", "162028.460000", "162029.247500", "162030.035000", "162030.825000", "162031.612500", "162032.400000", "162033.187500", "162033.977500", "162034.765000", "162035.552500", "162036.340000", "162037.130000", "162037.917500", "162038.705000", "162039.495000", "162040.282500", "162041.070000", "162041.857500", "162042.647500", "162043.435000", "162044.222500", "162045.010000", "162045.800000", "162046.587500", "162047.375000", "162048.162500", "162048.952500", "162049.740000", "162050.527500", "162051.315000", "162052.105000", "162052.892500", "162053.680000", "162054.467500", "162055.257500", "162056.045000", "162056.832500", "162057.622500", "162058.410000", "162059.197500", "162059.985000", "162100.775000", "162101.562500", "162102.350000", "162103.137500", "162103.927500", "162104.715000", "162105.502500", "162106.290000", "162107.080000", "162107.867500", "162108.655000", "162109.442500", "162110.232500", "162111.020000", "162111.807500", "162112.595000", "162113.385000", "162114.172500", "162114.960000", "162115.750000", "162116.537500", "162117.325000", "162118.112500", "162118.902500", "162119.690000", "162120.477500", "162121.265000", "162122.055000", "162122.842500", "162123.630000", "162124.417500", "162125.207500", "162125.995000", "162126.782500", "162127.570000", "162128.360000", "162129.147500", "162129.935000", "162130.722500", "162131.512500", "162132.300000", "162133.087500", "162133.877500", "162134.665000", "162135.452500", "162136.240000", "162137.030000", "162137.817500", "162138.605000", "162139.392500", "162140.182500", "162140.970000", "162141.757500", "162142.545000", "162143.335000", "162144.122500", "162144.910000", "162145.697500", "162146.487500", "162147.275000", "162148.062500", "162148.850000", "162149.640000", "162150.427500", "162151.215000", "162152.005000", "162152.792500", "162153.580000", "162154.367500", "162155.157500", "162155.945000", "162156.732500", "162157.520000", "162158.310000", "162159.097500", "162159.885000", "162200.672500", "162201.462500", "162202.250000", "162203.037500", "162203.825000", "162204.615000", "162205.402500", "162206.190000", "162206.977500", "162207.767500", "162208.555000", "162209.342500", "162210.132500", "162210.920000", "162211.707500", "162212.495000", "162213.285000", "162214.072500", "162214.860000", "162215.647500", "162216.437500", "162217.225000", "162218.012500", "162218.800000", "162219.590000", "162220.377500", "162221.165000", "162221.952500", "162222.742500", "162223.530000", "162224.317500", "162225.105000", "162225.895000", "162226.682500", "162227.470000", "162228.260000", "162229.047500", "162229.835000", "162230.622500", "162231.412500", "162232.200000", "162232.987500", "162233.775000", "162234.565000", "162235.352500", "162236.140000", "162236.927500", "162237.717500", "162238.505000", "162239.292500", "162240.080000", "162240.870000"],
      "ContentTime": ["161538.609000", "161538.609000", "161538.609000", "161538.609000", "161538.609000", "161538.625000", "161538.625000", "161538.625000", "161538.625000", "161538.625000", "161538.625000", "161538.640000", "161538.640000", "161538.640000", "161538.640000", "161538.640000", "161538.640000", "161538.640000", "161538.656000", "161538.656000", "161538.656000", "161538.656000", "161538.656000", "161538.656000", "161538.656000", "161538.671000", "161538.671000", "161538.671000", "161538.671000", "161538.671000", "161538.671000", "161538.671000", "161538.687000", "161538.687000", "161538.687000", "161538.687000", "161538.687000", "161538.687000", "161538.687000", "161538.703000", "161538.703000", "161558.578000", "161558.578000", "161558.578000", "161558.578000", "161558.578000", "161558.593000", "161558.593000", "161558.593000", "161558.593000", "161558.593000", "161558.593000", "161558.593000", "161558.609000", "161558.609000", "161558.609000", "161558.609000", "161558.609000", "161558.609000", "161558.609000", "161558.625000", "161558.625000", "161558.625000", "161558.625000", "161558.625000", "161558.625000", "161618.578000", "161618.578000", "161618.578000", "161618.578000", "161618.578000", "161618.593000", "161618.593000", "161618.593000", "161618.593000", "161618.593000", "161618.593000", "161618.593000", "161618.609000", "161618.609000", "161618.609000", "161618.609000", "161618.609000", "161618.609000", "161618.625000", "161618.625000", "161618.625000", "161618.625000", "161618.625000", "161618.625000", "161618.625000", "161618.625000", "161638.578000", "161638.578000", "161638.578000", "161638.578000", "161638.578000", "161638.593000", "161638.593000", "161638.593000", "161638.593000", "161638.593000", "161638.593000", "161638.593000", "161638.609000", "161638.609000", "161638.609000", "161638.609000", "161638.609000", "161638.609000", "161638.609000", "161638.625000", "161638.625000", "161638.625000", "161638.625000", "161638.625000", "161638.625000", "161658.578000", "161658.578000", "161658.578000", "161658.578000", "161658.578000", "161658.593000", "161658.593000", "161658.593000", "161658.593000", "161658.593000", "161658.593000", "161658.593000", "161658.609000", "161658.609000", "161658.609000", "161658.609000", "161658.609000", "161658.609000", "161658.609000", "161658.625000", "161658.625000", "161658.625000", "161658.625000", "161658.625000", "161658.625000", "161658.640000", "161718.578000", "161718.578000", "161718.578000", "161718.578000", "161718.578000", "161718.593000", "161718.593000", "161718.593000", "161718.593000", "161718.593000", "161718.593000", "161718.593000", "161718.609000", "161718.609000", "161718.609000", "161718.609000", "161718.609000", "161718.625000", "161718.625000", "161718.625000", "161718.625000", "161718.625000", "161718.625000", "161718.640000", "161718.640000", "161738.578000", "161738.578000", "161738.578000", "161738.578000", "161738.578000", "161738.593000", "161738.593000", "161738.593000", "161738.593000", "161738.593000", "161738.593000", "161738.593000", "161738.609000", "161738.609000", "161738.609000", "161738.609000", "161738.609000", "161738.609000", "161738.609000", "161738.625000", "161738.625000", "161738.625000", "161738.625000", "161738.625000", "161738.625000", "161738.625000", "161758.578000", "161758.578000", "161758.578000", "161758.578000", "161758.578000", "161758.593000", "161758.593000", "161758.593000", "161758.593000", "161758.593000", "161758.593000", "161758.593000", "161758.609000", "161758.609000", "161758.609000", "161758.609000", "161758.609000", "161758.609000", "161758.609000", "161758.625000", "161758.625000", "161758.625000", "161758.625000", "161758.625000", "161758.625000", "161818.578000", "161818.578000", "161818.578000", "161818.593000", "161818.593000", "161818.593000", "161818.593000", "161818.593000", "161818.593000", "161818.593000", "161818.609000", "161818.609000", "161818.609000", "161818.609000", "161818.609000", "161818.609000", "161818.609000", "161818.625000", "161818.625000", "161818.625000", "161818.625000", "161818.625000", "161818.625000", "161818.625000", "161818.640000", "161818.640000", "161838.578000", "161838.578000", "161838.578000", "161838.578000", "161838.578000", "161838.593000", "161838.593000", "161838.593000", "161838.593000", "161838.593000", "161838.593000", "161838.593000", "161838.609000", "161838.609000", "161838.609000", "161838.609000", "161838.609000", "161838.609000", "161838.609000", "161838.625000", "161838.625000", "161838.625000", "161838.625000", "161838.625000", "161838.625000", "161858.578000", "161858.578000", "161858.578000", "161858.578000", "161858.578000", "161858.593000", "161858.593000", "161858.593000", "161858.593000", "161858.593000", "161858.593000", "161858.593000", "161858.609000", "161858.609000", "161858.609000", "161858.609000", "161858.609000", "161858.609000", "161858.625000", "161858.625000", "161858.625000", "161858.625000", "161858.625000", "161858.625000", "161858.625000", "161858.640000", "161918.578000", "161918.578000", "161918.578000", "161918.578000", "161918.578000", "161918.593000", "161918.593000", "161918.593000", "161918.593000", "161918.593000", "161918.593000", "161918.593000", "161918.609000", "161918.609000", "161918.609000", "161918.609000", "161918.609000", "161918.609000", "161918.609000", "161918.625000", "161918.625000", "161918.625000", "161918.625000", "161918.625000", "161918.625000", "161938.578000", "161938.578000", "161938.578000", "161938.578000", "161938.578000", "161938.593000", "161938.593000", "161938.593000", "161938.593000", "161938.593000", "161938.593000", "161938.593000", "161938.609000", "161938.609000", "161938.609000", "161938.609000", "161938.609000", "161938.609000", "161938.625000", "161938.625000", "161938.625000", "161938.625000", "161938.625000", "161938.625000", "161938.640000", "161938.640000", "161958.578000", "161958.578000", "161958.578000", "161958.578000", "161958.578000", "161958.593000", "161958.593000", "161958.593000", "161958.593000", "161958.593000", "161958.593000", "161958.609000", "161958.609000", "161958.609000", "161958.609000", "161958.609000", "161958.609000", "161958.609000", "161958.625000", "161958.625000", "161958.625000", "161958.625000", "161958.625000", "161958.625000", "161958.625000", "162018.578000", "162018.578000", "162018.578000", "162018.578000", "162018.578000", "162018.593000", "162018.593000", "162018.593000", "162018.593000", "162018.593000", "162018.593000", "162018.593000", "162018.609000", "162018.609000", "162018.609000", "162018.609000", "162018.609000", "162018.609000", "162018.609000", "162018.625000", "162018.625000", "162018.625000", "162018.625000", "162018.625000", "162018.640000", "162018.640000", "162038.578000", "162038.578000", "162038.578000", "162038.578000", "162038.578000", "162038.593000", "162038.593000", "162038.593000", "162038.593000", "162038.593000", "162038.593000", "162038.593000", "162038.609000", "162038.609000", "162038.609000", "162038.609000", "162038.609000", "162038.609000", "162038.625000", "162038.625000", "162038.625000", "162038.625000", "162038.625000", "162038.625000", "162038.625000", "162058.578000", "162058.578000", "162058.578000", "162058.578000", "162058.578000", "162058.593000", "162058.593000", "162058.593000", "162058.593000", "162058.593000", "162058.593000", "162058.609000", "162058.609000", "162058.609000", "162058.609000", "162058.609000", "162058.609000", "162058.625000", "162058.625000", "162058.625000", "162058.625000", "162058.625000", "162058.625000", "162058.640000", "162058.640000", "162118.578000", "162118.578000", "162118.578000", "162118.578000", "162118.578000", "162118.593000", "162118.593000", "162118.593000", "162118.593000", "162118.593000", "162118.593000", "162118.593000", "162118.609000", "162118.609000", "162118.609000", "162118.609000", "162118.609000", "162118.609000", "162118.609000", "162118.625000", "162118.625000", "162118.625000", "162118.625000", "162118.625000", "162118.625000", "162118.640000", "162138.578000", "162138.578000", "162138.578000", "162138.593000", "162138.593000", "162138.593000", "162138.593000", "162138.593000", "162138.593000", "162138.593000", "162138.609000", "162138.609000", "162138.625000", "162138.625000", "162138.625000", "162138.625000", "162138.625000", "162138.625000", "162138.625000", "162138.640000", "162138.640000", "162138.640000", "162138.640000", "162138.640000", "162138.640000", "162158.578000", "162158.578000", "162158.578000", "162158.578000", "162158.578000", "162158.593000", "162158.593000", "162158.593000", "162158.593000", "162158.593000", "162158.593000", "162158.593000", "162158.609000", "162158.609000", "162158.609000", "162158.609000", "162158.609000", "162158.609000", "162158.609000", "162158.625000", "162158.625000", "162158.625000", "162158.625000", "162158.625000", "162158.625000", "162158.640000", "162218.578000", "162218.578000", "162218.578000", "162218.593000", "162218.593000", "162218.593000", "162218.593000", "162218.593000", "162218.593000", "162218.593000", "162218.609000", "162218.609000", "162218.609000", "162218.609000", "162218.609000", "162218.609000", "162218.609000", "162218.625000", "162218.625000", "162218.625000", "162218.625000", "162218.625000", "162218.625000", "162218.640000", "162218.640000", "162238.578000", "162238.578000", "162238.578000", "162238.578000", "162238.578000", "162238.593000", "162238.593000", "162238.593000", "162238.593000", "162238.593000", "162238.593000", "162238.593000", "162238.609000", "162238.609000", "162238.609000", "162238.609000", "162238.609000", "162238.609000", "162238.625000", "162238.625000", "162238.625000", "162238.625000", "162238.625000", "162238.625000", "162238.625000", "162238.640000", "162242.250000", "162242.265000", "162242.265000", "162242.265000", "162242.265000"],
      "DataSetTrailingPadding": [
