{
  "AcquisitionMatrixPE": 104,
  "AcquisitionNumber": 1,
  "AcquisitionTime": "15:42:28.237500",
  "BandwidthPerPixelPhaseEncode": 13.935,
  "BaseResolution": 104,
  "CoilString": "C:HEA;HEP",
  "ConversionSoftware": "dcm2niix",
  "ConversionSoftwareVersion": "v1.0.20210317",
  "DerivedVendorReportedEchoSpacing": 0.000690017,
  "DeviceSerialNumber": "35450",
  "DwellTime": 2.5e-06,
  "EchoTime": 0.0348,
  "EffectiveEchoSpacing": 0.000690017,
  "FlipAngle": 55,
  "ImageComments": "Unaliased MB8/PE3 (remote)",
  "ImageOrientationPatientDICOM": [0.999986, 0.000337262, 0.00521416, -7.28505e-08, 0.997916, -0.0645332],
  "ImageType": [
    "ORIGINAL",
    "PRIMARY",
    "M",
    "MB",
    "ND",
    "MOSAIC"
],
  "ImagingFrequency": 123.235,
  "InPlanePhaseEncodingDirectionDICOM": "COL",
  "InstitutionAddress": "Univeristy Ave. 197,Newark,North East,US,07102-1814",
  "InstitutionName": "RUBIC",
  "InstitutionalDepartmentName": "Department",
  "MRAcquisitionType": "2D",
  "MagneticFieldStrength": 3,
  "Manufacturer": "Siemens",
  "ManufacturersModelName": "TrioTim",
  "Modality": "MR",
  "MultibandAccelerationFactor": 8,
  "PartialFourier": 0.875,
  "PatientPosition": "HFS",
  "PercentPhaseFOV": 100,
  "PercentSampling": 100,
  "PhaseEncodingDirection": "j-",
  "PhaseEncodingSteps": 91,
  "PhaseResolution": 1,
  "PixelBandwidth": 1923,
  "ProcedureStepDescription": "Cole^Michael",
  "ProtocolName": "cmrr_mbep2d_bold_2mm_MB8_Task_8x",
  "PulseSequenceDetails": "%CustomerSeq%\\cmrr_mbep2d_bold",
  "ReceiveCoilName": "32Ch_Head",
  "ReconMatrixPE": 104,
  "RepetitionTime": 0.785,
  "SAR": 0.175566,
  "ScanOptions": "PFP\\FS",
  "ScanningSequence": "EP",
  "SequenceName": "epfid2d1_104",
  "SequenceVariant": "SK\\SS",
  "SeriesDescription": "cmrr_mbep2d_bold_2mm_MB8_Task_8x",
  "SeriesNumber": 13,
  "ShimSetting": [2113, -348, -7350, 468, -141, -320, 209, 4],
  "SliceThickness": 2,
  "SliceTiming": [0, 0.4375, 0.0875, 0.525, 0.175, 0.6125, 0.2625, 0.7, 0.35, 0, 0.4375, 0.0875, 0.525, 0.175, 0.6125, 0.2625, 0.7, 0.35, 0, 0.4375, 0.0875, 0.525, 0.175, 0.6125, 0.2625, 0.7, 0.35, 0, 0.4375, 0.0875, 0.525, 0.175, 0.6125, 0.2625, 0.7, 0.35, 0, 0.4375, 0.0875, 0.525, 0.175, 0.6125, 0.2625, 0.7, 0.35, 0, 0.4375, 0.0875, 0.525, 0.175, 0.6125, 0.2625, 0.7, 0.35, 0, 0.4375, 0.0875, 0.525, 0.175, 0.6125, 0.2625, 0.7, 0.35, 0, 0.4375, 0.0875, 0.525, 0.175, 0.6125, 0.2625, 0.7, 0.35],
  "SoftwareVersions": "syngo MR B19",
  "SpacingBetweenSlices": 2,
  "StationName": "MRC35450",
  "TaskName": "cpro",
  "TotalReadoutTime": 0.0710717,
  "TxRefAmp": 363.784,
  "dcmmeta_affine": [
    [-1.9999727010726929, -1.4570093753718538e-07, 0.010450106114149094, 104.98873901367188],
    [-0.000674524053465575, 1.9958311319351196, -0.1290646195411682, -81.82478332519531],
    [0.010428314097225666, 0.1290663778781891, 1.9958038330078125, -105.8681411743164],
    [0.0, 0.0, 0.0, 1.0]
],
  "dcmmeta_reorient_transform": [
    [0.0, -1.0, 0.0, 103.0],
    [1.0, 0.0, 0.0, 0.0],
    [0.0, 0.0, 1.0, 0.0],
    [0.0, 0.0, 0.0, 1.0]
],
  "dcmmeta_shape": [104, 104, 72, 581],
  "dcmmeta_slice_dim": 2,
  "dcmmeta_version": 0.6,
  "global": {
    "const": {
      "AcquisitionMatrix": [104, 0, 0, 104],
      "AngioFlag": "N",
      "BitsAllocated": 16,
      "BitsStored": 12,
      "Columns": 936,
      "EchoNumbers": 1,
      "EchoTime": 34.8,
      "EchoTrainLength": 1,
      "FlipAngle": 55.0,
      "HighBit": 11,
      "ImageOrientationPatient": [0.99998634931758, 0.00033726203615, 0.00521415696145, -7.2850471e-08, 0.99791556121803, -0.0645331905216],
      "ImagePositionPatient": [-936.97730445001, -954.29217285461, -43.220869084802],
      "ImageType": [
        "ORIGINAL",
        "PRIMARY",
        "M",
        "MB",
        "ND",
        "MOSAIC"
],
      "ImagedNucleus": "1H",
      "ImagingFrequency": 123.234504,
      "InPlanePhaseEncodingDirection": "COL",
      "MRAcquisitionType": "2D",
      "MagneticFieldStrength": 3.0,
      "Manufacturer": "SIEMENS",
      "ManufacturerModelName": "TrioTim",
      "Modality": "MR",
      "NumberOfAverages": 1.0,
      "NumberOfPhaseEncodingSteps": 91,
      "PercentPhaseFieldOfView": 100.0,
      "PercentSampling": 100.0,
      "PerformedProcedureStepStartTime": "141412.781000",
      "PhotometricInterpretation": "MONOCHROME2",
      "PixelBandwidth": 1923.0,
      "PixelRepresentation": 0,
      "PixelSpacing": [2.0, 2.0],
      "ProtocolName": "cmrr_mbep2d_bold_2mm_MB8_Task_8x",
      "RepetitionTime": 785.0,
      "Rows": 936,
      "SAR": 0.17556639857635,
      "SamplesPerPixel": 1,
      "ScanOptions": [
        "PFP",
        "FS"
],
      "ScanningSequence": "EP",
      "SequenceName": "epfid2d1_104",
      "SequenceVariant": [
        "SK",
        "SS"
],
      "SeriesDescription": "cmrr_mbep2d_bold_2mm_MB8_Task_8x",
      "SeriesNumber": 13,
      "SeriesTime": "154302.531000",
      "SliceLocation": -99.817110606713,
      "SliceThickness": 2.0,
      "SmallestImagePixelValue": 0,
      "SoftwareVersions": "syngo MR B19",
      "SpacingBetweenSlices": 2.000000009219,
      "SpecificCharacterSet": "ISO_IR 100",
      "StudyID": "1",
      "StudyTime": "141412.750000",
      "TransmitCoilName": "Body",
      "VariableFlipAngleFlag": "N",
      "WindowCenterWidthExplanation": "Algo1",
      "dBdt": 0.0},
    "slices": {}
  },
  "time": {
    "samples": {
      "AcquisitionNumber": [1, 2, 3, 4, 5, 6, 7, 8, 9, 10, 11, 12, 13, 14, 15, 16, 17, 18, 19, 20, 21, 22, 23, 24, 25, 26, 27, 28, 29, 30, 31, 32, 33, 34, 35, 36, 37, 38, 39, 40, 41, 42, 43, 44, 45, 46, 47, 48, 49, 50, 51, 52, 53, 54, 55, 56, 57, 58, 59, 60, 61, 62, 63, 64, 65, 66, 67, 68, 69, 70, 71, 72, 73, 74, 75, 76, 77, 78, 79, 80, 81, 82, 83, 84, 85, 86, 87, 88, 89, 90, 91, 92, 93, 94, 95, 96, 97, 98, 99, 100, 101, 102, 103, 104, 105, 106, 107, 108, 109, 110, 111, 112, 113, 114, 115, 116, 117, 118, 119, 120, 121, 122, 123, 124, 125, 126, 127, 128, 129, 130, 131, 132, 133, 134, 135, 136, 137, 138, 139, 140, 141, 142, 143, 144, 145, 146, 147, 148, 149, 150, 151, 152, 153, 154, 155, 156, 157, 158, 159, 160, 161, 162, 163, 164, 165, 166, 167, 168, 169, 170, 171, 172, 173, 174, 175, 176, 177, 178, 179, 180, 181, 182, 183, 184, 185, 186, 187, 188, 189, 190, 191, 192, 193, 194, 195, 196, 197, 198, 199, 200, 201, 202, 203, 204, 205, 206, 207, 208, 209, 210, 211, 212, 213, 214, 215, 216, 217, 218, 219, 220, 221, 222, 223, 224, 225, 226, 227, 228, 229, 230, 231, 232, 233, 234, 235, 236, 237, 238, 239, 240, 241, 242, 243, 244, 245, 246, 247, 248, 249, 250, 251, 252, 253, 254, 255, 256, 257, 258, 259, 260, 261, 262, 263, 264, 265, 266, 267, 268, 269, 270, 271, 272, 273, 274, 275, 276, 277, 278, 279, 280, 281, 282, 283, 284, 285, 286, 287, 288, 289, 290, 291, 292, 293, 294, 295, 296, 297, 298, 299, 300, 301, 302, 303, 304, 305, 306, 307, 308, 309, 310, 311, 312, 313, 314, 315, 316, 317, 318, 319, 320, 321, 322, 323, 324, 325, 326, 327, 328, 329, 330, 331, 332, 333, 334, 335, 336, 337, 338, 339, 340, 341, 342, 343, 344, 345, 346, 347, 348, 349, 350, 351, 352, 353, 354, 355, 356, 357, 358, 359, 360, 361, 362, 363, 364, 365, 366, 367, 368, 369, 370, 371, 372, 373, 374, 375, 376, 377, 378, 379, 380, 381, 382, 383, 384, 385, 386, 387, 388, 389, 390, 391, 392, 393, 394, 395, 396, 397, 398, 399, 400, 401, 402, 403, 404, 405, 406, 407, 408, 409, 410, 411, 412, 413, 414, 415, 416, 417, 418, 419, 420, 421, 422, 423, 424, 425, 426, 427, 428, 429, 430, 431, 432, 433, 434, 435, 436, 437, 438, 439, 440, 441, 442, 443, 444, 445, 446, 447, 448, 449, 450, 451, 452, 453, 454, 455, 456, 457, 458, 459, 460, 461, 462, 463, 464, 465, 466, 467, 468, 469, 470, 471, 472, 473, 474, 475, 476, 477, 478, 479, 480, 481, 482, 483, 484, 485, 486, 487, 488, 489, 490, 491, 492, 493, 494, 495, 496, 497, 498, 499, 500, 501, 502, 503, 504, 505, 506, 507, 508, 509, 510, 511, 512, 513, 514, 515, 516, 517, 518, 519, 520, 521, 522, 523, 524, 525, 526, 527, 528, 529, 530, 531, 532, 533, 534, 535, 536, 537, 538, 539, 540, 541, 542, 543, 544, 545, 546, 547, 548, 549, 550, 551, 552, 553, 554, 555, 556, 557, 558, 559, 560, 561, 562, 563, 564, 565, 566, 567, 568, 569, 570, 571, 572, 573, 574, 575, 576, 577, 578, 579, 580, 581],
      "AcquisitionTime": ["154228.237500", "154229.025000", "154229.812500", "154230.602500", "154231.390000", "154232.177500", "154232.965000", "154233.755000", "154234.542500", "154235.330000", "154236.117500", "154236.907500", "154237.695000", "154238.482500", "154239.270000", "154240.060000", "154240.847500", "154241.635000", "154242.425000", "154243.212500", "154244.000000", "154244.787500", "154245.577500", "154246.365000", "154247.152500", "154247.940000", "154248.730000", "154249.517500", "154250.305000", "154251.092500", "154251.882500", "154252.670000", "154253.457500", "154254.245000", "154255.035000", "154255.822500", "154256.610000", "154257.397500", "154258.187500", "154258.975000", "154259.762500", "154300.552500", "154301.340000", "154302.127500", "154302.915000", "154303.705000", "154304.492500", "154305.280000", "154306.067500", "154306.857500", "154307.645000", "154308.432500", "154309.220000", "154310.010000", "154310.797500", "154311.585000", "154312.372500", "154313.162500", "154313.950000", "154314.737500", "154315.525000", "154316.315000", "154317.102500", "154317.890000", "154318.680000", "154319.467500", "154320.255000", "154321.042500", "154321.832500", "154322.620000", "154323.407500", "154324.195000", "154324.985000", "154325.772500", "154326.560000", "154327.347500", "154328.137500", "154328.925000", "154329.712500", "154330.500000", "154331.290000", "154332.077500", "154332.865000", "154333.652500", "154334.442500", "154335.230000", "154336.017500", "154336.807500", "154337.595000", "154338.382500", "154339.170000", "154339.960000", "154340.747500", "154341.535000", "154342.322500", "154343.112500", "154343.900000", "154344.687500", "154345.475000", "154346.265000", "154347.052500", "154347.840000", "154348.627500", "154349.417500", "154350.205000", "154350.992500", "154351.780000", "154352.570000", "154353.357500", "154354.145000", "154354.935000", "154355.722500", "154356.510000", "154357.297500", "154358.087500", "154358.875000", "154359.662500", "154400.450000", "154401.240000", "154402.027500", "154402.815000", "154403.602500", "154404.392500", "154405.180000", "154405.967500", "154406.755000", "154407.545000", "154408.332500", "154409.120000", "154409.907500", "154410.697500", "154411.485000", "154412.272500", "154413.062500", "154413.850000", "154414.637500", "154415.425000", "154416.215000", "154417.002500", "154417.790000", "154418.577500", "154419.367500", "154420.155000", "154420.942500", "154421.730000", "154422.520000", "154423.307500", "154424.095000", "154424.882500", "154425.672500", "154426.460000", "154427.247500", "154428.035000", "154428.825000", "154429.612500", "154430.400000", "154431.190000", "154431.977500", "154432.765000", "154433.552500", "154434.342500", "154435.130000", "154435.917500", "154436.705000", "154437.495000", "154438.282500", "154439.070000", "154439.857500", "154440.647500", "154441.435000", "154442.222500", "154443.010000", "154443.800000", "154444.587500", "154445.375000", "154446.162500", "154446.952500", "154447.740000", "154448.527500", "154449.317500", "154450.105000", "154450.892500", "154451.680000", "154452.470000", "154453.257500", "154454.045000", "154454.832500", "154455.622500", "154456.410000", "154457.197500", "154457.985000", "154458.775000", "154459.562500", "154500.350000", "154501.137500", "154501.927500", "154502.715000", "154503.502500", "154504.290000", "154505.080000", "154505.867500", "154506.655000", "154507.445000", "154508.232500", "154509.020000", "154509.807500", "154510.597500", "154511.385000", "154512.172500", "154512.960000", "154513.750000", "154514.537500", "154515.325000", "154516.112500", "154516.902500", "154517.690000", "154518.477500", "154519.265000", "154520.055000", "154520.842500", "154521.630000", "154522.420000", "154523.207500", "154523.995000", "154524.782500", "154525.572500", "154526.360000", "154527.147500", "154527.935000", "154528.725000", "154529.512500", "154530.300000", "154531.087500", "154531.877500", "154532.665000", "154533.452500", "154534.240000", "154535.030000", "154535.817500", "154536.605000", "154537.392500", "154538.182500", "154538.970000", "154539.757500", "154540.547500", "154541.335000", "154542.122500", "154542.910000", "154543.700000", "154544.487500", "154545.275000", "154546.062500", "154546.852500", "154547.640000", "154548.427500", "154549.215000", "154550.005000", "154550.792500", "154551.580000", "154552.367500", "154553.157500", "154553.945000", "154554.732500", "154555.520000", "154556.310000", "154557.097500", "154557.885000", "154558.675000", "154559.462500", "154600.250000", "154601.037500", "154601.827500", "154602.615000", "154603.402500", "154604.190000", "154604.980000", "154605.767500", "154606.555000", "154607.342500", "154608.132500", "154608.920000", "154609.707500", "154610.495000", "154611.285000", "154612.072500", "154612.860000", "154613.647500", "154614.437500", "154615.225000", "154616.012500", "154616.802500", "154617.590000", "154618.377500", "154619.165000", "154619.955000", "154620.742500", "154621.530000", "154622.317500", "154623.107500", "154623.895000", "154624.682500", "154625.470000", "154626.260000", "154627.047500", "154627.835000", "154628.622500", "154629.412500", "154630.200000", "154630.987500", "154631.775000", "154632.565000", "154633.352500", "154634.140000", "154634.930000", "154635.717500", "154636.505000", "154637.292500", "154638.082500", "154638.870000", "154639.657500", "154640.445000", "154641.235000", "154642.022500", "154642.810000", "154643.597500", "154644.387500", "154645.175000", "154645.962500", "154646.750000", "154647.540000", "154648.327500", "154649.115000", "154649.902500", "154650.692500", "154651.480000", "154652.267500", "154653.057500", "154653.845000", "154654.632500", "154655.420000", "154656.210000", "154656.997500", "154657.785000", "154658.572500", "154659.362500", "154700.150000", "154700.937500", "154701.725000", "154702.515000", "154703.302500", "154704.090000", "154704.877500", "154705.667500", "154706.455000", "154707.242500", "154708.030000", "154708.820000", "154709.607500", "154710.395000", "154711.185000", "154711.972500", "154712.760000", "154713.547500", "154714.337500", "154715.125000", "154715.912500", "154716.700000", "154717.490000", "154718.277500", "154719.065000", "154719.852500", "154720.642500", "154721.430000", "154722.217500", "154723.005000", "154723.795000", "154724.582500", "154725.370000", "154726.157500", "154726.947500", "154727.735000", "154728.522500", "154729.312500", "154730.100000", "154730.887500", "154731.675000", "154732.465000", "154733.252500", "154734.040000", "154734.827500", "154735.617500", "154736.405000", "154737.192500", "154737.980000", "154738.770000", "154739.557500", "154740.345000", "154741.132500", "154741.922500", "154742.710000", "154743.497500", "154744.285000", "154745.075000", "154745.862500", "154746.650000", "154747.440000", "154748.227500", "154749.015000", "154749.802500", "154750.592500", "154751.380000", "154752.167500", "154752.955000", "154753.745000", "154754.532500", "154755.320000", "154756.107500", "154756.897500", "154757.685000", "154758.472500", "154759.260000", "154800.050000", "154800.837500", "154801.625000", "154802.412500", "154803.202500", "154803.990000", "154804.777500", "154805.567500", "154806.355000", "154807.142500", "154807.930000", "154808.720000", "154809.507500", "154810.295000", "154811.082500", "154811.872500", "154812.660000", "154813.447500", "154814.235000", "154815.025000", "154815.812500", "154816.600000", "154817.387500", "154818.177500", "154818.965000", "154819.752500", "154820.540000", "154821.330000", "154822.117500", "154822.905000", "154823.695000", "154824.482500", "154825.270000", "154826.057500", "154826.847500", "154827.635000", "154828.422500", "154829.210000", "154830.000000", "154830.787500", "154831.575000", "154832.362500", "154833.152500", "154833.940000", "154834.727500", "154835.515000", "154836.305000", "154837.092500", "154837.880000", "154838.670000", "154839.457500", "154840.245000", "154841.032500", "154841.822500", "154842.610000", "154843.397500", "154844.185000", "154844.975000", "154845.762500", "154846.550000", "154847.337500", "154848.127500", "154848.915000", "154849.702500", "154850.490000", "154851.280000", "154852.067500", "154852.855000", "154853.642500", "154854.432500", "154855.220000", "154856.007500", "154856.797500", "154857.585000", "154858.372500", "154859.160000", "154859.950000", "154900.737500", "154901.525000", "154902.312500", "154903.102500", "154903.890000", "154904.677500", "154905.465000", "154906.255000", "154907.042500", "154907.830000", "154908.617500", "154909.407500", "154910.195000", "154910.982500", "154911.770000", "154912.560000", "154913.347500", "154914.135000", "154914.925000", "154915.712500", "154916.500000", "154917.287500", "154918.077500", "154918.865000", "154919.652500", "154920.440000", "154921.230000", "154922.017500", "154922.805000", "154923.592500", "154924.382500", "154925.170000", "154925.957500", "154926.745000", "154927.535000", "154928.322500", "154929.110000", "154929.897500", "154930.687500", "154931.475000", "154932.262500", "154933.052500", "154933.840000", "154934.627500", "154935.415000", "154936.205000", "154936.992500", "154937.780000", "154938.567500", "154939.357500", "154940.145000", "154940.932500", "154941.720000", "154942.510000", "154943.297500", "154944.085000", "154944.872500", "154945.662500", "154946.450000", "154947.237500", "154948.025000", "154948.815000", "154949.602500", "154950.390000", "154951.180000", "154951.967500", "154952.755000", "154953.542500", "154954.332500", "154955.120000", "154955.907500", "154956.695000", "154957.485000", "154958.272500", "154959.060000", "154959.847500", "155000.637500", "155001.425000", "155002.212500", "155003.000000", "155003.790000", "155004.577500", "155005.365000"],
      "ContentTime": ["154302.531000", "154302.546000", "154302.546000", "154302.546000", "154302.546000", "154302.546000", "154302.546000", "154302.546000", "154302.562000", "154302.562000", "154302.562000", "154302.562000", "154302.562000", "154302.562000", "154302.562000", "154302.578000", "154302.578000", "154302.578000", "154302.578000", "154302.578000", "154302.578000", "154302.578000", "154302.593000", "154302.593000", "154302.593000", "154302.593000", "154302.593000", "154302.593000", "154302.593000", "154302.609000", "154302.609000", "154302.609000", "154302.609000", "154302.609000", "154302.609000", "154302.625000", "154302.625000", "154302.625000", "154302.625000", "154302.625000", "154302.625000", "154322.515000", "154322.515000", "154322.515000", "154322.515000", "154322.515000", "154322.531000", "154322.531000", "154322.531000", "154322.531000", "154322.531000", "154322.531000", "154322.531000", "154322.546000", "154322.546000", "154322.546000", "154322.546000", "154322.546000", "154322.546000", "154322.546000", "154322.562000", "154322.562000", "154322.562000", "154322.562000", "154322.562000", "154322.562000", "154322.562000", "154342.515000", "154342.515000", "154342.515000", "154342.515000", "154342.515000", "154342.531000", "154342.531000", "154342.531000", "154342.531000", "154342.531000", "154342.531000", "154342.531000", "154342.546000", "154342.546000", "154342.546000", "154342.546000", "154342.546000", "154342.546000", "154342.546000", "154342.562000", "154342.562000", "154342.562000", "154342.562000", "154342.562000", "154342.562000", "154402.515000", "154402.515000", "154402.515000", "154402.515000", "154402.515000", "154402.531000", "154402.531000", "154402.531000", "154402.531000", "154402.531000", "154402.546000", "154402.546000", "154402.546000", "154402.546000", "154402.546000", "154402.546000", "154402.546000", "154402.562000", "154402.562000", "154402.562000", "154402.562000", "154402.562000", "154402.562000", "154402.562000", "154402.578000", "154402.578000", "154422.515000", "154422.515000", "154422.515000", "154422.515000", "154422.515000", "154422.531000", "154422.531000", "154422.531000", "154422.531000", "154422.531000", "154422.531000", "154422.546000", "154422.546000", "154422.546000", "154422.546000", "154422.546000", "154422.546000", "154422.546000", "154422.562000", "154422.562000", "154422.562000", "154422.562000", "154422.562000", "154422.562000", "154422.578000", "154442.515000", "154442.515000", "154442.515000", "154442.515000", "154442.515000", "154442.531000", "154442.531000", "154442.531000", "154442.531000", "154442.531000", "154442.531000", "154442.531000", "154442.546000", "154442.546000", "154442.546000", "154442.546000", "154442.546000", "154442.546000", "154442.546000", "154442.562000", "154442.562000", "154442.562000", "154442.562000", "154442.562000", "154442.562000", "154442.562000", "154502.515000", "154502.515000", "154502.515000", "154502.515000", "154502.515000", "154502.531000", "154502.531000", "154502.531000", "154502.531000", "154502.531000", "154502.531000", "154502.546000", "154502.546000", "154502.546000", "154502.546000", "154502.546000", "154502.546000", "154502.546000", "154502.562000", "154502.562000", "154502.562000", "154502.562000", "154502.562000", "154502.562000", "154502.562000", "154522.515000", "154522.515000", "154522.515000", "154522.515000", "154522.531000", "154522.531000", "154522.531000", "154522.531000", "154522.531000", "154522.531000", "154522.531000", "154522.546000", "154522.546000", "154522.546000", "154522.546000", "154522.546000", "154522.546000", "154522.546000", "154522.562000", "154522.562000", "154522.562000", "154522.562000", "154522.562000", "154522.562000", "154522.562000", "154522.578000", "154542.515000", "154542.515000", "154542.515000", "154542.515000", "154542.515000", "154542.531000", "154542.531000", "154542.531000", "154542.531000", "154542.531000", "154542.531000", "154542.546000", "154542.546000", "154542.546000", "154542.546000", "154542.546000", "154542.546000", "154542.546000", "154542.562000", "154542.562000", "154542.562000", "154542.562000", "154542.562000", "154542.562000", "154542.562000", "154602.515000", "154602.515000", "154602.515000", "154602.515000", "154602.515000", "154602.531000", "154602.531000", "154602.531000", "154602.531000", "154602.531000", "154602.531000", "154602.531000", "154602.546000", "154602.546000", "154602.546000", "154602.546000", "154602.546000", "154602.546000", "154602.546000", "154602.562000", "154602.562000", "154602.562000", "154602.562000", "154602.562000", "154602.562000", "154602.562000", "154622.515000", "154622.515000", "154622.515000", "154622.515000", "154622.515000", "154622.531000", "154622.531000", "154622.531000", "154622.531000", "154622.531000", "154622.531000", "154622.531000", "154622.546000", "154622.546000", "154622.546000", "154622.546000", "154622.546000", "154622.546000", "154622.546000", "154622.562000", "154622.562000", "154622.562000", "154622.562000", "154622.562000", "154622.562000", "154642.515000", "154642.515000", "154642.515000", "154642.515000", "154642.515000", "154642.531000", "154642.531000", "154642.531000", "154642.531000", "154642.531000", "154642.531000", "154642.531000", "154642.546000", "154642.546000", "154642.546000", "154642.546000", "154642.546000", "154642.546000", "154642.546000", "154642.562000", "154642.562000", "154642.562000", "154642.562000", "154642.562000", "154642.562000", "154702.515000", "154702.515000", "154702.515000", "154702.515000", "154702.531000", "154702.531000", "154702.531000", "154702.531000", "154702.531000", "154702.531000", "154702.531000", "154702.546000", "154702.546000", "154702.546000", "154702.546000", "154702.546000", "154702.546000", "154702.546000", "154702.562000", "154702.562000", "154702.562000", "154702.562000", "154702.562000", "154702.562000", "154702.562000", "154702.578000", "154722.515000", "154722.515000", "154722.515000", "154722.515000", "154722.531000", "154722.531000", "154722.531000", "154722.531000", "154722.531000", "154722.531000", "154722.546000", "154722.546000", "154722.546000", "154722.546000", "154722.546000", "154722.546000", "154722.546000", "154722.562000", "154722.562000", "154722.562000", "154722.562000", "154722.562000", "154722.562000", "154722.562000", "154722.578000", "154742.515000", "154742.515000", "154742.515000", "154742.515000", "154742.515000", "154742.531000", "154742.531000", "154742.531000", "154742.531000", "154742.531000", "154742.531000", "154742.531000", "154742.546000", "154742.546000", "154742.546000", "154742.546000", "154742.546000", "154742.546000", "154742.562000", "154742.562000", "154742.562000", "154742.562000", "154742.562000", "154742.562000", "154742.562000", "154742.578000", "154802.515000", "154802.515000", "154802.515000", "154802.515000", "154802.531000", "154802.531000", "154802.531000", "154802.531000", "154802.531000", "154802.531000", "154802.531000", "154802.546000", "154802.546000", "154802.546000", "154802.546000", "154802.546000", "154802.562000", "154802.562000", "154802.562000", "154802.562000", "154802.562000", "154802.578000", "154802.578000", "154802.578000", "154802.578000", "154822.515000", "154822.515000", "154822.515000", "154822.515000", "154822.531000", "154822.531000", "154822.531000", "154822.531000", "154822.531000", "154822.531000", "154822.546000", "154822.546000", "154822.546000", "154822.546000", "154822.546000", "154822.546000", "154822.546000", "154822.562000", "154822.562000", "154822.562000", "154822.562000", "154822.562000", "154822.562000", "154822.562000", "154822.578000", "154822.578000", "154842.515000", "154842.515000", "154842.515000", "154842.515000", "154842.515000", "154842.531000", "154842.531000", "154842.531000", "154842.531000", "154842.531000", "154842.531000", "154842.531000", "154842.546000", "154842.546000", "154842.546000", "154842.546000", "154842.546000", "154842.546000", "154842.562000", "154842.562000", "154842.562000", "154842.562000", "154842.562000", "154842.578000", "154842.578000", "154902.515000", "154902.515000", "154902.515000", "154902.515000", "154902.515000", "154902.531000", "154902.531000", "154902.531000", "154902.531000", "154902.531000", "154902.531000", "154902.531000", "154902.546000", "154902.546000", "154902.546000", "154902.546000", "154902.546000", "154902.562000", "154902.562000", "154902.562000", "154902.562000", "154902.562000", "154902.562000", "154902.562000", "154902.578000", "154902.578000", "154922.515000", "154922.515000", "154922.515000", "154922.515000", "154922.515000", "154922.531000", "154922.531000", "154922.531000", "154922.531000", "154922.531000", "154922.531000", "154922.546000", "154922.546000", "154922.546000", "154922.546000", "154922.546000", "154922.546000", "154922.562000", "154922.562000", "154922.562000", "154922.562000", "154922.562000", "154922.562000", "154922.562000", "154922.578000", "154942.515000", "154942.515000", "154942.515000", "154942.515000", "154942.515000", "154942.531000", "154942.531000", "154942.531000", "154942.531000", "154942.531000", "154942.531000", "154942.531000", "154942.546000", "154942.546000", "154942.546000", "154942.546000", "154942.546000", "154942.546000", "154942.562000", "154942.562000", "154942.562000", "154942.562000", "154942.562000", "154942.562000", "154942.562000", "154942.562000", "155002.515000", "155002.515000", "155002.515000", "155002.515000", "155002.515000", "155002.531000", "155002.531000", "155002.531000", "155002.531000", "155002.531000", "155002.531000", "155002.546000", "155002.546000", "155002.546000", "155002.546000", "155002.546000", "155002.562000", "155002.562000", "155002.562000", "155002.562000", "155002.562000", "155002.562000", "155002.562000", "155002.578000", "155002.578000", "155005.890000", "155005.890000", "155005.906000", "155005.906000", "155005.906000"],
      "DataSetTrailingPadding": [
