{
  "AcquisitionMatrixPE": 104,
  "AcquisitionNumber": 1,
  "AcquisitionTime": "15:50:33.705000",
  "BandwidthPerPixelPhaseEncode": 13.935,
  "BaseResolution": 104,
  "CoilString": "C:HEA;HEP",
  "ConversionSoftware": "dcm2niix",
  "ConversionSoftwareVersion": "v1.0.20210317",
  "DerivedVendorReportedEchoSpacing": 0.000690017,
  "DeviceSerialNumber": "35450",
  "DwellTime": 2.5e-06,
  "EchoTime": 0.0348,
  "EffectiveEchoSpacing": 0.000690017,
  "FlipAngle": 55,
  "ImageComments": "Unaliased MB8/PE3 (remote)",
  "ImageOrientationPatientDICOM": [0.999986, 0.000337262, 0.00521416, -7.28505e-08, 0.997916, -0.0645332],
  "ImageType": [
    "ORIGINAL",
    "PRIMARY",
    "M",
    "MB",
    "ND",
    "MOSAIC"
],
  "ImagingFrequency": 123.235,
  "InPlanePhaseEncodingDirectionDICOM": "COL",
  "InstitutionAddress": "Univeristy Ave. 197,Newark,North East,US,07102-1814",
  "InstitutionName": "RUBIC",
  "InstitutionalDepartmentName": "Department",
  "MRAcquisitionType": "2D",
  "MagneticFieldStrength": 3,
  "Manufacturer": "Siemens",
  "ManufacturersModelName": "TrioTim",
  "Modality": "MR",
  "MultibandAccelerationFactor": 8,
  "PartialFourier": 0.875,
  "PatientPosition": "HFS",
  "PercentPhaseFOV": 100,
  "PercentSampling": 100,
  "PhaseEncodingDirection": "j-",
  "PhaseEncodingSteps": 91,
  "PhaseResolution": 1,
  "PixelBandwidth": 1923,
  "ProcedureStepDescription": "Cole^Michael",
  "ProtocolName": "cmrr_mbep2d_bold_2mm_MB8_Task_8x",
  "PulseSequenceDetails": "%CustomerSeq%\\cmrr_mbep2d_bold",
  "ReceiveCoilName": "32Ch_Head",
  "ReconMatrixPE": 104,
  "RepetitionTime": 0.785,
  "SAR": 0.164509,
  "ScanOptions": "PFP\\FS",
  "ScanningSequence": "EP",
  "SequenceName": "epfid2d1_104",
  "SequenceVariant": "SK\\SS",
  "SeriesDescription": "cmrr_mbep2d_bold_2mm_MB8_Task_8x",
  "SeriesNumber": 15,
  "ShimSetting": [2113, -348, -7350, 468, -141, -320, 209, 4],
  "SliceThickness": 2,
  "SliceTiming": [0, 0.44, 0.0875, 0.5275, 0.175, 0.615, 0.265, 0.7025, 0.3525, 0, 0.44, 0.0875, 0.5275, 0.175, 0.615, 0.265, 0.7025, 0.3525, 0, 0.44, 0.0875, 0.5275, 0.175, 0.615, 0.265, 0.7025, 0.3525, 0, 0.44, 0.0875, 0.5275, 0.175, 0.615, 0.265, 0.7025, 0.3525, 0, 0.44, 0.0875, 0.5275, 0.175, 0.615, 0.265, 0.7025, 0.3525, 0, 0.44, 0.0875, 0.5275, 0.175, 0.615, 0.265, 0.7025, 0.3525, 0, 0.44, 0.0875, 0.5275, 0.175, 0.615, 0.265, 0.7025, 0.3525, 0, 0.44, 0.0875, 0.5275, 0.175, 0.615, 0.265, 0.7025, 0.3525],
  "SoftwareVersions": "syngo MR B19",
  "SpacingBetweenSlices": 2,
  "StationName": "MRC35450",
  "TaskName": "cpro",
  "TotalReadoutTime": 0.0710717,
  "TxRefAmp": 363.784,
  "dcmmeta_affine": [
    [-1.9999727010726929, -1.4570093753718538e-07, 0.010450106114149094, 104.98873901367188],
    [-0.000674524053465575, 1.9958311319351196, -0.1290646195411682, -81.82478332519531],
    [0.010428314097225666, 0.1290663778781891, 1.9958038330078125, -105.8681411743164],
    [0.0, 0.0, 0.0, 1.0]
],
  "dcmmeta_reorient_transform": [
    [0.0, -1.0, 0.0, 103.0],
    [1.0, 0.0, 0.0, 0.0],
    [0.0, 0.0, 1.0, 0.0],
    [0.0, 0.0, 0.0, 1.0]
],
  "dcmmeta_shape": [104, 104, 72, 581],
  "dcmmeta_slice_dim": 2,
  "dcmmeta_version": 0.6,
  "global": {
    "const": {
      "AcquisitionMatrix": [104, 0, 0, 104],
      "AngioFlag": "N",
      "BitsAllocated": 16,
      "BitsStored": 12,
      "Columns": 936,
      "EchoNumbers": 1,
      "EchoTime": 34.8,
      "EchoTrainLength": 1,
      "FlipAngle": 55.0,
      "HighBit": 11,
      "ImageOrientationPatient": [0.99998634931758, 0.00033726203615, 0.00521415696145, -7.2850471e-08, 0.99791556121803, -0.0645331905216],
      "ImagePositionPatient": [-936.97730445001, -954.29217285461, -43.220869084802],
      "ImageType": [
        "ORIGINAL",
        "PRIMARY",
        "M",
        "MB",
        "ND",
        "MOSAIC"
],
      "ImagedNucleus": "1H",
      "ImagingFrequency": 123.234504,
      "InPlanePhaseEncodingDirection": "COL",
      "MRAcquisitionType": "2D",
      "MagneticFieldStrength": 3.0,
      "Manufacturer": "SIEMENS",
      "ManufacturerModelName": "TrioTim",
      "Modality": "MR",
      "NumberOfAverages": 1.0,
      "NumberOfPhaseEncodingSteps": 91,
      "PercentPhaseFieldOfView": 100.0,
      "PercentSampling": 100.0,
      "PerformedProcedureStepStartTime": "141412.781000",
      "PhotometricInterpretation": "MONOCHROME2",
      "PixelBandwidth": 1923.0,
      "PixelRepresentation": 0,
      "PixelSpacing": [2.0, 2.0],
      "ProtocolName": "cmrr_mbep2d_bold_2mm_MB8_Task_8x",
      "RepetitionTime": 785.0,
      "Rows": 936,
      "SAR": 0.16450869366247,
      "SamplesPerPixel": 1,
      "ScanOptions": [
        "PFP",
        "FS"
],
      "ScanningSequence": "EP",
      "SequenceName": "epfid2d1_104",
      "SequenceVariant": [
        "SK",
        "SS"
],
      "SeriesDescription": "cmrr_mbep2d_bold_2mm_MB8_Task_8x",
      "SeriesNumber": 15,
      "SeriesTime": "155058.593000",
      "SliceLocation": -99.817110606713,
      "SliceThickness": 2.0,
      "SmallestImagePixelValue": 0,
      "SoftwareVersions": "syngo MR B19",
      "SpacingBetweenSlices": 2.000000009219,
      "SpecificCharacterSet": "ISO_IR 100",
      "StudyID": "1",
      "StudyTime": "141412.750000",
      "TransmitCoilName": "Body",
      "VariableFlipAngleFlag": "N",
      "WindowCenterWidthExplanation": "Algo1",
      "dBdt": 0.0},
    "slices": {}
  },
  "time": {
    "samples": {
      "AcquisitionNumber": [1, 2, 3, 4, 5, 6, 7, 8, 9, 10, 11, 12, 13, 14, 15, 16, 17, 18, 19, 20, 21, 22, 23, 24, 25, 26, 27, 28, 29, 30, 31, 32, 33, 34, 35, 36, 37, 38, 39, 40, 41, 42, 43, 44, 45, 46, 47, 48, 49, 50, 51, 52, 53, 54, 55, 56, 57, 58, 59, 60, 61, 62, 63, 64, 65, 66, 67, 68, 69, 70, 71, 72, 73, 74, 75, 76, 77, 78, 79, 80, 81, 82, 83, 84, 85, 86, 87, 88, 89, 90, 91, 92, 93, 94, 95, 96, 97, 98, 99, 100, 101, 102, 103, 104, 105, 106, 107, 108, 109, 110, 111, 112, 113, 114, 115, 116, 117, 118, 119, 120, 121, 122, 123, 124, 125, 126, 127, 128, 129, 130, 131, 132, 133, 134, 135, 136, 137, 138, 139, 140, 141, 142, 143, 144, 145, 146, 147, 148, 149, 150, 151, 152, 153, 154, 155, 156, 157, 158, 159, 160, 161, 162, 163, 164, 165, 166, 167, 168, 169, 170, 171, 172, 173, 174, 175, 176, 177, 178, 179, 180, 181, 182, 183, 184, 185, 186, 187, 188, 189, 190, 191, 192, 193, 194, 195, 196, 197, 198, 199, 200, 201, 202, 203, 204, 205, 206, 207, 208, 209, 210, 211, 212, 213, 214, 215, 216, 217, 218, 219, 220, 221, 222, 223, 224, 225, 226, 227, 228, 229, 230, 231, 232, 233, 234, 235, 236, 237, 238, 239, 240, 241, 242, 243, 244, 245, 246, 247, 248, 249, 250, 251, 252, 253, 254, 255, 256, 257, 258, 259, 260, 261, 262, 263, 264, 265, 266, 267, 268, 269, 270, 271, 272, 273, 274, 275, 276, 277, 278, 279, 280, 281, 282, 283, 284, 285, 286, 287, 288, 289, 290, 291, 292, 293, 294, 295, 296, 297, 298, 299, 300, 301, 302, 303, 304, 305, 306, 307, 308, 309, 310, 311, 312, 313, 314, 315, 316, 317, 318, 319, 320, 321, 322, 323, 324, 325, 326, 327, 328, 329, 330, 331, 332, 333, 334, 335, 336, 337, 338, 339, 340, 341, 342, 343, 344, 345, 346, 347, 348, 349, 350, 351, 352, 353, 354, 355, 356, 357, 358, 359, 360, 361, 362, 363, 364, 365, 366, 367, 368, 369, 370, 371, 372, 373, 374, 375, 376, 377, 378, 379, 380, 381, 382, 383, 384, 385, 386, 387, 388, 389, 390, 391, 392, 393, 394, 395, 396, 397, 398, 399, 400, 401, 402, 403, 404, 405, 406, 407, 408, 409, 410, 411, 412, 413, 414, 415, 416, 417, 418, 419, 420, 421, 422, 423, 424, 425, 426, 427, 428, 429, 430, 431, 432, 433, 434, 435, 436, 437, 438, 439, 440, 441, 442, 443, 444, 445, 446, 447, 448, 449, 450, 451, 452, 453, 454, 455, 456, 457, 458, 459, 460, 461, 462, 463, 464, 465, 466, 467, 468, 469, 470, 471, 472, 473, 474, 475, 476, 477, 478, 479, 480, 481, 482, 483, 484, 485, 486, 487, 488, 489, 490, 491, 492, 493, 494, 495, 496, 497, 498, 499, 500, 501, 502, 503, 504, 505, 506, 507, 508, 509, 510, 511, 512, 513, 514, 515, 516, 517, 518, 519, 520, 521, 522, 523, 524, 525, 526, 527, 528, 529, 530, 531, 532, 533, 534, 535, 536, 537, 538, 539, 540, 541, 542, 543, 544, 545, 546, 547, 548, 549, 550, 551, 552, 553, 554, 555, 556, 557, 558, 559, 560, 561, 562, 563, 564, 565, 566, 567, 568, 569, 570, 571, 572, 573, 574, 575, 576, 577, 578, 579, 580, 581],
      "AcquisitionTime": ["155033.705000", "155034.495000", "155035.282500", "155036.070000", "155036.860000", "155037.647500", "155038.435000", "155039.222500", "155040.012500", "155040.800000", "155041.587500", "155042.375000", "155043.165000", "155043.952500", "155044.740000", "155045.527500", "155046.317500", "155047.105000", "155047.892500", "155048.680000", "155049.470000", "155050.257500", "155051.045000", "155051.832500", "155052.622500", "155053.410000", "155054.197500", "155054.987500", "155055.775000", "155056.562500", "155057.350000", "155058.140000", "155058.927500", "155059.715000", "155100.502500", "155101.292500", "155102.080000", "155102.867500", "155103.655000", "155104.445000", "155105.232500", "155106.020000", "155106.807500", "155107.597500", "155108.385000", "155109.172500", "155109.960000", "155110.750000", "155111.537500", "155112.325000", "155113.115000", "155113.902500", "155114.690000", "155115.477500", "155116.267500", "155117.055000", "155117.842500", "155118.630000", "155119.420000", "155120.207500", "155120.995000", "155121.782500", "155122.572500", "155123.360000", "155124.147500", "155124.935000", "155125.725000", "155126.512500", "155127.300000", "155128.087500", "155128.877500", "155129.665000", "155130.452500", "155131.242500", "155132.030000", "155132.817500", "155133.605000", "155134.395000", "155135.182500", "155135.970000", "155136.757500", "155137.547500", "155138.335000", "155139.122500", "155139.910000", "155140.700000", "155141.487500", "155142.275000", "155143.062500", "155143.852500", "155144.640000", "155145.427500", "155146.215000", "155147.005000", "155147.792500", "155148.580000", "155149.370000", "155150.157500", "155150.945000", "155151.732500", "155152.522500", "155153.310000", "155154.097500", "155154.885000", "155155.675000", "155156.462500", "155157.250000", "155158.037500", "155158.827500", "155159.615000", "155200.402500", "155201.190000", "155201.980000", "155202.767500", "155203.555000", "155204.342500", "155205.132500", "155205.920000", "155206.707500", "155207.497500", "155208.285000", "155209.072500", "155209.860000", "155210.650000", "155211.437500", "155212.225000", "155213.012500", "155213.802500", "155214.590000", "155215.377500", "155216.165000", "155216.955000", "155217.742500", "155218.530000", "155219.317500", "155220.107500", "155220.895000", "155221.682500", "155222.470000", "155223.260000", "155224.047500", "155224.835000", "155225.625000", "155226.412500", "155227.200000", "155227.987500", "155228.777500", "155229.565000", "155230.352500", "155231.140000", "155231.930000", "155232.717500", "155233.505000", "155234.292500", "155235.082500", "155235.870000", "155236.657500", "155237.445000", "155238.235000", "155239.022500", "155239.810000", "155240.597500", "155241.387500", "155242.175000", "155242.962500", "155243.752500", "155244.540000", "155245.327500", "155246.115000", "155246.905000", "155247.692500", "155248.480000", "155249.267500", "155250.057500", "155250.845000", "155251.632500", "155252.420000", "155253.210000", "155253.997500", "155254.785000", "155255.572500", "155256.362500", "155257.150000", "155257.937500", "155258.725000", "155259.515000", "155300.302500", "155301.090000", "155301.880000", "155302.667500", "155303.455000", "155304.242500", "155305.032500", "155305.820000", "155306.607500", "155307.395000", "155308.185000", "155308.972500", "155309.760000", "155310.547500", "155311.337500", "155312.125000", "155312.912500", "155313.700000", "155314.490000", "155315.277500", "155316.065000", "155316.855000", "155317.642500", "155318.430000", "155319.217500", "155320.007500", "155320.795000", "155321.582500", "155322.370000", "155323.160000", "155323.947500", "155324.735000", "155325.522500", "155326.312500", "155327.100000", "155327.887500", "155328.675000", "155329.465000", "155330.252500", "155331.040000", "155331.827500", "155332.617500", "155333.405000", "155334.192500", "155334.982500", "155335.770000", "155336.557500", "155337.345000", "155338.135000", "155338.922500", "155339.710000", "155340.497500", "155341.287500", "155342.075000", "155342.862500", "155343.650000", "155344.440000", "155345.227500", "155346.015000", "155346.802500", "155347.592500", "155348.380000", "155349.167500", "155349.955000", "155350.745000", "155351.532500", "155352.320000", "155353.110000", "155353.897500", "155354.685000", "155355.472500", "155356.262500", "155357.050000", "155357.837500", "155358.625000", "155359.415000", "155400.202500", "155400.990000", "155401.777500", "155402.567500", "155403.355000", "155404.142500", "155404.930000", "155405.720000", "155406.507500", "155407.295000", "155408.082500", "155408.872500", "155409.660000", "155410.447500", "155411.237500", "155412.025000", "155412.812500", "155413.600000", "155414.390000", "155415.177500", "155415.965000", "155416.752500", "155417.542500", "155418.330000", "155419.117500", "155419.905000", "155420.695000", "155421.482500", "155422.270000", "155423.057500", "155423.847500", "155424.635000", "155425.422500", "155426.210000", "155427.000000", "155427.787500", "155428.575000", "155429.365000", "155430.152500", "155430.940000", "155431.727500", "155432.517500", "155433.305000", "155434.092500", "155434.880000", "155435.670000", "155436.457500", "155437.245000", "155438.032500", "155438.822500", "155439.610000", "155440.397500", "155441.185000", "155441.975000", "155442.762500", "155443.550000", "155444.337500", "155445.127500", "155445.915000", "155446.702500", "155447.492500", "155448.280000", "155449.067500", "155449.855000", "155450.645000", "155451.432500", "155452.220000", "155453.007500", "155453.797500", "155454.585000", "155455.372500", "155456.160000", "155456.950000", "155457.737500", "155458.525000", "155459.312500", "155500.102500", "155500.890000", "155501.677500", "155502.465000", "155503.255000", "155504.042500", "155504.830000", "155505.620000", "155506.407500", "155507.195000", "155507.982500", "155508.772500", "155509.560000", "155510.347500", "155511.135000", "155511.925000", "155512.712500", "155513.500000", "155514.287500", "155515.077500", "155515.865000", "155516.652500", "155517.440000", "155518.230000", "155519.017500", "155519.805000", "155520.592500", "155521.382500", "155522.170000", "155522.957500", "155523.747500", "155524.535000", "155525.322500", "155526.110000", "155526.900000", "155527.687500", "155528.475000", "155529.262500", "155530.052500", "155530.840000", "155531.627500", "155532.415000", "155533.205000", "155533.992500", "155534.780000", "155535.567500", "155536.357500", "155537.145000", "155537.932500", "155538.720000", "155539.510000", "155540.297500", "155541.085000", "155541.875000", "155542.662500", "155543.450000", "155544.237500", "155545.027500", "155545.815000", "155546.602500", "155547.390000", "155548.180000", "155548.967500", "155549.755000", "155550.542500", "155551.332500", "155552.120000", "155552.907500", "155553.695000", "155554.485000", "155555.272500", "155556.060000", "155556.847500", "155557.637500", "155558.425000", "155559.212500", "155600.002500", "155600.790000", "155601.577500", "155602.365000", "155603.155000", "155603.942500", "155604.730000", "155605.517500", "155606.307500", "155607.095000", "155607.882500", "155608.670000", "155609.460000", "155610.247500", "155611.035000", "155611.822500", "155612.612500", "155613.400000", "155614.187500", "155614.975000", "155615.765000", "155616.552500", "155617.340000", "155618.130000", "155618.917500", "155619.705000", "155620.492500", "155621.282500", "155622.070000", "155622.857500", "155623.645000", "155624.435000", "155625.222500", "155626.010000", "155626.797500", "155627.587500", "155628.375000", "155629.162500", "155629.950000", "155630.740000", "155631.527500", "155632.315000", "155633.105000", "155633.892500", "155634.680000", "155635.467500", "155636.257500", "155637.045000", "155637.832500", "155638.620000", "155639.410000", "155640.197500", "155640.985000", "155641.772500", "155642.562500", "155643.350000", "155644.137500", "155644.925000", "155645.715000", "155646.502500", "155647.290000", "155648.077500", "155648.867500", "155649.655000", "155650.442500", "155651.232500", "155652.020000", "155652.807500", "155653.595000", "155654.385000", "155655.172500", "155655.960000", "155656.747500", "155657.537500", "155658.325000", "155659.112500", "155659.900000", "155700.690000", "155701.477500", "155702.265000", "155703.052500", "155703.842500", "155704.630000", "155705.417500", "155706.205000", "155706.995000", "155707.782500", "155708.570000", "155709.360000", "155710.147500", "155710.935000", "155711.722500", "155712.512500", "155713.300000", "155714.087500", "155714.875000", "155715.665000", "155716.452500", "155717.240000", "155718.027500", "155718.817500", "155719.605000", "155720.392500", "155721.180000", "155721.970000", "155722.757500", "155723.545000", "155724.332500", "155725.122500", "155725.910000", "155726.697500", "155727.487500", "155728.275000", "155729.062500", "155729.850000", "155730.640000", "155731.427500", "155732.215000", "155733.002500", "155733.792500", "155734.580000", "155735.367500", "155736.155000", "155736.945000", "155737.732500", "155738.520000", "155739.307500", "155740.097500", "155740.885000", "155741.672500", "155742.460000", "155743.250000", "155744.037500", "155744.825000", "155745.615000", "155746.402500", "155747.190000", "155747.977500", "155748.767500", "155749.555000", "155750.342500", "155751.130000", "155751.920000", "155752.707500", "155753.495000", "155754.282500", "155755.072500", "155755.860000", "155756.647500", "155757.435000", "155758.225000", "155759.012500", "155759.800000", "155800.587500", "155801.377500", "155802.165000", "155802.952500", "155803.742500", "155804.530000", "155805.317500", "155806.105000", "155806.895000", "155807.682500", "155808.470000", "155809.257500", "155810.047500", "155810.835000"],
      "ContentTime": ["155058.593000", "155058.609000", "155058.609000", "155058.609000", "155058.609000", "155058.609000", "155058.609000", "155058.609000", "155058.625000", "155058.625000", "155058.625000", "155058.625000", "155058.625000", "155058.625000", "155058.625000", "155058.640000", "155058.640000", "155058.640000", "155058.640000", "155058.640000", "155058.640000", "155058.640000", "155058.656000", "155058.656000", "155058.656000", "155058.656000", "155058.656000", "155058.656000", "155118.578000", "155118.578000", "155118.578000", "155118.578000", "155118.578000", "155118.593000", "155118.593000", "155118.593000", "155118.593000", "155118.593000", "155118.609000", "155118.609000", "155118.609000", "155118.609000", "155118.609000", "155118.609000", "155118.609000", "155118.625000", "155118.625000", "155118.625000", "155118.625000", "155118.625000", "155118.625000", "155118.640000", "155118.640000", "155138.578000", "155138.578000", "155138.578000", "155138.593000", "155138.593000", "155138.593000", "155138.593000", "155138.593000", "155138.609000", "155138.609000", "155138.609000", "155138.609000", "155138.609000", "155138.609000", "155138.609000", "155138.625000", "155138.625000", "155138.625000", "155138.625000", "155138.625000", "155138.625000", "155138.640000", "155138.640000", "155138.640000", "155138.640000", "155138.640000", "155158.578000", "155158.578000", "155158.578000", "155158.578000", "155158.578000", "155158.593000", "155158.593000", "155158.593000", "155158.593000", "155158.593000", "155158.593000", "155158.593000", "155158.609000", "155158.609000", "155158.609000", "155158.609000", "155158.609000", "155158.625000", "155158.625000", "155158.625000", "155158.625000", "155158.625000", "155158.625000", "155158.625000", "155158.625000", "155218.578000", "155218.578000", "155218.578000", "155218.578000", "155218.578000", "155218.593000", "155218.593000", "155218.593000", "155218.593000", "155218.609000", "155218.609000", "155218.609000", "155218.609000", "155218.609000", "155218.609000", "155218.625000", "155218.625000", "155218.625000", "155218.625000", "155218.625000", "155218.625000", "155218.625000", "155218.640000", "155218.640000", "155218.640000", "155218.640000", "155238.578000", "155238.578000", "155238.578000", "155238.578000", "155238.578000", "155238.593000", "155238.593000", "155238.593000", "155238.593000", "155238.593000", "155238.593000", "155238.593000", "155238.609000", "155238.609000", "155238.609000", "155238.609000", "155238.609000", "155238.609000", "155238.609000", "155238.625000", "155238.625000", "155238.625000", "155238.625000", "155238.625000", "155238.625000", "155258.578000", "155258.578000", "155258.578000", "155258.578000", "155258.593000", "155258.593000", "155258.593000", "155258.593000", "155258.593000", "155258.593000", "155258.593000", "155258.609000", "155258.609000", "155258.609000", "155258.609000", "155258.609000", "155258.609000", "155258.609000", "155258.625000", "155258.625000", "155258.625000", "155258.625000", "155258.625000", "155258.625000", "155258.625000", "155258.640000", "155318.578000", "155318.578000", "155318.578000", "155318.578000", "155318.578000", "155318.593000", "155318.593000", "155318.593000", "155318.593000", "155318.593000", "155318.609000", "155318.609000", "155318.609000", "155318.609000", "155318.609000", "155318.609000", "155318.625000", "155318.625000", "155318.625000", "155318.625000", "155318.625000", "155318.640000", "155318.640000", "155318.640000", "155318.640000", "155338.578000", "155338.578000", "155338.578000", "155338.578000", "155338.578000", "155338.593000", "155338.593000", "155338.593000", "155338.593000", "155338.593000", "155338.593000", "155338.593000", "155338.609000", "155338.609000", "155338.609000", "155338.609000", "155338.609000", "155338.609000", "155338.625000", "155338.625000", "155338.625000", "155338.625000", "155338.625000", "155338.640000", "155338.640000", "155338.640000", "155358.578000", "155358.578000", "155358.578000", "155358.578000", "155358.578000", "155358.593000", "155358.593000", "155358.593000", "155358.593000", "155358.593000", "155358.593000", "155358.593000", "155358.609000", "155358.609000", "155358.609000", "155358.609000", "155358.609000", "155358.609000", "155358.609000", "155358.625000", "155358.625000", "155358.625000", "155358.625000", "155358.625000", "155358.625000", "155418.578000", "155418.578000", "155418.578000", "155418.578000", "155418.578000", "155418.593000", "155418.593000", "155418.593000", "155418.593000", "155418.593000", "155418.593000", "155418.593000", "155418.609000", "155418.609000", "155418.609000", "155418.609000", "155418.609000", "155418.609000", "155418.625000", "155418.625000", "155418.625000", "155418.625000", "155418.625000", "155418.625000", "155418.625000", "155418.640000", "155438.578000", "155438.578000", "155438.578000", "155438.578000", "155438.578000", "155438.593000", "155438.593000", "155438.593000", "155438.593000", "155438.593000", "155438.593000", "155438.593000", "155438.609000", "155438.609000", "155438.609000", "155438.609000", "155438.609000", "155438.625000", "155438.625000", "155438.625000", "155438.625000", "155438.625000", "155438.625000", "155438.625000", "155438.640000", "155458.578000", "155458.578000", "155458.578000", "155458.578000", "155458.578000", "155458.593000", "155458.593000", "155458.593000", "155458.593000", "155458.593000", "155458.593000", "155458.593000", "155458.609000", "155458.609000", "155458.609000", "155458.609000", "155458.609000", "155458.609000", "155458.625000", "155458.625000", "155458.625000", "155458.625000", "155458.625000", "155458.625000", "155458.640000", "155458.640000", "155518.578000", "155518.578000", "155518.578000", "155518.578000", "155518.578000", "155518.593000", "155518.593000", "155518.593000", "155518.593000", "155518.593000", "155518.593000", "155518.609000", "155518.609000", "155518.609000", "155518.609000", "155518.609000", "155518.609000", "155518.609000", "155518.625000", "155518.625000", "155518.625000", "155518.625000", "155518.625000", "155518.625000", "155518.625000", "155538.578000", "155538.578000", "155538.578000", "155538.578000", "155538.578000", "155538.593000", "155538.593000", "155538.593000", "155538.593000", "155538.593000", "155538.593000", "155538.609000", "155538.609000", "155538.609000", "155538.609000", "155538.609000", "155538.609000", "155538.609000", "155538.625000", "155538.625000", "155538.625000", "155538.625000", "155538.625000", "155538.640000", "155538.640000", "155538.640000", "155558.578000", "155558.578000", "155558.578000", "155558.578000", "155558.578000", "155558.593000", "155558.593000", "155558.593000", "155558.593000", "155558.593000", "155558.593000", "155558.593000", "155558.609000", "155558.609000", "155558.609000", "155558.609000", "155558.609000", "155558.609000", "155558.609000", "155558.625000", "155558.625000", "155558.625000", "155558.625000", "155558.625000", "155558.625000", "155618.578000", "155618.578000", "155618.578000", "155618.578000", "155618.578000", "155618.593000", "155618.593000", "155618.593000", "155618.593000", "155618.593000", "155618.593000", "155618.593000", "155618.609000", "155618.609000", "155618.609000", "155618.609000", "155618.609000", "155618.609000", "155618.609000", "155618.625000", "155618.625000", "155618.625000", "155618.625000", "155618.625000", "155618.625000", "155638.578000", "155638.578000", "155638.578000", "155638.578000", "155638.578000", "155638.593000", "155638.593000", "155638.593000", "155638.593000", "155638.593000", "155638.593000", "155638.593000", "155638.609000", "155638.609000", "155638.609000", "155638.609000", "155638.609000", "155638.609000", "155638.609000", "155638.625000", "155638.625000", "155638.625000", "155638.625000", "155638.625000", "155638.640000", "155638.640000", "155658.578000", "155658.578000", "155658.578000", "155658.578000", "155658.593000", "155658.593000", "155658.593000", "155658.593000", "155658.593000", "155658.593000", "155658.609000", "155658.609000", "155658.609000", "155658.609000", "155658.609000", "155658.609000", "155658.609000", "155658.625000", "155658.625000", "155658.625000", "155658.625000", "155658.625000", "155658.625000", "155658.625000", "155658.640000", "155718.578000", "155718.578000", "155718.578000", "155718.578000", "155718.578000", "155718.593000", "155718.593000", "155718.593000", "155718.593000", "155718.593000", "155718.593000", "155718.593000", "155718.609000", "155718.609000", "155718.609000", "155718.609000", "155718.609000", "155718.609000", "155718.609000", "155718.625000", "155718.625000", "155718.625000", "155718.625000", "155718.625000", "155718.625000", "155718.625000", "155738.578000", "155738.578000", "155738.578000", "155738.578000", "155738.593000", "155738.593000", "155738.593000", "155738.593000", "155738.593000", "155738.593000", "155738.609000", "155738.609000", "155738.609000", "155738.609000", "155738.609000", "155738.609000", "155738.625000", "155738.625000", "155738.625000", "155738.625000", "155738.625000", "155738.625000", "155738.625000", "155738.640000", "155738.640000", "155758.578000", "155758.578000", "155758.578000", "155758.578000", "155758.578000", "155758.593000", "155758.593000", "155758.593000", "155758.593000", "155758.593000", "155758.609000", "155758.609000", "155758.609000", "155758.609000", "155758.609000", "155758.609000", "155758.609000", "155758.625000", "155758.625000", "155758.625000", "155758.625000", "155758.625000", "155758.625000", "155758.625000", "155758.640000", "155758.640000", "155812.453000", "155812.453000", "155812.453000", "155812.468000", "155812.468000", "155812.468000", "155812.468000", "155812.468000", "155812.468000", "155812.468000", "155812.484000", "155812.484000", "155812.484000", "155812.484000", "155812.484000", "155812.484000", "155812.484000", "155812.500000"],
      "DataSetTrailingPadding": [
