{
  "AcquisitionMatrixPE": 104,
  "AcquisitionNumber": 1,
  "AcquisitionTime": "15:48:58.702500",
  "BandwidthPerPixelPhaseEncode": 13.935,
  "BaseResolution": 104,
  "CoilString": "C:HEA;HEP",
  "ConversionSoftware": "dcm2niix",
  "ConversionSoftwareVersion": "v1.0.20210317",
  "DerivedVendorReportedEchoSpacing": 0.000690017,
  "DeviceSerialNumber": "35450",
  "DwellTime": 2.5e-06,
  "EchoTime": 0.0348,
  "EffectiveEchoSpacing": 0.000690017,
  "FlipAngle": 55,
  "ImageComments": "Unaliased MB8/PE3",
  "ImageOrientationPatientDICOM": [0.999564, 0.00385405, 0.0292642, 7.41099e-08, 0.991439, -0.130573],
  "ImageType": [
    "ORIGINAL",
    "PRIMARY",
    "M",
    "MB",
    "ND",
    "MOSAIC"
],
  "ImagingFrequency": 123.235,
  "InPlanePhaseEncodingDirectionDICOM": "COL",
  "InstitutionAddress": "Univeristy Ave. 197,Newark,North East,US,07102-1814",
  "InstitutionName": "RUBIC",
  "InstitutionalDepartmentName": "Department",
  "MRAcquisitionType": "2D",
  "MagneticFieldStrength": 3,
  "Manufacturer": "Siemens",
  "ManufacturersModelName": "TrioTim",
  "Modality": "MR",
  "MultibandAccelerationFactor": 8,
  "PartialFourier": 0.875,
  "PatientPosition": "HFS",
  "PercentPhaseFOV": 100,
  "PercentSampling": 100,
  "PhaseEncodingDirection": "j-",
  "PhaseEncodingSteps": 91,
  "PhaseResolution": 1,
  "PixelBandwidth": 1923,
  "ProcedureStepDescription": "Cole^Michael",
  "ProtocolName": "cmrr_mbep2d_bold_2mm_MB8_Task_8x",
  "PulseSequenceDetails": "%CustomerSeq%\\cmrr_mbep2d_bold",
  "ReceiveCoilName": "32Ch_Head",
  "ReconMatrixPE": 104,
  "RepetitionTime": 0.785,
  "SAR": 0.157077,
  "ScanOptions": "PFP\\FS",
  "ScanningSequence": "EP",
  "SequenceName": "epfid2d1_104",
  "SequenceVariant": "SK\\SS",
  "SeriesDescription": "cmrr_mbep2d_bold_2mm_MB8_Task_8x",
  "SeriesNumber": 13,
  "ShimSetting": [2139, -349, -7311, 433, 34, -484, -67, 64],
  "SliceThickness": 2,
  "SliceTiming": [0, 0.4375, 0.0875, 0.525, 0.175, 0.6125, 0.2625, 0.7, 0.35, 0, 0.4375, 0.0875, 0.525, 0.175, 0.6125, 0.2625, 0.7, 0.35, 0, 0.4375, 0.0875, 0.525, 0.175, 0.6125, 0.2625, 0.7, 0.35, 0, 0.4375, 0.0875, 0.525, 0.175, 0.6125, 0.2625, 0.7, 0.35, 0, 0.4375, 0.0875, 0.525, 0.175, 0.6125, 0.2625, 0.7, 0.35, 0, 0.4375, 0.0875, 0.525, 0.175, 0.6125, 0.2625, 0.7, 0.35, 0, 0.4375, 0.0875, 0.525, 0.175, 0.6125, 0.2625, 0.7, 0.35, 0, 0.4375, 0.0875, 0.525, 0.175, 0.6125, 0.2625, 0.7, 0.35],
  "SoftwareVersions": "syngo MR B19",
  "SpacingBetweenSlices": 2,
  "StationName": "MRC35450",
  "TaskName": "cpro",
  "TotalReadoutTime": 0.0710717,
  "TxRefAmp": 345.06,
  "dcmmeta_affine": [
    [-1.9991285800933838, 1.4821971205947193e-07, 0.05903388559818268, 102.62969207763672],
    [-0.00770810479298234, 1.982877254486084, -0.26103290915489197, -71.79981231689453],
    [0.05852849408984184, 0.2611466944217682, 1.9820133447647095, -113.39724731445312],
    [0.0, 0.0, 0.0, 1.0]
],
  "dcmmeta_reorient_transform": [
    [0.0, -1.0, 0.0, 103.0],
    [1.0, 0.0, 0.0, 0.0],
    [0.0, 0.0, 1.0, 0.0],
    [0.0, 0.0, 0.0, 1.0]
],
  "dcmmeta_shape": [104, 104, 72, 581],
  "dcmmeta_slice_dim": 2,
  "dcmmeta_version": 0.6,
  "global": {
    "const": {
      "AcquisitionMatrix": [104, 0, 0, 104],
      "AngioFlag": "N",
      "BitsAllocated": 16,
      "BitsStored": 12,
      "Columns": 936,
      "EchoNumbers": 1,
      "EchoTime": 34.8,
      "EchoTrainLength": 1,
      "FlipAngle": 55.0,
      "HighBit": 11,
      "ImageOrientationPatient": [0.99956428014199, 0.00385405230319, 0.02926424687358, 7.4109859e-08, 0.99143865291043, -0.1305733415179],
      "ImagePositionPatient": [-934.2672490027, -960.52007948656, -2.2099733626441],
      "ImageType": [
        "ORIGINAL",
        "PRIMARY",
        "M",
        "MB",
        "ND",
        "MOSAIC"
],
      "ImagedNucleus": "1H",
      "ImagingFrequency": 123.234787,
      "InPlanePhaseEncodingDirection": "COL",
      "MRAcquisitionType": "2D",
      "MagneticFieldStrength": 3.0,
      "Manufacturer": "SIEMENS",
      "ManufacturerModelName": "TrioTim",
      "Modality": "MR",
      "NumberOfAverages": 1.0,
      "NumberOfPhaseEncodingSteps": 91,
      "PercentPhaseFieldOfView": 100.0,
      "PercentSampling": 100.0,
      "PerformedProcedureStepStartTime": "145202.046000",
      "PhotometricInterpretation": "MONOCHROME2",
      "PixelBandwidth": 1923.0,
      "PixelRepresentation": 0,
      "PixelSpacing": [2.0, 2.0],
      "ProtocolName": "cmrr_mbep2d_bold_2mm_MB8_Task_8x",
      "RepetitionTime": 785.0,
      "Rows": 936,
      "SAR": 0.15707689702249,
      "SamplesPerPixel": 1,
      "ScanOptions": [
        "PFP",
        "FS"
],
      "ScanningSequence": "EP",
      "SequenceName": "epfid2d1_104",
      "SequenceVariant": [
        "SK",
        "SS"
],
      "SeriesDescription": "cmrr_mbep2d_bold_2mm_MB8_Task_8x",
      "SeriesNumber": 13,
      "SeriesTime": "161940.625000",
      "SliceLocation": -99.977057344812,
      "SliceThickness": 2.0,
      "SmallestImagePixelValue": 0,
      "SoftwareVersions": "syngo MR B19",
      "SpacingBetweenSlices": 2.0000000549439,
      "SpecificCharacterSet": "ISO_IR 100",
      "StudyID": "1",
      "StudyTime": "145201.984000",
      "TransmitCoilName": "Body",
      "VariableFlipAngleFlag": "N",
      "WindowCenterWidthExplanation": "Algo1",
      "dBdt": 0.0},
    "slices": {}
  },
  "time": {
    "samples": {
      "AcquisitionNumber": [1, 2, 3, 4, 5, 6, 7, 8, 9, 10, 11, 12, 13, 14, 15, 16, 17, 18, 19, 20, 21, 22, 23, 24, 25, 26, 27, 28, 29, 30, 31, 32, 33, 34, 35, 36, 37, 38, 39, 40, 41, 42, 43, 44, 45, 46, 47, 48, 49, 50, 51, 52, 53, 54, 55, 56, 57, 58, 59, 60, 61, 62, 63, 64, 65, 66, 67, 68, 69, 70, 71, 72, 73, 74, 75, 76, 77, 78, 79, 80, 81, 82, 83, 84, 85, 86, 87, 88, 89, 90, 91, 92, 93, 94, 95, 96, 97, 98, 99, 100, 101, 102, 103, 104, 105, 106, 107, 108, 109, 110, 111, 112, 113, 114, 115, 116, 117, 118, 119, 120, 121, 122, 123, 124, 125, 126, 127, 128, 129, 130, 131, 132, 133, 134, 135, 136, 137, 138, 139, 140, 141, 142, 143, 144, 145, 146, 147, 148, 149, 150, 151, 152, 153, 154, 155, 156, 157, 158, 159, 160, 161, 162, 163, 164, 165, 166, 167, 168, 169, 170, 171, 172, 173, 174, 175, 176, 177, 178, 179, 180, 181, 182, 183, 184, 185, 186, 187, 188, 189, 190, 191, 192, 193, 194, 195, 196, 197, 198, 199, 200, 201, 202, 203, 204, 205, 206, 207, 208, 209, 210, 211, 212, 213, 214, 215, 216, 217, 218, 219, 220, 221, 222, 223, 224, 225, 226, 227, 228, 229, 230, 231, 232, 233, 234, 235, 236, 237, 238, 239, 240, 241, 242, 243, 244, 245, 246, 247, 248, 249, 250, 251, 252, 253, 254, 255, 256, 257, 258, 259, 260, 261, 262, 263, 264, 265, 266, 267, 268, 269, 270, 271, 272, 273, 274, 275, 276, 277, 278, 279, 280, 281, 282, 283, 284, 285, 286, 287, 288, 289, 290, 291, 292, 293, 294, 295, 296, 297, 298, 299, 300, 301, 302, 303, 304, 305, 306, 307, 308, 309, 310, 311, 312, 313, 314, 315, 316, 317, 318, 319, 320, 321, 322, 323, 324, 325, 326, 327, 328, 329, 330, 331, 332, 333, 334, 335, 336, 337, 338, 339, 340, 341, 342, 343, 344, 345, 346, 347, 348, 349, 350, 351, 352, 353, 354, 355, 356, 357, 358, 359, 360, 361, 362, 363, 364, 365, 366, 367, 368, 369, 370, 371, 372, 373, 374, 375, 376, 377, 378, 379, 380, 381, 382, 383, 384, 385, 386, 387, 388, 389, 390, 391, 392, 393, 394, 395, 396, 397, 398, 399, 400, 401, 402, 403, 404, 405, 406, 407, 408, 409, 410, 411, 412, 413, 414, 415, 416, 417, 418, 419, 420, 421, 422, 423, 424, 425, 426, 427, 428, 429, 430, 431, 432, 433, 434, 435, 436, 437, 438, 439, 440, 441, 442, 443, 444, 445, 446, 447, 448, 449, 450, 451, 452, 453, 454, 455, 456, 457, 458, 459, 460, 461, 462, 463, 464, 465, 466, 467, 468, 469, 470, 471, 472, 473, 474, 475, 476, 477, 478, 479, 480, 481, 482, 483, 484, 485, 486, 487, 488, 489, 490, 491, 492, 493, 494, 495, 496, 497, 498, 499, 500, 501, 502, 503, 504, 505, 506, 507, 508, 509, 510, 511, 512, 513, 514, 515, 516, 517, 518, 519, 520, 521, 522, 523, 524, 525, 526, 527, 528, 529, 530, 531, 532, 533, 534, 535, 536, 537, 538, 539, 540, 541, 542, 543, 544, 545, 546, 547, 548, 549, 550, 551, 552, 553, 554, 555, 556, 557, 558, 559, 560, 561, 562, 563, 564, 565, 566, 567, 568, 569, 570, 571, 572, 573, 574, 575, 576, 577, 578, 579, 580, 581],
      "AcquisitionTime": ["154858.702500", "154859.490000", "154900.277500", "154901.067500", "154901.855000", "154902.642500", "154903.430000", "154904.220000", "154905.007500", "154905.795000", "154906.582500", "154907.372500", "154908.160000", "154908.947500", "154909.737500", "154910.525000", "154911.312500", "154912.100000", "154912.890000", "154913.677500", "154914.465000", "154915.252500", "154916.042500", "154916.830000", "154917.617500", "154918.405000", "154919.195000", "154919.982500", "154920.770000", "154921.557500", "154922.347500", "154923.135000", "154923.922500", "154924.710000", "154925.500000", "154926.287500", "154927.075000", "154927.865000", "154928.652500", "154929.440000", "154930.227500", "154931.017500", "154931.805000", "154932.592500", "154933.380000", "154934.170000", "154934.957500", "154935.745000", "154936.532500", "154937.322500", "154938.110000", "154938.897500", "154939.685000", "154940.475000", "154941.262500", "154942.050000", "154942.840000", "154943.627500", "154944.415000", "154945.202500", "154945.992500", "154946.780000", "154947.567500", "154948.355000", "154949.145000", "154949.932500", "154950.720000", "154951.507500", "154952.297500", "154953.085000", "154953.872500", "154954.660000", "154955.450000", "154956.237500", "154957.025000", "154957.812500", "154958.602500", "154959.390000", "155000.177500", "155000.967500", "155001.755000", "155002.542500", "155003.330000", "155004.120000", "155004.907500", "155005.695000", "155006.482500", "155007.272500", "155008.060000", "155008.847500", "155009.635000", "155010.425000", "155011.212500", "155012.000000", "155012.787500", "155013.577500", "155014.365000", "155015.152500", "155015.940000", "155016.730000", "155017.517500", "155018.305000", "155019.095000", "155019.882500", "155020.670000", "155021.457500", "155022.247500", "155023.035000", "155023.822500", "155024.610000", "155025.400000", "155026.187500", "155026.975000", "155027.762500", "155028.552500", "155029.340000", "155030.127500", "155030.915000", "155031.705000", "155032.492500", "155033.280000", "155034.067500", "155034.857500", "155035.645000", "155036.432500", "155037.222500", "155038.010000", "155038.797500", "155039.585000", "155040.375000", "155041.162500", "155041.950000", "155042.737500", "155043.527500", "155044.315000", "155045.102500", "155045.890000", "155046.680000", "155047.467500", "155048.255000", "155049.042500", "155049.832500", "155050.620000", "155051.407500", "155052.195000", "155052.985000", "155053.772500", "155054.560000", "155055.350000", "155056.137500", "155056.925000", "155057.712500", "155058.502500", "155059.290000", "155100.077500", "155100.865000", "155101.655000", "155102.442500", "155103.230000", "155104.017500", "155104.807500", "155105.595000", "155106.382500", "155107.170000", "155107.960000", "155108.747500", "155109.535000", "155110.322500", "155111.112500", "155111.900000", "155112.687500", "155113.477500", "155114.265000", "155115.052500", "155115.840000", "155116.630000", "155117.417500", "155118.205000", "155118.992500", "155119.782500", "155120.570000", "155121.357500", "155122.145000", "155122.935000", "155123.722500", "155124.510000", "155125.297500", "155126.087500", "155126.875000", "155127.662500", "155128.450000", "155129.240000", "155130.027500", "155130.815000", "155131.605000", "155132.392500", "155133.180000", "155133.967500", "155134.757500", "155135.545000", "155136.332500", "155137.120000", "155137.910000", "155138.697500", "155139.485000", "155140.272500", "155141.062500", "155141.850000", "155142.637500", "155143.425000", "155144.215000", "155145.002500", "155145.790000", "155146.577500", "155147.367500", "155148.155000", "155148.942500", "155149.732500", "155150.520000", "155151.307500", "155152.095000", "155152.885000", "155153.672500", "155154.460000", "155155.247500", "155156.037500", "155156.825000", "155157.612500", "155158.400000", "155159.190000", "155159.977500", "155200.765000", "155201.552500", "155202.342500", "155203.130000", "155203.917500", "155204.705000", "155205.495000", "155206.282500", "155207.070000", "155207.860000", "155208.647500", "155209.435000", "155210.222500", "155211.012500", "155211.800000", "155212.587500", "155213.375000", "155214.165000", "155214.952500", "155215.740000", "155216.527500", "155217.317500", "155218.105000", "155218.892500", "155219.680000", "155220.470000", "155221.257500", "155222.045000", "155222.832500", "155223.622500", "155224.410000", "155225.197500", "155225.987500", "155226.775000", "155227.562500", "155228.350000", "155229.140000", "155229.927500", "155230.715000", "155231.502500", "155232.292500", "155233.080000", "155233.867500", "155234.655000", "155235.445000", "155236.232500", "155237.020000", "155237.807500", "155238.597500", "155239.385000", "155240.172500", "155240.960000", "155241.750000", "155242.537500", "155243.325000", "155244.115000", "155244.902500", "155245.690000", "155246.477500", "155247.267500", "155248.055000", "155248.842500", "155249.630000", "155250.420000", "155251.207500", "155251.995000", "155252.782500", "155253.572500", "155254.360000", "155255.147500", "155255.935000", "155256.725000", "155257.512500", "155258.300000", "155259.090000", "155259.877500", "155300.665000", "155301.452500", "155302.242500", "155303.030000", "155303.817500", "155304.605000", "155305.395000", "155306.182500", "155306.970000", "155307.757500", "155308.547500", "155309.335000", "155310.122500", "155310.910000", "155311.700000", "155312.487500", "155313.275000", "155314.062500", "155314.852500", "155315.640000", "155316.427500", "155317.217500", "155318.005000", "155318.792500", "155319.580000", "155320.370000", "155321.157500", "155321.945000", "155322.732500", "155323.522500", "155324.310000", "155325.097500", "155325.885000", "155326.675000", "155327.462500", "155328.250000", "155329.037500", "155329.827500", "155330.615000", "155331.402500", "155332.190000", "155332.980000", "155333.767500", "155334.555000", "155335.345000", "155336.132500", "155336.920000", "155337.707500", "155338.497500", "155339.285000", "155340.072500", "155340.860000", "155341.650000", "155342.437500", "155343.225000", "155344.012500", "155344.802500", "155345.590000", "155346.377500", "155347.165000", "155347.955000", "155348.742500", "155349.530000", "155350.317500", "155351.107500", "155351.895000", "155352.682500", "155353.472500", "155354.260000", "155355.047500", "155355.835000", "155356.625000", "155357.412500", "155358.200000", "155358.987500", "155359.777500", "155400.565000", "155401.352500", "155402.140000", "155402.930000", "155403.717500", "155404.505000", "155405.292500", "155406.082500", "155406.870000", "155407.657500", "155408.445000", "155409.235000", "155410.022500", "155410.810000", "155411.600000", "155412.387500", "155413.175000", "155413.962500", "155414.752500", "155415.540000", "155416.327500", "155417.115000", "155417.905000", "155418.692500", "155419.480000", "155420.267500", "155421.057500", "155421.845000", "155422.632500", "155423.420000", "155424.210000", "155424.997500", "155425.785000", "155426.572500", "155427.362500", "155428.150000", "155428.937500", "155429.727500", "155430.515000", "155431.302500", "155432.090000", "155432.880000", "155433.667500", "155434.455000", "155435.242500", "155436.032500", "155436.820000", "155437.607500", "155438.395000", "155439.185000", "155439.972500", "155440.760000", "155441.547500", "155442.337500", "155443.125000", "155443.912500", "155444.700000", "155445.490000", "155446.277500", "155447.065000", "155447.855000", "155448.642500", "155449.430000", "155450.217500", "155451.007500", "155451.795000", "155452.582500", "155453.370000", "155454.160000", "155454.947500", "155455.735000", "155456.522500", "155457.312500", "155458.100000", "155458.887500", "155459.675000", "155500.465000", "155501.252500", "155502.040000", "155502.827500", "155503.617500", "155504.405000", "155505.192500", "155505.982500", "155506.770000", "155507.557500", "155508.345000", "155509.135000", "155509.922500", "155510.710000", "155511.497500", "155512.287500", "155513.075000", "155513.862500", "155514.650000", "155515.440000", "155516.227500", "155517.015000", "155517.802500", "155518.592500", "155519.380000", "155520.167500", "155520.955000", "155521.745000", "155522.532500", "155523.320000", "155524.110000", "155524.897500", "155525.685000", "155526.472500", "155527.262500", "155528.050000", "155528.837500", "155529.625000", "155530.415000", "155531.202500", "155531.990000", "155532.777500", "155533.567500", "155534.355000", "155535.142500", "155535.930000", "155536.720000", "155537.507500", "155538.295000", "155539.082500", "155539.872500", "155540.660000", "155541.447500", "155542.237500", "155543.025000", "155543.812500", "155544.600000", "155545.390000", "155546.177500", "155546.965000", "155547.752500", "155548.542500", "155549.330000", "155550.117500", "155550.905000", "155551.695000", "155552.482500", "155553.270000", "155554.057500", "155554.847500", "155555.635000", "155556.422500", "155557.210000", "155558.000000", "155558.787500", "155559.575000", "155600.365000", "155601.152500", "155601.940000", "155602.727500", "155603.517500", "155604.305000", "155605.092500", "155605.880000", "155606.670000", "155607.457500", "155608.245000", "155609.032500", "155609.822500", "155610.610000", "155611.397500", "155612.185000", "155612.975000", "155613.762500", "155614.550000", "155615.340000", "155616.127500", "155616.915000", "155617.702500", "155618.492500", "155619.280000", "155620.067500", "155620.855000", "155621.645000", "155622.432500", "155623.220000", "155624.007500", "155624.797500", "155625.585000", "155626.372500", "155627.160000", "155627.950000", "155628.737500", "155629.525000", "155630.312500", "155631.102500", "155631.890000", "155632.677500", "155633.467500", "155634.255000", "155635.042500", "155635.830000"],
      "ContentTime": ["161940.640000", "161940.640000", "161940.640000", "161940.640000", "161940.640000", "161940.640000", "161940.640000", "161940.656000", "161940.656000", "161940.656000", "161940.656000", "161940.656000", "161940.656000", "161940.656000", "161940.671000", "161940.671000", "161940.671000", "161940.671000", "161940.671000", "161940.671000", "161940.671000", "161940.687000", "161940.687000", "161940.687000", "161940.687000", "161940.687000", "161940.687000", "161940.687000", "162040.625000", "162040.640000", "162040.640000", "162040.640000", "162040.640000", "162040.640000", "162040.640000", "162040.640000", "162040.656000", "162040.656000", "162040.656000", "162040.656000", "162040.656000", "162040.656000", "162040.656000", "162040.671000", "162040.671000", "162040.671000", "162040.671000", "162040.671000", "162040.671000", "162040.671000", "162040.687000", "162040.687000", "162040.687000", "162040.687000", "162040.687000", "162040.687000", "162140.625000", "162140.640000", "162140.640000", "162140.640000", "162140.640000", "162140.640000", "162140.640000", "162140.640000", "162140.656000", "162140.656000", "162140.656000", "162140.656000", "162140.656000", "162140.656000", "162140.656000", "162140.671000", "162140.671000", "162140.671000", "162140.671000", "162140.671000", "162140.671000", "162140.687000", "162140.687000", "162140.687000", "162140.687000", "162140.687000", "162140.687000", "162240.625000", "162240.640000", "162240.640000", "162240.640000", "162240.640000", "162240.640000", "162240.640000", "162240.640000", "162240.656000", "162240.656000", "162240.656000", "162240.656000", "162240.656000", "162240.656000", "162240.656000", "162240.671000", "162240.671000", "162240.671000", "162240.671000", "162240.671000", "162240.671000", "162240.671000", "162240.687000", "162240.687000", "162240.687000", "162240.687000", "162240.687000", "162240.687000", "162340.625000", "162340.640000", "162340.640000", "162340.640000", "162340.640000", "162340.640000", "162340.640000", "162340.640000", "162340.656000", "162340.656000", "162340.656000", "162340.656000", "162340.656000", "162340.656000", "162340.656000", "162340.671000", "162340.671000", "162340.671000", "162340.671000", "162340.671000", "162340.671000", "162340.671000", "162340.687000", "162340.687000", "162340.687000", "162340.687000", "162340.687000", "162440.625000", "162440.640000", "162440.640000", "162440.640000", "162440.640000", "162440.640000", "162440.640000", "162440.640000", "162440.656000", "162440.656000", "162440.656000", "162440.656000", "162440.656000", "162440.656000", "162440.656000", "162440.671000", "162440.671000", "162440.671000", "162440.671000", "162440.671000", "162440.671000", "162440.671000", "162440.687000", "162440.687000", "162440.687000", "162440.687000", "162440.687000", "162440.687000", "162520.625000", "162520.640000", "162520.640000", "162520.640000", "162520.640000", "162520.640000", "162520.640000", "162520.640000", "162520.656000", "162520.656000", "162520.656000", "162520.656000", "162520.656000", "162520.656000", "162520.656000", "162520.671000", "162520.671000", "162520.671000", "162620.625000", "162620.640000", "162620.640000", "162620.640000", "162620.640000", "162620.640000", "162620.640000", "162620.640000", "162620.656000", "162620.656000", "162620.656000", "162620.656000", "162620.656000", "162620.656000", "162620.656000", "162620.671000", "162620.671000", "162620.671000", "162620.671000", "162620.671000", "162620.671000", "162620.671000", "162620.687000", "162620.687000", "162620.687000", "162620.687000", "162620.687000", "162620.687000", "162720.625000", "162720.640000", "162720.640000", "162720.640000", "162720.640000", "162720.640000", "162720.640000", "162720.640000", "162720.656000", "162720.656000", "162720.656000", "162720.656000", "162720.656000", "162720.656000", "162720.656000", "162720.671000", "162720.671000", "162720.671000", "162720.671000", "162720.671000", "162720.671000", "162720.671000", "162720.687000", "162720.687000", "162720.687000", "162720.687000", "162720.687000", "162820.625000", "162820.640000", "162820.640000", "162820.640000", "162820.640000", "162820.640000", "162820.640000", "162820.640000", "162820.656000", "162820.656000", "162820.656000", "162820.656000", "162820.656000", "162820.656000", "162820.656000", "162820.671000", "162820.671000", "162820.671000", "162820.671000", "162820.671000", "162820.671000", "162820.671000", "162820.687000", "162820.687000", "162820.687000", "162820.687000", "162820.687000", "162920.625000", "162920.640000", "162920.640000", "162920.640000", "162920.640000", "162920.640000", "162920.640000", "162920.640000", "162920.656000", "162920.656000", "162920.656000", "162920.656000", "162920.656000", "162920.656000", "162920.656000", "162920.671000", "162920.671000", "162920.671000", "162920.671000", "162920.671000", "162920.671000", "162920.671000", "162920.687000", "162920.687000", "162920.687000", "162920.687000", "162920.687000", "162920.687000", "163020.625000", "163020.625000", "163020.625000", "163020.625000", "163020.625000", "163020.640000", "163020.640000", "163020.640000", "163020.640000", "163020.640000", "163020.640000", "163020.640000", "163020.656000", "163020.656000", "163020.656000", "163020.656000", "163020.656000", "163020.656000", "163020.656000", "163020.671000", "163020.671000", "163020.671000", "163020.671000", "163020.671000", "163020.671000", "163020.671000", "163020.687000", "163020.687000", "163120.625000", "163120.625000", "163120.625000", "163120.625000", "163120.625000", "163120.640000", "163120.640000", "163120.640000", "163120.640000", "163120.640000", "163120.640000", "163120.640000", "163120.656000", "163120.656000", "163120.656000", "163120.656000", "163120.656000", "163120.656000", "163120.656000", "163120.671000", "163120.671000", "163120.671000", "163120.671000", "163120.671000", "163120.671000", "163120.671000", "163120.687000", "163220.625000", "163220.625000", "163220.625000", "163220.625000", "163220.625000", "163220.640000", "163220.640000", "163220.640000", "163220.640000", "163220.640000", "163220.640000", "163220.640000", "163220.656000", "163220.656000", "163220.656000", "163220.656000", "163220.656000", "163220.656000", "163220.656000", "163220.671000", "163220.671000", "163220.671000", "163220.671000", "163220.671000", "163220.671000", "163220.671000", "163220.687000", "163320.625000", "163320.625000", "163320.625000", "163320.625000", "163320.625000", "163320.640000", "163320.640000", "163320.640000", "163320.640000", "163320.640000", "163320.640000", "163320.640000", "163320.656000", "163320.656000", "163320.656000", "163320.656000", "163320.656000", "163320.656000", "163320.656000", "163320.671000", "163320.671000", "163320.671000", "163320.671000", "163320.671000", "163320.671000", "163320.671000", "163320.687000", "163320.687000", "163420.625000", "163420.625000", "163420.625000", "163420.625000", "163420.625000", "163420.640000", "163420.640000", "163420.640000", "163420.640000", "163420.640000", "163420.640000", "163420.640000", "163420.656000", "163420.656000", "163420.656000", "163420.656000", "163420.656000", "163420.656000", "163420.656000", "163420.671000", "163420.671000", "163420.671000", "163420.671000", "163420.671000", "163420.671000", "163420.671000", "163420.687000", "163520.625000", "163520.625000", "163520.625000", "163520.625000", "163520.625000", "163520.640000", "163520.640000", "163520.640000", "163520.640000", "163520.640000", "163520.640000", "163520.640000", "163520.656000", "163520.656000", "163520.656000", "163520.656000", "163520.656000", "163520.656000", "163520.656000", "163520.671000", "163520.671000", "163520.671000", "163520.671000", "163520.671000", "163520.671000", "163520.671000", "163520.687000", "163520.687000", "163620.625000", "163620.625000", "163620.625000", "163620.625000", "163620.625000", "163620.640000", "163620.640000", "163620.640000", "163620.640000", "163620.640000", "163620.640000", "163620.640000", "163620.656000", "163620.656000", "163620.656000", "163620.656000", "163620.656000", "163620.656000", "163620.656000", "163620.671000", "163620.671000", "163620.671000", "163620.671000", "163620.671000", "163620.671000", "163620.671000", "163620.687000", "163720.625000", "163720.625000", "163720.625000", "163720.625000", "163720.625000", "163720.640000", "163720.640000", "163720.640000", "163720.640000", "163720.640000", "163720.640000", "163720.640000", "163720.656000", "163720.656000", "163720.656000", "163720.656000", "163720.656000", "163720.656000", "163720.656000", "163720.671000", "163720.671000", "163720.671000", "163720.671000", "163720.671000", "163720.671000", "163720.671000", "163720.687000", "163820.625000", "163820.625000", "163820.625000", "163820.625000", "163820.625000", "163820.640000", "163820.640000", "163820.640000", "163820.640000", "163820.640000", "163820.640000", "163820.640000", "163820.656000", "163820.656000", "163820.656000", "163820.656000", "163820.656000", "163820.656000", "163820.656000", "163820.671000", "163820.671000", "163820.671000", "163820.671000", "163820.671000", "163820.671000", "163820.671000", "163820.687000", "163820.687000", "163820.687000", "163920.625000", "163920.625000", "163920.625000", "163920.625000", "163920.625000", "163920.640000", "163920.640000", "163920.640000", "163920.640000", "163920.640000", "163920.640000", "163920.640000", "163920.656000", "163920.656000", "163920.656000", "163920.656000", "163920.656000", "163920.656000", "163920.656000", "163920.671000", "163920.671000", "163920.687000", "163920.687000", "163920.687000", "163920.687000", "163920.687000", "163920.687000", "163920.687000", "163943.031000", "163943.031000", "163943.031000", "163943.031000", "163943.031000", "163943.031000", "163943.031000", "163943.046000", "163943.046000", "163943.046000", "163943.046000"],
      "DataSetTrailingPadding": [
        "\u0000\u0000\u0000\u0000\u0000\u0000\u0000\u0000\u0000\u0000\u0000\u0000\u0000\u0000\u0000\u0000\u0000\u0000\u0000\u0000\u0000\u0000\u0000\u0000\u0000\u0000\u0000\u0000\u0000\u0000\u0000\u0000\u0000\u0000\u0000\u0000\u0000\u0000\u0000\u0000\u0000\u0000\u0000\u0000\u0000\u0000\u0000\u0000\u0000\u0000",
        "\u0000\u0000\u0000\u0000\u0000\u0000\u0000\u0000\u0000\u0000\u0000\u0000\u0000\u0000\u0000\u0000\u0000\u0000\u0000\u0000\u0000\u0000\u0000\u0000\u0000\u0000\u0000\u0000\u0000\u0000\u0000\u0000\u0000\u0000\u0000\u0000\u0000\u0000\u0000\u0000\u0000\u0000\u0000\u0000\u0000\u0000\u0000\u0000\u0000\u0000",
        "\u0000\u0000\u0000\u0000\u0000\u0000\u0000\u0000\u0000\u0000\u0000\u0000\u0000\u0000\u0000\u0000\u0000\u0000\u0000\u0000\u0000\u0000\u0000\u0000\u0000\u0000\u0000\u0000\u0000\u0000\u0000\u0000\u0000\u0000\u0000\u0000\u0000\u0000\u0000\u0000\u0000\u0000\u0000\u0000\u0000\u0000\u0000\u0000",
        "\u0000\u0000\u0000\u0000\u0000\u0000\u0000\u0000\u0000\u0000\u0000\u0000\u0000\u0000\u0000\u0000\u0000\u0000\u0000\u0000\u0000\u0000\u0000\u0000\u0000\u0000\u0000\u0000\u0000\u0000\u0000\u0000\u0000\u0000\u0000\u0000\u0000\u0000\u0000\u0000\u0000\u0000\u0000\u0000\u0000\u0000\u0000\u0000",
        "\u0000\u0000\u0000\u0000\u0000\u0000\u0000\u0000\u0000\u0000\u0000\u0000\u0000\u0000\u0000\u0000\u0000\u0000\u0000\u0000\u0000\u0000\u0000\u0000\u0000\u0000\u0000\u0000\u0000\u0000\u0000\u0000\u0000\u0000\u0000\u0000\u0000\u0000\u0000\u0000\u0000\u0000\u0000\u0000\u0000\u0000\u0000\u0000\u0000\u0000",
        "\u0000\u0000\u0000\u0000\u0000\u0000\u0000\u0000\u0000\u0000\u0000\u0000\u0000\u0000\u0000\u0000\u0000\u0000\u0000\u0000\u0000\u0000\u0000\u0000\u0000\u0000\u0000\u0000\u0000\u0000\u0000\u0000\u0000\u0000\u0000\u0000\u0000\u0000\u0000\u0000\u0000\u0000\u0000\u0000\u0000\u0000\u0000\u0000",
