{
  "AcquisitionMatrixPE": 104,
  "AcquisitionNumber": 1,
  "AcquisitionTime": "16:39:57.710000",
  "BandwidthPerPixelPhaseEncode": 13.935,
  "BaseResolution": 104,
  "CoilString": "C:HEA;HEP",
  "ConversionSoftware": "dcm2niix",
  "ConversionSoftwareVersion": "v1.0.20210317",
  "DerivedVendorReportedEchoSpacing": 0.000690017,
  "DeviceSerialNumber": "35450",
  "DwellTime": 2.5e-06,
  "EchoTime": 0.0348,
  "EffectiveEchoSpacing": 0.000690017,
  "FlipAngle": 55,
  "ImageComments": "Unaliased MB8/PE3",
  "ImageOrientationPatientDICOM": [0.999564, 0.00385405, 0.0292642, 7.41099e-08, 0.991439, -0.130573],
  "ImageType": [
    "ORIGINAL",
    "PRIMARY",
    "M",
    "MB",
    "ND",
    "MOSAIC"
],
  "ImagingFrequency": 123.235,
  "InPlanePhaseEncodingDirectionDICOM": "COL",
  "InstitutionAddress": "Univeristy Ave. 197,Newark,North East,US,07102-1814",
  "InstitutionName": "RUBIC",
  "InstitutionalDepartmentName": "Department",
  "MRAcquisitionType": "2D",
  "MagneticFieldStrength": 3,
  "Manufacturer": "Siemens",
  "ManufacturersModelName": "TrioTim",
  "Modality": "MR",
  "MultibandAccelerationFactor": 8,
  "PartialFourier": 0.875,
  "PatientPosition": "HFS",
  "PercentPhaseFOV": 100,
  "PercentSampling": 100,
  "PhaseEncodingDirection": "j-",
  "PhaseEncodingSteps": 91,
  "PhaseResolution": 1,
  "PixelBandwidth": 1923,
  "ProcedureStepDescription": "Cole^Michael",
  "ProtocolName": "cmrr_mbep2d_bold_2mm_MB8_Task_8x",
  "PulseSequenceDetails": "%CustomerSeq%\\cmrr_mbep2d_bold",
  "ReceiveCoilName": "32Ch_Head",
  "ReconMatrixPE": 104,
  "RepetitionTime": 0.785,
  "SAR": 0.148626,
  "ScanOptions": "PFP\\FS",
  "ScanningSequence": "EP",
  "SequenceName": "epfid2d1_104",
  "SequenceVariant": "SK\\SS",
  "SeriesDescription": "cmrr_mbep2d_bold_2mm_MB8_Task_8x",
  "SeriesNumber": 25,
  "ShimSetting": [2139, -349, -7311, 433, 34, -484, -67, 64],
  "SliceThickness": 2,
  "SliceTiming": [0, 0.4375, 0.0875, 0.525, 0.175, 0.6125, 0.2625, 0.7, 0.35, 0, 0.4375, 0.0875, 0.525, 0.175, 0.6125, 0.2625, 0.7, 0.35, 0, 0.4375, 0.0875, 0.525, 0.175, 0.6125, 0.2625, 0.7, 0.35, 0, 0.4375, 0.0875, 0.525, 0.175, 0.6125, 0.2625, 0.7, 0.35, 0, 0.4375, 0.0875, 0.525, 0.175, 0.6125, 0.2625, 0.7, 0.35, 0, 0.4375, 0.0875, 0.525, 0.175, 0.6125, 0.2625, 0.7, 0.35, 0, 0.4375, 0.0875, 0.525, 0.175, 0.6125, 0.2625, 0.7, 0.35, 0, 0.4375, 0.0875, 0.525, 0.175, 0.6125, 0.2625, 0.7, 0.35],
  "SoftwareVersions": "syngo MR B19",
  "SpacingBetweenSlices": 2,
  "StationName": "MRC35450",
  "TaskName": "cpro",
  "TotalReadoutTime": 0.0710717,
  "TxRefAmp": 345.06,
  "dcmmeta_affine": [
    [-1.9991285800933838, 1.4821971205947193e-07, 0.05903388559818268, 102.62969207763672],
    [-0.00770810479298234, 1.982877254486084, -0.26103290915489197, -71.79981231689453],
    [0.05852849408984184, 0.2611466944217682, 1.9820133447647095, -113.39724731445312],
    [0.0, 0.0, 0.0, 1.0]
],
  "dcmmeta_reorient_transform": [
    [0.0, -1.0, 0.0, 103.0],
    [1.0, 0.0, 0.0, 0.0],
    [0.0, 0.0, 1.0, 0.0],
    [0.0, 0.0, 0.0, 1.0]
],
  "dcmmeta_shape": [104, 104, 72, 581],
  "dcmmeta_slice_dim": 2,
  "dcmmeta_version": 0.6,
  "global": {
    "const": {
      "AcquisitionMatrix": [104, 0, 0, 104],
      "AngioFlag": "N",
      "BitsAllocated": 16,
      "BitsStored": 12,
      "Columns": 936,
      "EchoNumbers": 1,
      "EchoTime": 34.8,
      "EchoTrainLength": 1,
      "FlipAngle": 55.0,
      "HighBit": 11,
      "ImageOrientationPatient": [0.99956428014199, 0.00385405230319, 0.02926424687358, 7.4109859e-08, 0.99143865291043, -0.1305733415179],
      "ImagePositionPatient": [-934.2672490027, -960.52007948656, -2.2099733626441],
      "ImageType": [
        "ORIGINAL",
        "PRIMARY",
        "M",
        "MB",
        "ND",
        "MOSAIC"
],
      "ImagedNucleus": "1H",
      "ImagingFrequency": 123.234787,
      "InPlanePhaseEncodingDirection": "COL",
      "MRAcquisitionType": "2D",
      "MagneticFieldStrength": 3.0,
      "Manufacturer": "SIEMENS",
      "ManufacturerModelName": "TrioTim",
      "Modality": "MR",
      "NumberOfAverages": 1.0,
      "NumberOfPhaseEncodingSteps": 91,
      "PercentPhaseFieldOfView": 100.0,
      "PercentSampling": 100.0,
      "PerformedProcedureStepStartTime": "145202.046000",
      "PhotometricInterpretation": "MONOCHROME2",
      "PixelBandwidth": 1923.0,
      "PixelRepresentation": 0,
      "PixelSpacing": [2.0, 2.0],
      "ProtocolName": "cmrr_mbep2d_bold_2mm_MB8_Task_8x",
      "RepetitionTime": 785.0,
      "Rows": 936,
      "SAR": 0.14862648357304,
      "SamplesPerPixel": 1,
      "ScanOptions": [
        "PFP",
        "FS"
],
      "ScanningSequence": "EP",
      "SequenceName": "epfid2d1_104",
      "SequenceVariant": [
        "SK",
        "SS"
],
      "SeriesDescription": "cmrr_mbep2d_bold_2mm_MB8_Task_8x",
      "SeriesNumber": 25,
      "SeriesTime": "182500.656000",
      "SliceLocation": -99.977057344812,
      "SliceThickness": 2.0,
      "SmallestImagePixelValue": 0,
      "SoftwareVersions": "syngo MR B19",
      "SpacingBetweenSlices": 2.0000000549439,
      "SpecificCharacterSet": "ISO_IR 100",
      "StudyID": "1",
      "StudyTime": "145201.984000",
      "TransmitCoilName": "Body",
      "VariableFlipAngleFlag": "N",
      "WindowCenterWidthExplanation": "Algo1",
      "dBdt": 0.0},
    "slices": {}
  },
  "time": {
    "samples": {
      "AcquisitionNumber": [1, 2, 3, 4, 5, 6, 7, 8, 9, 10, 11, 12, 13, 14, 15, 16, 17, 18, 19, 20, 21, 22, 23, 24, 25, 26, 27, 28, 29, 30, 31, 32, 33, 34, 35, 36, 37, 38, 39, 40, 41, 42, 43, 44, 45, 46, 47, 48, 49, 50, 51, 52, 53, 54, 55, 56, 57, 58, 59, 60, 61, 62, 63, 64, 65, 66, 67, 68, 69, 70, 71, 72, 73, 74, 75, 76, 77, 78, 79, 80, 81, 82, 83, 84, 85, 86, 87, 88, 89, 90, 91, 92, 93, 94, 95, 96, 97, 98, 99, 100, 101, 102, 103, 104, 105, 106, 107, 108, 109, 110, 111, 112, 113, 114, 115, 116, 117, 118, 119, 120, 121, 122, 123, 124, 125, 126, 127, 128, 129, 130, 131, 132, 133, 134, 135, 136, 137, 138, 139, 140, 141, 142, 143, 144, 145, 146, 147, 148, 149, 150, 151, 152, 153, 154, 155, 156, 157, 158, 159, 160, 161, 162, 163, 164, 165, 166, 167, 168, 169, 170, 171, 172, 173, 174, 175, 176, 177, 178, 179, 180, 181, 182, 183, 184, 185, 186, 187, 188, 189, 190, 191, 192, 193, 194, 195, 196, 197, 198, 199, 200, 201, 202, 203, 204, 205, 206, 207, 208, 209, 210, 211, 212, 213, 214, 215, 216, 217, 218, 219, 220, 221, 222, 223, 224, 225, 226, 227, 228, 229, 230, 231, 232, 233, 234, 235, 236, 237, 238, 239, 240, 241, 242, 243, 244, 245, 246, 247, 248, 249, 250, 251, 252, 253, 254, 255, 256, 257, 258, 259, 260, 261, 262, 263, 264, 265, 266, 267, 268, 269, 270, 271, 272, 273, 274, 275, 276, 277, 278, 279, 280, 281, 282, 283, 284, 285, 286, 287, 288, 289, 290, 291, 292, 293, 294, 295, 296, 297, 298, 299, 300, 301, 302, 303, 304, 305, 306, 307, 308, 309, 310, 311, 312, 313, 314, 315, 316, 317, 318, 319, 320, 321, 322, 323, 324, 325, 326, 327, 328, 329, 330, 331, 332, 333, 334, 335, 336, 337, 338, 339, 340, 341, 342, 343, 344, 345, 346, 347, 348, 349, 350, 351, 352, 353, 354, 355, 356, 357, 358, 359, 360, 361, 362, 363, 364, 365, 366, 367, 368, 369, 370, 371, 372, 373, 374, 375, 376, 377, 378, 379, 380, 381, 382, 383, 384, 385, 386, 387, 388, 389, 390, 391, 392, 393, 394, 395, 396, 397, 398, 399, 400, 401, 402, 403, 404, 405, 406, 407, 408, 409, 410, 411, 412, 413, 414, 415, 416, 417, 418, 419, 420, 421, 422, 423, 424, 425, 426, 427, 428, 429, 430, 431, 432, 433, 434, 435, 436, 437, 438, 439, 440, 441, 442, 443, 444, 445, 446, 447, 448, 449, 450, 451, 452, 453, 454, 455, 456, 457, 458, 459, 460, 461, 462, 463, 464, 465, 466, 467, 468, 469, 470, 471, 472, 473, 474, 475, 476, 477, 478, 479, 480, 481, 482, 483, 484, 485, 486, 487, 488, 489, 490, 491, 492, 493, 494, 495, 496, 497, 498, 499, 500, 501, 502, 503, 504, 505, 506, 507, 508, 509, 510, 511, 512, 513, 514, 515, 516, 517, 518, 519, 520, 521, 522, 523, 524, 525, 526, 527, 528, 529, 530, 531, 532, 533, 534, 535, 536, 537, 538, 539, 540, 541, 542, 543, 544, 545, 546, 547, 548, 549, 550, 551, 552, 553, 554, 555, 556, 557, 558, 559, 560, 561, 562, 563, 564, 565, 566, 567, 568, 569, 570, 571, 572, 573, 574, 575, 576, 577, 578, 579, 580, 581],
      "AcquisitionTime": ["163957.710000", "163958.497500", "163959.285000", "164000.075000", "164000.862500", "164001.650000", "164002.437500", "164003.227500", "164004.015000", "164004.802500", "164005.590000", "164006.380000", "164007.167500", "164007.955000", "164008.742500", "164009.532500", "164010.320000", "164011.107500", "164011.895000", "164012.685000", "164013.472500", "164014.260000", "164015.050000", "164015.837500", "164016.625000", "164017.412500", "164018.202500", "164018.990000", "164019.777500", "164020.565000", "164021.355000", "164022.142500", "164022.930000", "164023.717500", "164024.507500", "164025.295000", "164026.082500", "164026.870000", "164027.660000", "164028.447500", "164029.235000", "164030.022500", "164030.812500", "164031.600000", "164032.387500", "164033.177500", "164033.965000", "164034.752500", "164035.540000", "164036.330000", "164037.117500", "164037.905000", "164038.692500", "164039.482500", "164040.270000", "164041.057500", "164041.845000", "164042.635000", "164043.422500", "164044.210000", "164044.997500", "164045.787500", "164046.575000", "164047.362500", "164048.150000", "164048.940000", "164049.727500", "164050.515000", "164051.305000", "164052.092500", "164052.880000", "164053.667500", "164054.457500", "164055.245000", "164056.032500", "164056.820000", "164057.610000", "164058.397500", "164059.185000", "164059.972500", "164100.762500", "164101.550000", "164102.337500", "164103.125000", "164103.915000", "164104.702500", "164105.490000", "164106.277500", "164107.067500", "164107.855000", "164108.642500", "164109.432500", "164110.220000", "164111.007500", "164111.795000", "164112.585000", "164113.372500", "164114.160000", "164114.947500", "164115.737500", "164116.525000", "164117.312500", "164118.100000", "164118.890000", "164119.677500", "164120.465000", "164121.252500", "164122.042500", "164122.830000", "164123.617500", "164124.405000", "164125.195000", "164125.982500", "164126.770000", "164127.560000", "164128.347500", "164129.135000", "164129.922500", "164130.712500", "164131.500000", "164132.287500", "164133.075000", "164133.865000", "164134.652500", "164135.440000", "164136.227500", "164137.017500", "164137.805000", "164138.592500", "164139.380000", "164140.170000", "164140.957500", "164141.745000", "164142.532500", "164143.322500", "164144.110000", "164144.897500", "164145.687500", "164146.475000", "164147.262500", "164148.050000", "164148.840000", "164149.627500", "164150.415000", "164151.202500", "164151.992500", "164152.780000", "164153.567500", "164154.355000", "164155.145000", "164155.932500", "164156.720000", "164157.507500", "164158.297500", "164159.085000", "164159.872500", "164200.662500", "164201.450000", "164202.237500", "164203.025000", "164203.815000", "164204.602500", "164205.390000", "164206.177500", "164206.967500", "164207.755000", "164208.542500", "164209.330000", "164210.120000", "164210.907500", "164211.695000", "164212.482500", "164213.272500", "164214.060000", "164214.847500", "164215.635000", "164216.425000", "164217.212500", "164218.000000", "164218.790000", "164219.577500", "164220.365000", "164221.152500", "164221.942500", "164222.730000", "164223.517500", "164224.305000", "164225.095000", "164225.882500", "164226.670000", "164227.457500", "164228.247500", "164229.035000", "164229.822500", "164230.610000", "164231.400000", "164232.187500", "164232.975000", "164233.762500", "164234.552500", "164235.340000", "164236.127500", "164236.917500", "164237.705000", "164238.492500", "164239.280000", "164240.070000", "164240.857500", "164241.645000", "164242.432500", "164243.222500", "164244.010000", "164244.797500", "164245.585000", "164246.375000", "164247.162500", "164247.950000", "164248.737500", "164249.527500", "164250.315000", "164251.102500", "164251.890000", "164252.680000", "164253.467500", "164254.255000", "164255.045000", "164255.832500", "164256.620000", "164257.407500", "164258.197500", "164258.985000", "164259.772500", "164300.560000", "164301.350000", "164302.137500", "164302.925000", "164303.712500", "164304.502500", "164305.290000", "164306.077500", "164306.865000", "164307.655000", "164308.442500", "164309.230000", "164310.017500", "164310.807500", "164311.595000", "164312.382500", "164313.172500", "164313.960000", "164314.747500", "164315.535000", "164316.325000", "164317.112500", "164317.900000", "164318.687500", "164319.477500", "164320.265000", "164321.052500", "164321.840000", "164322.630000", "164323.417500", "164324.205000", "164324.992500", "164325.782500", "164326.570000", "164327.357500", "164328.145000", "164328.935000", "164329.722500", "164330.510000", "164331.300000", "164332.087500", "164332.875000", "164333.662500", "164334.452500", "164335.240000", "164336.027500", "164336.815000", "164337.605000", "164338.392500", "164339.180000", "164339.967500", "164340.757500", "164341.545000", "164342.332500", "164343.120000", "164343.910000", "164344.697500", "164345.485000", "164346.272500", "164347.062500", "164347.850000", "164348.637500", "164349.427500", "164350.215000", "164351.002500", "164351.790000", "164352.580000", "164353.367500", "164354.155000", "164354.942500", "164355.732500", "164356.520000", "164357.307500", "164358.095000", "164358.885000", "164359.672500", "164400.460000", "164401.247500", "164402.037500", "164402.825000", "164403.612500", "164404.400000", "164405.190000", "164405.977500", "164406.765000", "164407.555000", "164408.342500", "164409.130000", "164409.917500", "164410.707500", "164411.495000", "164412.282500", "164413.070000", "164413.860000", "164414.647500", "164415.435000", "164416.222500", "164417.012500", "164417.800000", "164418.587500", "164419.375000", "164420.165000", "164420.952500", "164421.740000", "164422.527500", "164423.317500", "164424.105000", "164424.892500", "164425.682500", "164426.470000", "164427.257500", "164428.045000", "164428.835000", "164429.622500", "164430.410000", "164431.197500", "164431.987500", "164432.775000", "164433.562500", "164434.350000", "164435.140000", "164435.927500", "164436.715000", "164437.502500", "164438.292500", "164439.080000", "164439.867500", "164440.655000", "164441.445000", "164442.232500", "164443.020000", "164443.810000", "164444.597500", "164445.385000", "164446.172500", "164446.962500", "164447.750000", "164448.537500", "164449.325000", "164450.115000", "164450.902500", "164451.690000", "164452.477500", "164453.267500", "164454.055000", "164454.842500", "164455.630000", "164456.420000", "164457.207500", "164457.995000", "164458.782500", "164459.572500", "164500.360000", "164501.147500", "164501.937500", "164502.725000", "164503.512500", "164504.300000", "164505.090000", "164505.877500", "164506.665000", "164507.452500", "164508.242500", "164509.030000", "164509.817500", "164510.605000", "164511.395000", "164512.182500", "164512.970000", "164513.757500", "164514.547500", "164515.335000", "164516.122500", "164516.912500", "164517.700000", "164518.487500", "164519.275000", "164520.065000", "164520.852500", "164521.640000", "164522.427500", "164523.217500", "164524.005000", "164524.792500", "164525.580000", "164526.370000", "164527.157500", "164527.945000", "164528.732500", "164529.522500", "164530.310000", "164531.097500", "164531.885000", "164532.675000", "164533.462500", "164534.250000", "164535.040000", "164535.827500", "164536.615000", "164537.402500", "164538.192500", "164538.980000", "164539.767500", "164540.555000", "164541.345000", "164542.132500", "164542.920000", "164543.707500", "164544.497500", "164545.285000", "164546.072500", "164546.860000", "164547.650000", "164548.437500", "164549.225000", "164550.012500", "164550.802500", "164551.590000", "164552.377500", "164553.167500", "164553.955000", "164554.742500", "164555.530000", "164556.320000", "164557.107500", "164557.895000", "164558.682500", "164559.472500", "164600.260000", "164601.047500", "164601.835000", "164602.625000", "164603.412500", "164604.200000", "164604.987500", "164605.777500", "164606.565000", "164607.352500", "164608.140000", "164608.930000", "164609.717500", "164610.505000", "164611.295000", "164612.082500", "164612.870000", "164613.657500", "164614.447500", "164615.235000", "164616.022500", "164616.810000", "164617.600000", "164618.387500", "164619.175000", "164619.962500", "164620.752500", "164621.540000", "164622.327500", "164623.115000", "164623.905000", "164624.692500", "164625.480000", "164626.267500", "164627.057500", "164627.845000", "164628.632500", "164629.422500", "164630.210000", "164630.997500", "164631.785000", "164632.575000", "164633.362500", "164634.150000", "164634.937500", "164635.727500", "164636.515000", "164637.302500", "164638.090000", "164638.880000", "164639.667500", "164640.455000", "164641.242500", "164642.032500", "164642.820000", "164643.607500", "164644.395000", "164645.185000", "164645.972500", "164646.760000", "164647.550000", "164648.337500", "164649.125000", "164649.912500", "164650.702500", "164651.490000", "164652.277500", "164653.065000", "164653.855000", "164654.642500", "164655.430000", "164656.217500", "164657.007500", "164657.795000", "164658.582500", "164659.370000", "164700.160000", "164700.947500", "164701.735000", "164702.522500", "164703.312500", "164704.100000", "164704.887500", "164705.677500", "164706.465000", "164707.252500", "164708.040000", "164708.830000", "164709.617500", "164710.405000", "164711.192500", "164711.982500", "164712.770000", "164713.557500", "164714.345000", "164715.135000", "164715.922500", "164716.710000", "164717.497500", "164718.287500", "164719.075000", "164719.862500", "164720.650000", "164721.440000", "164722.227500", "164723.015000", "164723.805000", "164724.592500", "164725.380000", "164726.167500", "164726.957500", "164727.745000", "164728.532500", "164729.320000", "164730.110000", "164730.897500", "164731.685000", "164732.472500", "164733.262500", "164734.050000", "164734.837500"],
      "ContentTime": ["182500.656000", "182500.656000", "182500.656000", "182500.671000", "182500.671000", "182500.671000", "182500.671000", "182520.625000", "182520.625000", "182520.625000", "182520.625000", "182520.625000", "182520.640000", "182520.640000", "182520.640000", "182520.640000", "182520.640000", "182620.625000", "182620.625000", "182620.625000", "182620.625000", "182620.625000", "182620.640000", "182620.640000", "182620.640000", "182620.640000", "182620.640000", "182620.640000", "182620.640000", "182620.656000", "182620.656000", "182620.656000", "182620.656000", "182620.656000", "182620.656000", "182620.656000", "182620.671000", "182620.671000", "182620.671000", "182620.671000", "182620.671000", "182620.671000", "182620.671000", "182620.687000", "182620.687000", "182720.625000", "182720.625000", "182720.625000", "182720.625000", "182720.625000", "182720.640000", "182720.640000", "182720.640000", "182720.640000", "182720.640000", "182720.640000", "182720.640000", "182720.656000", "182720.656000", "182720.656000", "182720.656000", "182720.656000", "182720.656000", "182720.656000", "182720.671000", "182720.671000", "182720.671000", "182720.671000", "182720.671000", "182720.671000", "182720.671000", "182720.687000", "182720.687000", "182820.625000", "182820.625000", "182820.625000", "182820.625000", "182820.625000", "182820.640000", "182820.640000", "182820.640000", "182820.640000", "182820.640000", "182820.640000", "182820.640000", "182820.656000", "182820.656000", "182820.656000", "182820.656000", "182820.656000", "182820.656000", "182820.656000", "182820.671000", "182820.671000", "182820.671000", "182820.671000", "182820.671000", "182820.671000", "182820.671000", "182820.687000", "182820.687000", "182920.625000", "182920.625000", "182920.625000", "182920.625000", "182920.625000", "182920.640000", "182920.640000", "182920.640000", "182920.640000", "182920.640000", "182920.640000", "182920.640000", "182920.656000", "182920.656000", "182920.656000", "182920.656000", "182920.656000", "182920.656000", "182920.656000", "182920.671000", "182920.671000", "182920.671000", "182920.671000", "182920.671000", "182920.671000", "182920.671000", "182920.687000", "182920.687000", "182920.687000", "183020.625000", "183020.625000", "183020.625000", "183020.625000", "183020.625000", "183020.640000", "183020.640000", "183020.640000", "183020.640000", "183020.640000", "183020.640000", "183020.640000", "183020.656000", "183020.656000", "183020.656000", "183020.656000", "183020.656000", "183020.656000", "183020.656000", "183020.671000", "183020.671000", "183020.671000", "183020.671000", "183020.671000", "183020.671000", "183020.671000", "183020.687000", "183020.687000", "183120.625000", "183120.625000", "183120.625000", "183120.625000", "183120.625000", "183120.640000", "183120.640000", "183120.640000", "183120.640000", "183120.640000", "183120.640000", "183120.640000", "183120.656000", "183120.656000", "183120.656000", "183120.656000", "183120.656000", "183120.656000", "183120.656000", "183120.671000", "183120.671000", "183120.671000", "183120.671000", "183120.671000", "183120.671000", "183120.671000", "183120.687000", "183120.687000", "183220.625000", "183220.625000", "183220.625000", "183220.625000", "183220.625000", "183220.640000", "183220.640000", "183220.640000", "183220.640000", "183220.640000", "183220.640000", "183220.640000", "183220.656000", "183220.656000", "183220.656000", "183220.656000", "183220.656000", "183220.656000", "183220.656000", "183220.671000", "183220.671000", "183220.671000", "183220.671000", "183220.671000", "183220.671000", "183220.671000", "183220.687000", "183220.687000", "183320.625000", "183320.625000", "183320.625000", "183320.625000", "183320.625000", "183320.640000", "183320.640000", "183320.640000", "183320.640000", "183320.640000", "183320.640000", "183320.640000", "183320.656000", "183320.656000", "183320.656000", "183320.656000", "183320.656000", "183320.656000", "183320.656000", "183320.671000", "183320.671000", "183320.671000", "183320.671000", "183320.671000", "183320.671000", "183320.671000", "183320.687000", "183320.687000", "183420.625000", "183420.625000", "183420.625000", "183420.625000", "183420.625000", "183420.640000", "183420.640000", "183420.640000", "183420.640000", "183420.640000", "183420.640000", "183420.640000", "183420.656000", "183420.656000", "183420.656000", "183420.656000", "183420.656000", "183420.656000", "183420.656000", "183420.671000", "183420.671000", "183420.671000", "183420.671000", "183420.687000", "183420.687000", "183420.687000", "183420.687000", "183420.687000", "183420.687000", "183520.625000", "183520.625000", "183520.625000", "183520.625000", "183520.625000", "183520.640000", "183520.640000", "183520.640000", "183520.640000", "183520.640000", "183520.640000", "183520.656000", "183520.656000", "183520.656000", "183520.656000", "183520.656000", "183520.656000", "183520.656000", "183520.656000", "183520.671000", "183520.671000", "183520.671000", "183520.671000", "183520.671000", "183520.671000", "183520.687000", "183520.687000", "183520.687000", "183620.625000", "183620.625000", "183620.625000", "183620.625000", "183620.625000", "183620.640000", "183620.640000", "183620.640000", "183620.640000", "183620.640000", "183620.640000", "183620.640000", "183620.656000", "183620.656000", "183620.656000", "183620.656000", "183620.656000", "183620.656000", "183620.656000", "183620.671000", "183620.671000", "183620.671000", "183620.671000", "183620.671000", "183620.671000", "183620.671000", "183620.687000", "183620.687000", "183720.625000", "183720.625000", "183720.625000", "183720.625000", "183720.625000", "183720.640000", "183720.640000", "183720.640000", "183720.640000", "183720.656000", "183720.656000", "183720.656000", "183720.656000", "183720.656000", "183720.656000", "183720.656000", "183720.671000", "183720.671000", "183720.671000", "183720.671000", "183720.671000", "183720.671000", "183720.687000", "183720.687000", "183720.687000", "183720.687000", "183720.687000", "183720.687000", "183820.625000", "183820.625000", "183820.625000", "183820.625000", "183820.625000", "183820.640000", "183820.640000", "183820.640000", "183820.640000", "183820.640000", "183820.640000", "183820.640000", "183820.656000", "183820.656000", "183820.656000", "183820.656000", "183820.656000", "183820.656000", "183820.656000", "183820.671000", "183820.671000", "183820.671000", "183820.671000", "183820.671000", "183820.671000", "183820.671000", "183820.687000", "183820.687000", "183920.625000", "183920.625000", "183920.625000", "183920.625000", "183920.625000", "183920.640000", "183920.640000", "183920.640000", "183920.640000", "183920.640000", "183920.656000", "183920.656000", "183920.656000", "183920.656000", "183920.656000", "183920.656000", "183920.671000", "183920.671000", "183920.671000", "183920.671000", "183920.671000", "183920.671000", "183920.671000", "183920.687000", "183920.687000", "183920.687000", "183920.687000", "183920.687000", "184020.625000", "184020.625000", "184020.625000", "184020.625000", "184020.625000", "184020.640000", "184020.640000", "184020.640000", "184020.640000", "184020.640000", "184020.640000", "184020.640000", "184020.656000", "184020.656000", "184020.656000", "184020.656000", "184020.656000", "184020.656000", "184020.656000", "184020.671000", "184020.671000", "184020.671000", "184020.671000", "184020.671000", "184020.671000", "184020.671000", "184020.687000", "184020.687000", "184020.687000", "184120.625000", "184120.625000", "184120.625000", "184120.625000", "184120.625000", "184120.640000", "184120.640000", "184120.640000", "184120.640000", "184120.640000", "184120.640000", "184120.640000", "184120.656000", "184120.656000", "184120.656000", "184120.656000", "184120.656000", "184120.656000", "184120.656000", "184120.671000", "184120.671000", "184120.671000", "184120.671000", "184120.671000", "184120.671000", "184120.671000", "184120.687000", "184120.687000", "184220.625000", "184220.625000", "184220.625000", "184220.625000", "184220.625000", "184220.640000", "184220.640000", "184220.640000", "184220.640000", "184220.640000", "184220.640000", "184220.640000", "184220.656000", "184220.656000", "184220.656000", "184220.656000", "184220.656000", "184220.656000", "184220.656000", "184220.671000", "184220.671000", "184220.671000", "184220.671000", "184220.671000", "184220.671000", "184220.687000", "184220.687000", "184220.687000", "184320.625000", "184320.625000", "184320.625000", "184320.625000", "184320.625000", "184320.640000", "184320.640000", "184320.640000", "184320.640000", "184320.640000", "184320.640000", "184320.656000", "184320.656000", "184320.656000", "184320.656000", "184320.656000", "184320.656000", "184320.656000", "184320.671000", "184320.671000", "184320.671000", "184320.671000", "184320.671000", "184320.671000", "184320.671000", "184320.687000", "184320.687000", "184320.687000", "184420.625000", "184420.625000", "184420.625000", "184420.625000", "184420.625000", "184420.640000", "184420.640000", "184420.640000", "184420.640000", "184420.640000", "184420.640000", "184420.640000", "184420.656000", "184420.656000", "184420.656000", "184420.656000", "184420.656000", "184420.656000", "184420.656000", "184420.671000", "184420.671000", "184420.671000", "184420.671000", "184420.671000", "184420.671000", "184420.671000", "184420.687000", "184420.687000", "184420.687000", "184519.734000", "184519.734000", "184519.750000", "184519.750000", "184519.750000", "184519.750000", "184519.750000", "184519.750000", "184519.750000", "184519.765000", "184519.765000", "184519.765000", "184519.765000", "184519.765000", "184519.765000", "184519.765000", "184519.781000", "184519.781000", "184519.781000", "184519.781000", "184519.781000", "184519.781000", "184519.781000", "184519.796000", "184519.796000", "184519.796000", "184519.796000", "184519.796000"],
      "DataSetTrailingPadding": [
        "\u0000\u0000\u0000\u0000\u0000\u0000\u0000\u0000\u0000\u0000\u0000\u0000\u0000\u0000\u0000\u0000\u0000\u0000\u0000\u0000\u0000\u0000\u0000\u0000\u0000\u0000\u0000\u0000\u0000\u0000\u0000\u0000\u0000\u0000\u0000\u0000\u0000\u0000\u0000\u0000\u0000\u0000\u0000\u0000\u0000\u0000\u0000\u0000\u0000\u0000",
        "\u0000\u0000\u0000\u0000\u0000\u0000\u0000\u0000\u0000\u0000\u0000\u0000\u0000\u0000\u0000\u0000\u0000\u0000\u0000\u0000\u0000\u0000\u0000\u0000\u0000\u0000\u0000\u0000\u0000\u0000\u0000\u0000\u0000\u0000\u0000\u0000\u0000\u0000\u0000\u0000\u0000\u0000\u0000\u0000\u0000\u0000\u0000\u0000\u0000\u0000",
        "\u0000\u0000\u0000\u0000\u0000\u0000\u0000\u0000\u0000\u0000\u0000\u0000\u0000\u0000\u0000\u0000\u0000\u0000\u0000\u0000\u0000\u0000\u0000\u0000\u0000\u0000\u0000\u0000\u0000\u0000\u0000\u0000\u0000\u0000\u0000\u0000\u0000\u0000\u0000\u0000\u0000\u0000\u0000\u0000\u0000\u0000\u0000\u0000",
        "\u0000\u0000\u0000\u0000\u0000\u0000\u0000\u0000\u0000\u0000\u0000\u0000\u0000\u0000\u0000\u0000\u0000\u0000\u0000\u0000\u0000\u0000\u0000\u0000\u0000\u0000\u0000\u0000\u0000\u0000\u0000\u0000\u0000\u0000\u0000\u0000\u0000\u0000\u0000\u0000\u0000\u0000\u0000\u0000\u0000\u0000\u0000\u0000\u0000\u0000",
        "\u0000\u0000\u0000\u0000\u0000\u0000\u0000\u0000\u0000\u0000\u0000\u0000\u0000\u0000\u0000\u0000\u0000\u0000\u0000\u0000\u0000\u0000\u0000\u0000\u0000\u0000\u0000\u0000\u0000\u0000\u0000\u0000\u0000\u0000\u0000\u0000\u0000\u0000\u0000\u0000\u0000\u0000\u0000\u0000\u0000\u0000\u0000\u0000\u0000\u0000",
        "\u0000\u0000\u0000\u0000\u0000\u0000\u0000\u0000\u0000\u0000\u0000\u0000\u0000\u0000\u0000\u0000\u0000\u0000\u0000\u0000\u0000\u0000\u0000\u0000\u0000\u0000\u0000\u0000\u0000\u0000\u0000\u0000\u0000\u0000\u0000\u0000\u0000\u0000\u0000\u0000\u0000\u0000\u0000\u0000\u0000\u0000\u0000\u0000",
