{
  "AcquisitionMatrixPE": 104,
  "AcquisitionNumber": 1,
  "AcquisitionTime": "16:21:24.757500",
  "BandwidthPerPixelPhaseEncode": 13.935,
  "BaseResolution": 104,
  "CoilString": "C:HEA;HEP",
  "ConversionSoftware": "dcm2niix",
  "ConversionSoftwareVersion": "v1.0.20210317",
  "DerivedVendorReportedEchoSpacing": 0.000690017,
  "DeviceSerialNumber": "35450",
  "DwellTime": 2.5e-06,
  "EchoTime": 0.0348,
  "EffectiveEchoSpacing": 0.000690017,
  "FlipAngle": 55,
  "ImageComments": "Unaliased MB8/PE3",
  "ImageOrientationPatientDICOM": [0.999564, 0.00385405, 0.0292642, 7.41099e-08, 0.991439, -0.130573],
  "ImageType": [
    "ORIGINAL",
    "PRIMARY",
    "M",
    "MB",
    "ND",
    "MOSAIC"
],
  "ImagingFrequency": 123.235,
  "InPlanePhaseEncodingDirectionDICOM": "COL",
  "InstitutionAddress": "Univeristy Ave. 197,Newark,North East,US,07102-1814",
  "InstitutionName": "RUBIC",
  "InstitutionalDepartmentName": "Department",
  "MRAcquisitionType": "2D",
  "MagneticFieldStrength": 3,
  "Manufacturer": "Siemens",
  "ManufacturersModelName": "TrioTim",
  "Modality": "MR",
  "MultibandAccelerationFactor": 8,
  "PartialFourier": 0.875,
  "PatientPosition": "HFS",
  "PercentPhaseFOV": 100,
  "PercentSampling": 100,
  "PhaseEncodingDirection": "j-",
  "PhaseEncodingSteps": 91,
  "PhaseResolution": 1,
  "PixelBandwidth": 1923,
  "ProcedureStepDescription": "Cole^Michael",
  "ProtocolName": "cmrr_mbep2d_bold_2mm_MB8_Task_8x",
  "PulseSequenceDetails": "%CustomerSeq%\\cmrr_mbep2d_bold",
  "ReceiveCoilName": "32Ch_Head",
  "ReconMatrixPE": 104,
  "RepetitionTime": 0.785,
  "SAR": 0.148626,
  "ScanOptions": "PFP\\FS",
  "ScanningSequence": "EP",
  "SequenceName": "epfid2d1_104",
  "SequenceVariant": "SK\\SS",
  "SeriesDescription": "cmrr_mbep2d_bold_2mm_MB8_Task_8x",
  "SeriesNumber": 21,
  "ShimSetting": [2139, -349, -7311, 433, 34, -484, -67, 64],
  "SliceThickness": 2,
  "SliceTiming": [0, 0.4375, 0.0875, 0.525, 0.175, 0.6125, 0.2625, 0.7, 0.35, 0, 0.4375, 0.0875, 0.525, 0.175, 0.6125, 0.2625, 0.7, 0.35, 0, 0.4375, 0.0875, 0.525, 0.175, 0.6125, 0.2625, 0.7, 0.35, 0, 0.4375, 0.0875, 0.525, 0.175, 0.6125, 0.2625, 0.7, 0.35, 0, 0.4375, 0.0875, 0.525, 0.175, 0.6125, 0.2625, 0.7, 0.35, 0, 0.4375, 0.0875, 0.525, 0.175, 0.6125, 0.2625, 0.7, 0.35, 0, 0.4375, 0.0875, 0.525, 0.175, 0.6125, 0.2625, 0.7, 0.35, 0, 0.4375, 0.0875, 0.525, 0.175, 0.6125, 0.2625, 0.7, 0.35],
  "SoftwareVersions": "syngo MR B19",
  "SpacingBetweenSlices": 2,
  "StationName": "MRC35450",
  "TaskName": "cpro",
  "TotalReadoutTime": 0.0710717,
  "TxRefAmp": 345.06,
  "dcmmeta_affine": [
    [-1.9991285800933838, 1.4821971205947193e-07, 0.05903388559818268, 102.62969207763672],
    [-0.00770810479298234, 1.982877254486084, -0.26103290915489197, -71.79981231689453],
    [0.05852849408984184, 0.2611466944217682, 1.9820133447647095, -113.39724731445312],
    [0.0, 0.0, 0.0, 1.0]
],
  "dcmmeta_reorient_transform": [
    [0.0, -1.0, 0.0, 103.0],
    [1.0, 0.0, 0.0, 0.0],
    [0.0, 0.0, 1.0, 0.0],
    [0.0, 0.0, 0.0, 1.0]
],
  "dcmmeta_shape": [104, 104, 72, 581],
  "dcmmeta_slice_dim": 2,
  "dcmmeta_version": 0.6,
  "global": {
    "const": {
      "AcquisitionMatrix": [104, 0, 0, 104],
      "AngioFlag": "N",
      "BitsAllocated": 16,
      "BitsStored": 12,
      "Columns": 936,
      "EchoNumbers": 1,
      "EchoTime": 34.8,
      "EchoTrainLength": 1,
      "FlipAngle": 55.0,
      "HighBit": 11,
      "ImageOrientationPatient": [0.99956428014199, 0.00385405230319, 0.02926424687358, 7.4109859e-08, 0.99143865291043, -0.1305733415179],
      "ImagePositionPatient": [-934.2672490027, -960.52007948656, -2.2099733626441],
      "ImageType": [
        "ORIGINAL",
        "PRIMARY",
        "M",
        "MB",
        "ND",
        "MOSAIC"
],
      "ImagedNucleus": "1H",
      "ImagingFrequency": 123.234787,
      "InPlanePhaseEncodingDirection": "COL",
      "MRAcquisitionType": "2D",
      "MagneticFieldStrength": 3.0,
      "Manufacturer": "SIEMENS",
      "ManufacturerModelName": "TrioTim",
      "Modality": "MR",
      "NumberOfAverages": 1.0,
      "NumberOfPhaseEncodingSteps": 91,
      "PercentPhaseFieldOfView": 100.0,
      "PercentSampling": 100.0,
      "PerformedProcedureStepStartTime": "145202.046000",
      "PhotometricInterpretation": "MONOCHROME2",
      "PixelBandwidth": 1923.0,
      "PixelRepresentation": 0,
      "PixelSpacing": [2.0, 2.0],
      "ProtocolName": "cmrr_mbep2d_bold_2mm_MB8_Task_8x",
      "RepetitionTime": 785.0,
      "Rows": 936,
      "SAR": 0.14862648357304,
      "SamplesPerPixel": 1,
      "ScanOptions": [
        "PFP",
        "FS"
],
      "ScanningSequence": "EP",
      "SequenceName": "epfid2d1_104",
      "SequenceVariant": [
        "SK",
        "SS"
],
      "SeriesDescription": "cmrr_mbep2d_bold_2mm_MB8_Task_8x",
      "SeriesNumber": 21,
      "SeriesTime": "174311.406000",
      "SliceLocation": -99.977057344812,
      "SliceThickness": 2.0,
      "SmallestImagePixelValue": 0,
      "SoftwareVersions": "syngo MR B19",
      "SpacingBetweenSlices": 2.0000000549439,
      "SpecificCharacterSet": "ISO_IR 100",
      "StudyID": "1",
      "StudyTime": "145201.984000",
      "TransmitCoilName": "Body",
      "VariableFlipAngleFlag": "N",
      "WindowCenterWidthExplanation": "Algo1",
      "dBdt": 0.0},
    "slices": {}
  },
  "time": {
    "samples": {
      "AcquisitionNumber": [1, 2, 3, 4, 5, 6, 7, 8, 9, 10, 11, 12, 13, 14, 15, 16, 17, 18, 19, 20, 21, 22, 23, 24, 25, 26, 27, 28, 29, 30, 31, 32, 33, 34, 35, 36, 37, 38, 39, 40, 41, 42, 43, 44, 45, 46, 47, 48, 49, 50, 51, 52, 53, 54, 55, 56, 57, 58, 59, 60, 61, 62, 63, 64, 65, 66, 67, 68, 69, 70, 71, 72, 73, 74, 75, 76, 77, 78, 79, 80, 81, 82, 83, 84, 85, 86, 87, 88, 89, 90, 91, 92, 93, 94, 95, 96, 97, 98, 99, 100, 101, 102, 103, 104, 105, 106, 107, 108, 109, 110, 111, 112, 113, 114, 115, 116, 117, 118, 119, 120, 121, 122, 123, 124, 125, 126, 127, 128, 129, 130, 131, 132, 133, 134, 135, 136, 137, 138, 139, 140, 141, 142, 143, 144, 145, 146, 147, 148, 149, 150, 151, 152, 153, 154, 155, 156, 157, 158, 159, 160, 161, 162, 163, 164, 165, 166, 167, 168, 169, 170, 171, 172, 173, 174, 175, 176, 177, 178, 179, 180, 181, 182, 183, 184, 185, 186, 187, 188, 189, 190, 191, 192, 193, 194, 195, 196, 197, 198, 199, 200, 201, 202, 203, 204, 205, 206, 207, 208, 209, 210, 211, 212, 213, 214, 215, 216, 217, 218, 219, 220, 221, 222, 223, 224, 225, 226, 227, 228, 229, 230, 231, 232, 233, 234, 235, 236, 237, 238, 239, 240, 241, 242, 243, 244, 245, 246, 247, 248, 249, 250, 251, 252, 253, 254, 255, 256, 257, 258, 259, 260, 261, 262, 263, 264, 265, 266, 267, 268, 269, 270, 271, 272, 273, 274, 275, 276, 277, 278, 279, 280, 281, 282, 283, 284, 285, 286, 287, 288, 289, 290, 291, 292, 293, 294, 295, 296, 297, 298, 299, 300, 301, 302, 303, 304, 305, 306, 307, 308, 309, 310, 311, 312, 313, 314, 315, 316, 317, 318, 319, 320, 321, 322, 323, 324, 325, 326, 327, 328, 329, 330, 331, 332, 333, 334, 335, 336, 337, 338, 339, 340, 341, 342, 343, 344, 345, 346, 347, 348, 349, 350, 351, 352, 353, 354, 355, 356, 357, 358, 359, 360, 361, 362, 363, 364, 365, 366, 367, 368, 369, 370, 371, 372, 373, 374, 375, 376, 377, 378, 379, 380, 381, 382, 383, 384, 385, 386, 387, 388, 389, 390, 391, 392, 393, 394, 395, 396, 397, 398, 399, 400, 401, 402, 403, 404, 405, 406, 407, 408, 409, 410, 411, 412, 413, 414, 415, 416, 417, 418, 419, 420, 421, 422, 423, 424, 425, 426, 427, 428, 429, 430, 431, 432, 433, 434, 435, 436, 437, 438, 439, 440, 441, 442, 443, 444, 445, 446, 447, 448, 449, 450, 451, 452, 453, 454, 455, 456, 457, 458, 459, 460, 461, 462, 463, 464, 465, 466, 467, 468, 469, 470, 471, 472, 473, 474, 475, 476, 477, 478, 479, 480, 481, 482, 483, 484, 485, 486, 487, 488, 489, 490, 491, 492, 493, 494, 495, 496, 497, 498, 499, 500, 501, 502, 503, 504, 505, 506, 507, 508, 509, 510, 511, 512, 513, 514, 515, 516, 517, 518, 519, 520, 521, 522, 523, 524, 525, 526, 527, 528, 529, 530, 531, 532, 533, 534, 535, 536, 537, 538, 539, 540, 541, 542, 543, 544, 545, 546, 547, 548, 549, 550, 551, 552, 553, 554, 555, 556, 557, 558, 559, 560, 561, 562, 563, 564, 565, 566, 567, 568, 569, 570, 571, 572, 573, 574, 575, 576, 577, 578, 579, 580, 581],
      "AcquisitionTime": ["162124.757500", "162125.547500", "162126.335000", "162127.122500", "162127.910000", "162128.700000", "162129.487500", "162130.275000", "162131.062500", "162131.852500", "162132.640000", "162133.427500", "162134.215000", "162135.005000", "162135.792500", "162136.580000", "162137.367500", "162138.157500", "162138.945000", "162139.732500", "162140.522500", "162141.310000", "162142.097500", "162142.885000", "162143.675000", "162144.462500", "162145.250000", "162146.037500", "162146.827500", "162147.615000", "162148.402500", "162149.190000", "162149.980000", "162150.767500", "162151.555000", "162152.342500", "162153.132500", "162153.920000", "162154.707500", "162155.495000", "162156.285000", "162157.072500", "162157.860000", "162158.650000", "162159.437500", "162200.225000", "162201.012500", "162201.802500", "162202.590000", "162203.377500", "162204.165000", "162204.955000", "162205.742500", "162206.530000", "162207.317500", "162208.107500", "162208.895000", "162209.682500", "162210.470000", "162211.260000", "162212.047500", "162212.835000", "162213.622500", "162214.412500", "162215.200000", "162215.987500", "162216.777500", "162217.565000", "162218.352500", "162219.140000", "162219.930000", "162220.717500", "162221.505000", "162222.292500", "162223.082500", "162223.870000", "162224.657500", "162225.445000", "162226.235000", "162227.022500", "162227.810000", "162228.597500", "162229.387500", "162230.175000", "162230.962500", "162231.750000", "162232.540000", "162233.327500", "162234.115000", "162234.905000", "162235.692500", "162236.480000", "162237.267500", "162238.057500", "162238.845000", "162239.632500", "162240.420000", "162241.210000", "162241.997500", "162242.785000", "162243.572500", "162244.362500", "162245.150000", "162245.937500", "162246.725000", "162247.515000", "162248.302500", "162249.090000", "162249.877500", "162250.667500", "162251.455000", "162252.242500", "162253.032500", "162253.820000", "162254.607500", "162255.395000", "162256.185000", "162256.972500", "162257.760000", "162258.547500", "162259.337500", "162300.125000", "162300.912500", "162301.700000", "162302.490000", "162303.277500", "162304.065000", "162304.852500", "162305.642500", "162306.430000", "162307.217500", "162308.007500", "162308.795000", "162309.582500", "162310.370000", "162311.160000", "162311.947500", "162312.735000", "162313.522500", "162314.312500", "162315.100000", "162315.887500", "162316.675000", "162317.465000", "162318.252500", "162319.040000", "162319.827500", "162320.617500", "162321.405000", "162322.192500", "162322.980000", "162323.770000", "162324.557500", "162325.345000", "162326.135000", "162326.922500", "162327.710000", "162328.497500", "162329.287500", "162330.075000", "162330.862500", "162331.650000", "162332.440000", "162333.227500", "162334.015000", "162334.802500", "162335.592500", "162336.380000", "162337.167500", "162337.955000", "162338.745000", "162339.532500", "162340.320000", "162341.107500", "162341.897500", "162342.685000", "162343.472500", "162344.262500", "162345.050000", "162345.837500", "162346.625000", "162347.415000", "162348.202500", "162348.990000", "162349.777500", "162350.567500", "162351.355000", "162352.142500", "162352.930000", "162353.720000", "162354.507500", "162355.295000", "162356.082500", "162356.872500", "162357.660000", "162358.447500", "162359.235000", "162400.025000", "162400.812500", "162401.600000", "162402.390000", "162403.177500", "162403.965000", "162404.752500", "162405.542500", "162406.330000", "162407.117500", "162407.905000", "162408.695000", "162409.482500", "162410.270000", "162411.057500", "162411.847500", "162412.635000", "162413.422500", "162414.210000", "162415.000000", "162415.787500", "162416.575000", "162417.362500", "162418.152500", "162418.940000", "162419.727500", "162420.517500", "162421.305000", "162422.092500", "162422.880000", "162423.670000", "162424.457500", "162425.245000", "162426.032500", "162426.822500", "162427.610000", "162428.397500", "162429.185000", "162429.975000", "162430.762500", "162431.550000", "162432.337500", "162433.127500", "162433.915000", "162434.702500", "162435.490000", "162436.280000", "162437.067500", "162437.855000", "162438.645000", "162439.432500", "162440.220000", "162441.007500", "162441.797500", "162442.585000", "162443.372500", "162444.160000", "162444.950000", "162445.737500", "162446.525000", "162447.312500", "162448.102500", "162448.890000", "162449.677500", "162450.465000", "162451.255000", "162452.042500", "162452.830000", "162453.617500", "162454.407500", "162455.195000", "162455.982500", "162456.772500", "162457.560000", "162458.347500", "162459.135000", "162459.925000", "162500.712500", "162501.500000", "162502.287500", "162503.077500", "162503.865000", "162504.652500", "162505.440000", "162506.230000", "162507.017500", "162507.805000", "162508.592500", "162509.382500", "162510.170000", "162510.957500", "162511.745000", "162512.535000", "162513.322500", "162514.110000", "162514.900000", "162515.687500", "162516.475000", "162517.262500", "162518.052500", "162518.840000", "162519.627500", "162520.415000", "162521.205000", "162521.992500", "162522.780000", "162523.567500", "162524.357500", "162525.145000", "162525.932500", "162526.720000", "162527.510000", "162528.297500", "162529.085000", "162529.872500", "162530.662500", "162531.450000", "162532.237500", "162533.027500", "162533.815000", "162534.602500", "162535.390000", "162536.180000", "162536.967500", "162537.755000", "162538.542500", "162539.332500", "162540.120000", "162540.907500", "162541.695000", "162542.485000", "162543.272500", "162544.060000", "162544.847500", "162545.637500", "162546.425000", "162547.212500", "162548.000000", "162548.790000", "162549.577500", "162550.365000", "162551.155000", "162551.942500", "162552.730000", "162553.517500", "162554.307500", "162555.095000", "162555.882500", "162556.670000", "162557.460000", "162558.247500", "162559.035000", "162559.822500", "162600.612500", "162601.400000", "162602.187500", "162602.975000", "162603.765000", "162604.552500", "162605.340000", "162606.127500", "162606.917500", "162607.705000", "162608.492500", "162609.282500", "162610.070000", "162610.857500", "162611.645000", "162612.435000", "162613.222500", "162614.010000", "162614.797500", "162615.587500", "162616.375000", "162617.162500", "162617.950000", "162618.740000", "162619.527500", "162620.315000", "162621.102500", "162621.892500", "162622.680000", "162623.467500", "162624.257500", "162625.045000", "162625.832500", "162626.620000", "162627.410000", "162628.197500", "162628.985000", "162629.772500", "162630.562500", "162631.350000", "162632.137500", "162632.925000", "162633.715000", "162634.502500", "162635.290000", "162636.077500", "162636.867500", "162637.655000", "162638.442500", "162639.230000", "162640.020000", "162640.807500", "162641.595000", "162642.385000", "162643.172500", "162643.960000", "162644.747500", "162645.537500", "162646.325000", "162647.112500", "162647.900000", "162648.690000", "162649.477500", "162650.265000", "162651.052500", "162651.842500", "162652.630000", "162653.417500", "162654.205000", "162654.995000", "162655.782500", "162656.570000", "162657.357500", "162658.147500", "162658.935000", "162659.722500", "162700.512500", "162701.300000", "162702.087500", "162702.875000", "162703.665000", "162704.452500", "162705.240000", "162706.027500", "162706.817500", "162707.605000", "162708.392500", "162709.180000", "162709.970000", "162710.757500", "162711.545000", "162712.332500", "162713.122500", "162713.910000", "162714.697500", "162715.485000", "162716.275000", "162717.062500", "162717.850000", "162718.640000", "162719.427500", "162720.215000", "162721.002500", "162721.792500", "162722.580000", "162723.367500", "162724.155000", "162724.945000", "162725.732500", "162726.520000", "162727.307500", "162728.097500", "162728.885000", "162729.672500", "162730.460000", "162731.250000", "162732.037500", "162732.825000", "162733.612500", "162734.402500", "162735.190000", "162735.977500", "162736.767500", "162737.555000", "162738.342500", "162739.130000", "162739.920000", "162740.707500", "162741.495000", "162742.282500", "162743.072500", "162743.860000", "162744.647500", "162745.435000", "162746.225000", "162747.012500", "162747.800000", "162748.587500", "162749.377500", "162750.165000", "162750.952500", "162751.740000", "162752.530000", "162753.317500", "162754.105000", "162754.895000", "162755.682500", "162756.470000", "162757.257500", "162758.047500", "162758.835000", "162759.622500", "162800.410000", "162801.200000", "162801.987500", "162802.775000", "162803.562500", "162804.352500", "162805.140000", "162805.927500", "162806.715000", "162807.505000", "162808.292500", "162809.080000", "162809.867500", "162810.657500", "162811.445000", "162812.232500", "162813.022500", "162813.810000", "162814.597500", "162815.385000", "162816.175000", "162816.962500", "162817.750000", "162818.537500", "162819.327500", "162820.115000", "162820.902500", "162821.690000", "162822.480000", "162823.267500", "162824.055000", "162824.842500", "162825.632500", "162826.420000", "162827.207500", "162827.995000", "162828.785000", "162829.572500", "162830.360000", "162831.150000", "162831.937500", "162832.725000", "162833.512500", "162834.302500", "162835.090000", "162835.877500", "162836.665000", "162837.455000", "162838.242500", "162839.030000", "162839.817500", "162840.607500", "162841.395000", "162842.182500", "162842.970000", "162843.760000", "162844.547500", "162845.335000", "162846.122500", "162846.912500", "162847.700000", "162848.487500", "162849.277500", "162850.065000", "162850.852500", "162851.640000", "162852.430000", "162853.217500", "162854.005000", "162854.792500", "162855.582500", "162856.370000", "162857.157500", "162857.945000", "162858.735000", "162859.522500", "162900.310000", "162901.097500", "162901.887500"],
      "ContentTime": ["174311.406000", "174311.406000", "174311.421000", "174311.421000", "174411.390000", "174411.390000", "174411.390000", "174411.390000", "174411.390000", "174411.406000", "174411.406000", "174411.406000", "174411.406000", "174411.406000", "174411.406000", "174411.406000", "174411.421000", "174411.421000", "174411.421000", "174411.421000", "174411.421000", "174411.421000", "174411.421000", "174411.437000", "174411.437000", "174411.437000", "174411.437000", "174411.437000", "174411.437000", "174411.437000", "174411.437000", "174411.453000", "174411.453000", "174511.390000", "174511.390000", "174511.390000", "174511.390000", "174511.390000", "174511.406000", "174511.406000", "174511.406000", "174511.406000", "174511.406000", "174511.406000", "174511.406000", "174511.421000", "174511.421000", "174511.421000", "174511.421000", "174511.421000", "174511.421000", "174511.421000", "174511.437000", "174511.437000", "174511.437000", "174511.437000", "174511.437000", "174511.437000", "174511.437000", "174511.437000", "174511.453000", "174611.390000", "174611.390000", "174611.390000", "174611.390000", "174611.390000", "174611.406000", "174611.406000", "174611.406000", "174611.406000", "174611.406000", "174611.406000", "174611.406000", "174611.421000", "174611.421000", "174611.421000", "174611.421000", "174611.421000", "174611.421000", "174611.421000", "174611.437000", "174611.437000", "174611.437000", "174611.437000", "174611.437000", "174611.437000", "174611.437000", "174611.453000", "174611.453000", "174711.390000", "174711.390000", "174711.390000", "174711.390000", "174711.390000", "174711.406000", "174711.406000", "174711.406000", "174711.406000", "174711.406000", "174711.406000", "174711.406000", "174711.421000", "174711.421000", "174711.421000", "174711.421000", "174711.421000", "174711.421000", "174711.421000", "174711.437000", "174711.437000", "174711.437000", "174711.437000", "174711.437000", "174711.437000", "174711.437000", "174711.453000", "174711.453000", "174811.390000", "174811.390000", "174811.390000", "174811.390000", "174811.390000", "174811.406000", "174811.406000", "174811.406000", "174811.406000", "174811.406000", "174811.406000", "174811.406000", "174811.421000", "174811.421000", "174811.421000", "174811.421000", "174811.421000", "174811.421000", "174811.421000", "174811.437000", "174811.437000", "174811.437000", "174811.437000", "174811.437000", "174811.437000", "174811.437000", "174811.453000", "174811.453000", "174911.390000", "174911.390000", "174911.390000", "174911.390000", "174911.406000", "174911.406000", "174911.406000", "174911.406000", "174911.406000", "174911.406000", "174911.406000", "174911.406000", "174911.421000", "174911.421000", "174911.421000", "174911.421000", "174911.421000", "174911.421000", "174911.421000", "174911.437000", "174911.437000", "174911.437000", "174911.437000", "174911.437000", "174911.437000", "174911.437000", "174911.453000", "174911.453000", "174911.453000", "175011.390000", "175011.390000", "175011.390000", "175011.390000", "175011.390000", "175011.406000", "175011.406000", "175011.406000", "175011.406000", "175011.406000", "175011.406000", "175011.406000", "175011.421000", "175011.421000", "175011.421000", "175011.421000", "175011.421000", "175011.421000", "175011.421000", "175011.437000", "175011.437000", "175011.437000", "175011.437000", "175011.437000", "175011.437000", "175011.437000", "175011.453000", "175011.453000", "175111.390000", "175111.390000", "175111.390000", "175111.390000", "175111.390000", "175111.406000", "175111.406000", "175111.406000", "175111.406000", "175111.406000", "175111.406000", "175111.406000", "175111.421000", "175111.421000", "175111.421000", "175111.421000", "175111.421000", "175111.421000", "175111.421000", "175111.437000", "175111.437000", "175111.437000", "175111.437000", "175111.437000", "175111.437000", "175111.437000", "175111.453000", "175111.453000", "175211.390000", "175211.390000", "175211.390000", "175211.390000", "175211.390000", "175211.406000", "175211.406000", "175211.406000", "175211.406000", "175211.406000", "175211.406000", "175211.406000", "175211.421000", "175211.421000", "175211.421000", "175211.421000", "175211.421000", "175211.421000", "175211.421000", "175211.437000", "175211.437000", "175211.437000", "175211.437000", "175211.437000", "175211.437000", "175211.437000", "175211.453000", "175211.453000", "175311.390000", "175311.390000", "175311.390000", "175311.390000", "175311.390000", "175311.406000", "175311.406000", "175311.406000", "175311.406000", "175311.406000", "175311.406000", "175311.406000", "175311.421000", "175311.421000", "175311.421000", "175311.421000", "175311.421000", "175311.421000", "175311.421000", "175311.437000", "175311.437000", "175311.437000", "175311.437000", "175311.437000", "175311.437000", "175311.437000", "175311.453000", "175311.453000", "175411.390000", "175411.390000", "175411.390000", "175411.390000", "175411.390000", "175411.406000", "175411.406000", "175411.406000", "175411.406000", "175411.406000", "175411.406000", "175411.406000", "175411.421000", "175411.421000", "175411.421000", "175411.421000", "175411.421000", "175411.421000", "175411.421000", "175411.421000", "175411.437000", "175411.437000", "175411.437000", "175411.437000", "175411.437000", "175411.437000", "175411.437000", "175411.453000", "175511.390000", "175511.390000", "175511.390000", "175511.390000", "175511.390000", "175511.406000", "175511.406000", "175511.406000", "175511.406000", "175511.406000", "175511.406000", "175511.406000", "175511.421000", "175511.421000", "175511.421000", "175511.421000", "175511.421000", "175511.421000", "175511.421000", "175511.437000", "175511.437000", "175511.437000", "175511.437000", "175511.437000", "175511.437000", "175511.437000", "175511.453000", "175511.453000", "175511.453000", "175611.390000", "175611.390000", "175611.390000", "175611.390000", "175611.390000", "175611.406000", "175611.406000", "175611.406000", "175611.406000", "175611.406000", "175611.406000", "175611.406000", "175611.421000", "175611.421000", "175611.421000", "175611.421000", "175611.421000", "175611.421000", "175611.421000", "175611.437000", "175611.437000", "175611.437000", "175611.437000", "175611.437000", "175611.437000", "175611.437000", "175611.453000", "175611.453000", "175711.390000", "175711.390000", "175711.390000", "175711.390000", "175711.390000", "175711.406000", "175711.406000", "175711.406000", "175711.406000", "175711.406000", "175711.406000", "175711.406000", "175711.421000", "175711.421000", "175711.421000", "175711.421000", "175711.421000", "175711.421000", "175711.421000", "175711.437000", "175711.437000", "175711.437000", "175711.437000", "175711.437000", "175711.437000", "175711.437000", "175711.453000", "175711.453000", "175811.390000", "175811.390000", "175811.390000", "175811.390000", "175811.390000", "175811.406000", "175811.406000", "175811.406000", "175811.406000", "175811.406000", "175811.406000", "175811.406000", "175811.421000", "175811.421000", "175811.421000", "175811.421000", "175811.421000", "175811.421000", "175811.421000", "175811.437000", "175811.437000", "175811.437000", "175811.437000", "175811.437000", "175811.437000", "175811.437000", "175811.453000", "175811.453000", "175911.390000", "175911.390000", "175911.390000", "175911.390000", "175911.390000", "175911.406000", "175911.406000", "175911.406000", "175911.406000", "175911.406000", "175911.406000", "175911.406000", "175911.421000", "175911.421000", "175911.421000", "175911.421000", "175911.421000", "175911.421000", "175911.421000", "175911.437000", "175911.437000", "175911.437000", "175911.437000", "175911.437000", "175911.437000", "175911.437000", "175911.453000", "175911.453000", "180011.390000", "180011.390000", "180011.390000", "180011.390000", "180011.390000", "180011.406000", "180011.406000", "180011.406000", "180011.406000", "180011.406000", "180011.406000", "180011.406000", "180011.421000", "180011.421000", "180011.421000", "180011.421000", "180011.421000", "180011.421000", "180011.421000", "180011.437000", "180011.437000", "180011.437000", "180011.437000", "180011.437000", "180011.437000", "180011.437000", "180011.453000", "180011.453000", "180011.453000", "180111.390000", "180111.390000", "180111.390000", "180111.390000", "180111.390000", "180111.406000", "180111.406000", "180111.406000", "180111.406000", "180111.406000", "180111.406000", "180111.406000", "180111.421000", "180111.421000", "180111.421000", "180111.421000", "180111.421000", "180111.421000", "180111.421000", "180111.437000", "180111.437000", "180111.437000", "180111.437000", "180111.437000", "180111.437000", "180111.437000", "180111.453000", "180111.453000", "180211.390000", "180211.390000", "180211.390000", "180211.390000", "180211.390000", "180211.406000", "180211.406000", "180211.406000", "180211.406000", "180211.406000", "180211.406000", "180211.406000", "180211.421000", "180211.421000", "180211.421000", "180211.421000", "180211.421000", "180211.421000", "180211.421000", "180211.437000", "180211.437000", "180211.437000", "180211.437000", "180211.437000", "180211.437000", "180211.437000", "180211.453000", "180211.453000", "180311.390000", "180311.390000", "180311.390000", "180311.390000", "180311.390000", "180311.406000", "180311.406000", "180311.406000", "180311.406000", "180311.406000", "180311.406000", "180311.406000", "180311.421000", "180311.421000", "180311.421000", "180311.421000", "180311.421000", "180311.421000", "180311.421000", "180311.437000", "180311.437000", "180311.437000", "180311.437000", "180311.437000", "180311.437000", "180311.437000", "180311.453000", "180311.453000", "180336.609000", "180336.609000", "180336.609000", "180336.609000", "180336.609000", "180336.625000", "180336.625000", "180336.625000", "180336.625000", "180336.625000", "180336.625000", "180336.625000", "180336.640000"],
      "DataSetTrailingPadding": [
        "\u0000\u0000\u0000\u0000\u0000\u0000\u0000\u0000\u0000\u0000\u0000\u0000\u0000\u0000\u0000\u0000\u0000\u0000\u0000\u0000\u0000\u0000\u0000\u0000\u0000\u0000\u0000\u0000\u0000\u0000\u0000\u0000\u0000\u0000\u0000\u0000\u0000\u0000\u0000\u0000\u0000\u0000\u0000\u0000\u0000\u0000\u0000\u0000\u0000\u0000",
        "\u0000\u0000\u0000\u0000\u0000\u0000\u0000\u0000\u0000\u0000\u0000\u0000\u0000\u0000\u0000\u0000\u0000\u0000\u0000\u0000\u0000\u0000\u0000\u0000\u0000\u0000\u0000\u0000\u0000\u0000\u0000\u0000\u0000\u0000\u0000\u0000\u0000\u0000\u0000\u0000\u0000\u0000\u0000\u0000\u0000\u0000\u0000\u0000\u0000\u0000",
        "\u0000\u0000\u0000\u0000\u0000\u0000\u0000\u0000\u0000\u0000\u0000\u0000\u0000\u0000\u0000\u0000\u0000\u0000\u0000\u0000\u0000\u0000\u0000\u0000\u0000\u0000\u0000\u0000\u0000\u0000\u0000\u0000\u0000\u0000\u0000\u0000\u0000\u0000\u0000\u0000\u0000\u0000\u0000\u0000\u0000\u0000\u0000\u0000\u0000\u0000",
        "\u0000\u0000\u0000\u0000\u0000\u0000\u0000\u0000\u0000\u0000\u0000\u0000\u0000\u0000\u0000\u0000\u0000\u0000\u0000\u0000\u0000\u0000\u0000\u0000\u0000\u0000\u0000\u0000\u0000\u0000\u0000\u0000\u0000\u0000\u0000\u0000\u0000\u0000\u0000\u0000\u0000\u0000\u0000\u0000\u0000\u0000\u0000\u0000",
        "\u0000\u0000\u0000\u0000\u0000\u0000\u0000\u0000\u0000\u0000\u0000\u0000\u0000\u0000\u0000\u0000\u0000\u0000\u0000\u0000\u0000\u0000\u0000\u0000\u0000\u0000\u0000\u0000\u0000\u0000\u0000\u0000\u0000\u0000\u0000\u0000\u0000\u0000\u0000\u0000\u0000\u0000\u0000\u0000\u0000\u0000\u0000\u0000\u0000\u0000",
        "\u0000\u0000\u0000\u0000\u0000\u0000\u0000\u0000\u0000\u0000\u0000\u0000\u0000\u0000\u0000\u0000\u0000\u0000\u0000\u0000\u0000\u0000\u0000\u0000\u0000\u0000\u0000\u0000\u0000\u0000\u0000\u0000\u0000\u0000\u0000\u0000\u0000\u0000\u0000\u0000\u0000\u0000\u0000\u0000\u0000\u0000\u0000\u0000\u0000\u0000\u0000\u0000",
