{
  "AcquisitionMatrixPE": 104,
  "AcquisitionNumber": 1,
  "AcquisitionTime": "15:57:4.710000",
  "BandwidthPerPixelPhaseEncode": 13.935,
  "BaseResolution": 104,
  "CoilString": "C:HEA;HEP",
  "ConversionSoftware": "dcm2niix",
  "ConversionSoftwareVersion": "v1.0.20210317",
  "DerivedVendorReportedEchoSpacing": 0.000690017,
  "DeviceSerialNumber": "35450",
  "DwellTime": 2.5e-06,
  "EchoTime": 0.0348,
  "EffectiveEchoSpacing": 0.000690017,
  "FlipAngle": 55,
  "ImageComments": "Unaliased MB8/PE3",
  "ImageOrientationPatientDICOM": [0.999564, 0.00385405, 0.0292642, 7.41099e-08, 0.991439, -0.130573],
  "ImageType": [
    "ORIGINAL",
    "PRIMARY",
    "M",
    "MB",
    "ND",
    "MOSAIC"
],
  "ImagingFrequency": 123.235,
  "InPlanePhaseEncodingDirectionDICOM": "COL",
  "InstitutionAddress": "Univeristy Ave. 197,Newark,North East,US,07102-1814",
  "InstitutionName": "RUBIC",
  "InstitutionalDepartmentName": "Department",
  "MRAcquisitionType": "2D",
  "MagneticFieldStrength": 3,
  "Manufacturer": "Siemens",
  "ManufacturersModelName": "TrioTim",
  "Modality": "MR",
  "MultibandAccelerationFactor": 8,
  "PartialFourier": 0.875,
  "PatientPosition": "HFS",
  "PercentPhaseFOV": 100,
  "PercentSampling": 100,
  "PhaseEncodingDirection": "j-",
  "PhaseEncodingSteps": 91,
  "PhaseResolution": 1,
  "PixelBandwidth": 1923,
  "ProcedureStepDescription": "Cole^Michael",
  "ProtocolName": "cmrr_mbep2d_bold_2mm_MB8_Task_8x",
  "PulseSequenceDetails": "%CustomerSeq%\\cmrr_mbep2d_bold",
  "ReceiveCoilName": "32Ch_Head",
  "ReconMatrixPE": 104,
  "RepetitionTime": 0.785,
  "SAR": 0.148626,
  "ScanOptions": "PFP\\FS",
  "ScanningSequence": "EP",
  "SequenceName": "epfid2d1_104",
  "SequenceVariant": "SK\\SS",
  "SeriesDescription": "cmrr_mbep2d_bold_2mm_MB8_Task_8x",
  "SeriesNumber": 15,
  "ShimSetting": [2139, -349, -7311, 433, 34, -484, -67, 64],
  "SliceThickness": 2,
  "SliceTiming": [0, 0.4375, 0.0875, 0.525, 0.175, 0.6125, 0.2625, 0.7, 0.35, 0, 0.4375, 0.0875, 0.525, 0.175, 0.6125, 0.2625, 0.7, 0.35, 0, 0.4375, 0.0875, 0.525, 0.175, 0.6125, 0.2625, 0.7, 0.35, 0, 0.4375, 0.0875, 0.525, 0.175, 0.6125, 0.2625, 0.7, 0.35, 0, 0.4375, 0.0875, 0.525, 0.175, 0.6125, 0.2625, 0.7, 0.35, 0, 0.4375, 0.0875, 0.525, 0.175, 0.6125, 0.2625, 0.7, 0.35, 0, 0.4375, 0.0875, 0.525, 0.175, 0.6125, 0.2625, 0.7, 0.35, 0, 0.4375, 0.0875, 0.525, 0.175, 0.6125, 0.2625, 0.7, 0.35],
  "SoftwareVersions": "syngo MR B19",
  "SpacingBetweenSlices": 2,
  "StationName": "MRC35450",
  "TaskName": "cpro",
  "TotalReadoutTime": 0.0710717,
  "TxRefAmp": 345.06,
  "dcmmeta_affine": [
    [-1.9991285800933838, 1.4821971205947193e-07, 0.05903388559818268, 102.62969207763672],
    [-0.00770810479298234, 1.982877254486084, -0.26103290915489197, -71.79981231689453],
    [0.05852849408984184, 0.2611466944217682, 1.9820133447647095, -113.39724731445312],
    [0.0, 0.0, 0.0, 1.0]
],
  "dcmmeta_reorient_transform": [
    [0.0, -1.0, 0.0, 103.0],
    [1.0, 0.0, 0.0, 0.0],
    [0.0, 0.0, 1.0, 0.0],
    [0.0, 0.0, 0.0, 1.0]
],
  "dcmmeta_shape": [104, 104, 72, 581],
  "dcmmeta_slice_dim": 2,
  "dcmmeta_version": 0.6,
  "global": {
    "const": {
      "AcquisitionMatrix": [104, 0, 0, 104],
      "AngioFlag": "N",
      "BitsAllocated": 16,
      "BitsStored": 12,
      "Columns": 936,
      "EchoNumbers": 1,
      "EchoTime": 34.8,
      "EchoTrainLength": 1,
      "FlipAngle": 55.0,
      "HighBit": 11,
      "ImageOrientationPatient": [0.99956428014199, 0.00385405230319, 0.02926424687358, 7.4109859e-08, 0.99143865291043, -0.1305733415179],
      "ImagePositionPatient": [-934.2672490027, -960.52007948656, -2.2099733626441],
      "ImageType": [
        "ORIGINAL",
        "PRIMARY",
        "M",
        "MB",
        "ND",
        "MOSAIC"
],
      "ImagedNucleus": "1H",
      "ImagingFrequency": 123.234787,
      "InPlanePhaseEncodingDirection": "COL",
      "MRAcquisitionType": "2D",
      "MagneticFieldStrength": 3.0,
      "Manufacturer": "SIEMENS",
      "ManufacturerModelName": "TrioTim",
      "Modality": "MR",
      "NumberOfAverages": 1.0,
      "NumberOfPhaseEncodingSteps": 91,
      "PercentPhaseFieldOfView": 100.0,
      "PercentSampling": 100.0,
      "PerformedProcedureStepStartTime": "145202.046000",
      "PhotometricInterpretation": "MONOCHROME2",
      "PixelBandwidth": 1923.0,
      "PixelRepresentation": 0,
      "PixelSpacing": [2.0, 2.0],
      "ProtocolName": "cmrr_mbep2d_bold_2mm_MB8_Task_8x",
      "RepetitionTime": 785.0,
      "Rows": 936,
      "SAR": 0.14862648357304,
      "SamplesPerPixel": 1,
      "ScanOptions": [
        "PFP",
        "FS"
],
      "ScanningSequence": "EP",
      "SequenceName": "epfid2d1_104",
      "SequenceVariant": [
        "SK",
        "SS"
],
      "SeriesDescription": "cmrr_mbep2d_bold_2mm_MB8_Task_8x",
      "SeriesNumber": 15,
      "SeriesTime": "164015.281000",
      "SliceLocation": -99.977057344812,
      "SliceThickness": 2.0,
      "SmallestImagePixelValue": 0,
      "SoftwareVersions": "syngo MR B19",
      "SpacingBetweenSlices": 2.0000000549439,
      "SpecificCharacterSet": "ISO_IR 100",
      "StudyID": "1",
      "StudyTime": "145201.984000",
      "TransmitCoilName": "Body",
      "VariableFlipAngleFlag": "N",
      "WindowCenterWidthExplanation": "Algo1",
      "dBdt": 0.0},
    "slices": {}
  },
  "time": {
    "samples": {
      "AcquisitionNumber": [1, 2, 3, 4, 5, 6, 7, 8, 9, 10, 11, 12, 13, 14, 15, 16, 17, 18, 19, 20, 21, 22, 23, 24, 25, 26, 27, 28, 29, 30, 31, 32, 33, 34, 35, 36, 37, 38, 39, 40, 41, 42, 43, 44, 45, 46, 47, 48, 49, 50, 51, 52, 53, 54, 55, 56, 57, 58, 59, 60, 61, 62, 63, 64, 65, 66, 67, 68, 69, 70, 71, 72, 73, 74, 75, 76, 77, 78, 79, 80, 81, 82, 83, 84, 85, 86, 87, 88, 89, 90, 91, 92, 93, 94, 95, 96, 97, 98, 99, 100, 101, 102, 103, 104, 105, 106, 107, 108, 109, 110, 111, 112, 113, 114, 115, 116, 117, 118, 119, 120, 121, 122, 123, 124, 125, 126, 127, 128, 129, 130, 131, 132, 133, 134, 135, 136, 137, 138, 139, 140, 141, 142, 143, 144, 145, 146, 147, 148, 149, 150, 151, 152, 153, 154, 155, 156, 157, 158, 159, 160, 161, 162, 163, 164, 165, 166, 167, 168, 169, 170, 171, 172, 173, 174, 175, 176, 177, 178, 179, 180, 181, 182, 183, 184, 185, 186, 187, 188, 189, 190, 191, 192, 193, 194, 195, 196, 197, 198, 199, 200, 201, 202, 203, 204, 205, 206, 207, 208, 209, 210, 211, 212, 213, 214, 215, 216, 217, 218, 219, 220, 221, 222, 223, 224, 225, 226, 227, 228, 229, 230, 231, 232, 233, 234, 235, 236, 237, 238, 239, 240, 241, 242, 243, 244, 245, 246, 247, 248, 249, 250, 251, 252, 253, 254, 255, 256, 257, 258, 259, 260, 261, 262, 263, 264, 265, 266, 267, 268, 269, 270, 271, 272, 273, 274, 275, 276, 277, 278, 279, 280, 281, 282, 283, 284, 285, 286, 287, 288, 289, 290, 291, 292, 293, 294, 295, 296, 297, 298, 299, 300, 301, 302, 303, 304, 305, 306, 307, 308, 309, 310, 311, 312, 313, 314, 315, 316, 317, 318, 319, 320, 321, 322, 323, 324, 325, 326, 327, 328, 329, 330, 331, 332, 333, 334, 335, 336, 337, 338, 339, 340, 341, 342, 343, 344, 345, 346, 347, 348, 349, 350, 351, 352, 353, 354, 355, 356, 357, 358, 359, 360, 361, 362, 363, 364, 365, 366, 367, 368, 369, 370, 371, 372, 373, 374, 375, 376, 377, 378, 379, 380, 381, 382, 383, 384, 385, 386, 387, 388, 389, 390, 391, 392, 393, 394, 395, 396, 397, 398, 399, 400, 401, 402, 403, 404, 405, 406, 407, 408, 409, 410, 411, 412, 413, 414, 415, 416, 417, 418, 419, 420, 421, 422, 423, 424, 425, 426, 427, 428, 429, 430, 431, 432, 433, 434, 435, 436, 437, 438, 439, 440, 441, 442, 443, 444, 445, 446, 447, 448, 449, 450, 451, 452, 453, 454, 455, 456, 457, 458, 459, 460, 461, 462, 463, 464, 465, 466, 467, 468, 469, 470, 471, 472, 473, 474, 475, 476, 477, 478, 479, 480, 481, 482, 483, 484, 485, 486, 487, 488, 489, 490, 491, 492, 493, 494, 495, 496, 497, 498, 499, 500, 501, 502, 503, 504, 505, 506, 507, 508, 509, 510, 511, 512, 513, 514, 515, 516, 517, 518, 519, 520, 521, 522, 523, 524, 525, 526, 527, 528, 529, 530, 531, 532, 533, 534, 535, 536, 537, 538, 539, 540, 541, 542, 543, 544, 545, 546, 547, 548, 549, 550, 551, 552, 553, 554, 555, 556, 557, 558, 559, 560, 561, 562, 563, 564, 565, 566, 567, 568, 569, 570, 571, 572, 573, 574, 575, 576, 577, 578, 579, 580, 581],
      "AcquisitionTime": ["155704.710000", "155705.497500", "155706.285000", "155707.072500", "155707.862500", "155708.650000", "155709.437500", "155710.225000", "155711.015000", "155711.802500", "155712.590000", "155713.380000", "155714.167500", "155714.955000", "155715.742500", "155716.532500", "155717.320000", "155718.107500", "155718.895000", "155719.685000", "155720.472500", "155721.260000", "155722.047500", "155722.837500", "155723.625000", "155724.412500", "155725.200000", "155725.990000", "155726.777500", "155727.565000", "155728.352500", "155729.142500", "155729.930000", "155730.717500", "155731.507500", "155732.295000", "155733.082500", "155733.870000", "155734.660000", "155735.447500", "155736.235000", "155737.022500", "155737.812500", "155738.600000", "155739.387500", "155740.175000", "155740.965000", "155741.752500", "155742.540000", "155743.327500", "155744.117500", "155744.905000", "155745.692500", "155746.480000", "155747.270000", "155748.057500", "155748.845000", "155749.635000", "155750.422500", "155751.210000", "155751.997500", "155752.787500", "155753.575000", "155754.362500", "155755.150000", "155755.940000", "155756.727500", "155757.515000", "155758.302500", "155759.092500", "155759.880000", "155800.667500", "155801.455000", "155802.245000", "155803.032500", "155803.820000", "155804.607500", "155805.397500", "155806.185000", "155806.972500", "155807.762500", "155808.550000", "155809.337500", "155810.125000", "155810.915000", "155811.702500", "155812.490000", "155813.277500", "155814.067500", "155814.855000", "155815.642500", "155816.430000", "155817.220000", "155818.007500", "155818.795000", "155819.582500", "155820.372500", "155821.160000", "155821.947500", "155822.735000", "155823.525000", "155824.312500", "155825.100000", "155825.890000", "155826.677500", "155827.465000", "155828.252500", "155829.042500", "155829.830000", "155830.617500", "155831.405000", "155832.195000", "155832.982500", "155833.770000", "155834.557500", "155835.347500", "155836.135000", "155836.922500", "155837.710000", "155838.500000", "155839.287500", "155840.075000", "155840.862500", "155841.652500", "155842.440000", "155843.227500", "155844.017500", "155844.805000", "155845.592500", "155846.380000", "155847.170000", "155847.957500", "155848.745000", "155849.532500", "155850.322500", "155851.110000", "155851.897500", "155852.685000", "155853.475000", "155854.262500", "155855.050000", "155855.837500", "155856.627500", "155857.415000", "155858.202500", "155858.990000", "155859.780000", "155900.567500", "155901.355000", "155902.145000", "155902.932500", "155903.720000", "155904.507500", "155905.297500", "155906.085000", "155906.872500", "155907.660000", "155908.450000", "155909.237500", "155910.025000", "155910.812500", "155911.602500", "155912.390000", "155913.177500", "155913.965000", "155914.755000", "155915.542500", "155916.330000", "155917.117500", "155917.907500", "155918.695000", "155919.482500", "155920.272500", "155921.060000", "155921.847500", "155922.635000", "155923.425000", "155924.212500", "155925.000000", "155925.787500", "155926.577500", "155927.365000", "155928.152500", "155928.940000", "155929.730000", "155930.517500", "155931.305000", "155932.092500", "155932.882500", "155933.670000", "155934.457500", "155935.247500", "155936.035000", "155936.822500", "155937.610000", "155938.400000", "155939.187500", "155939.975000", "155940.762500", "155941.552500", "155942.340000", "155943.127500", "155943.915000", "155944.705000", "155945.492500", "155946.280000", "155947.067500", "155947.857500", "155948.645000", "155949.432500", "155950.220000", "155951.010000", "155951.797500", "155952.585000", "155953.375000", "155954.162500", "155954.950000", "155955.737500", "155956.527500", "155957.315000", "155958.102500", "155958.890000", "155959.680000", "160000.467500", "160001.255000", "160002.042500", "160002.832500", "160003.620000", "160004.407500", "160005.195000", "160005.985000", "160006.772500", "160007.560000", "160008.347500", "160009.137500", "160009.925000", "160010.712500", "160011.502500", "160012.290000", "160013.077500", "160013.865000", "160014.655000", "160015.442500", "160016.230000", "160017.017500", "160017.807500", "160018.595000", "160019.382500", "160020.170000", "160020.960000", "160021.747500", "160022.535000", "160023.322500", "160024.112500", "160024.900000", "160025.687500", "160026.475000", "160027.265000", "160028.052500", "160028.840000", "160029.630000", "160030.417500", "160031.205000", "160031.992500", "160032.782500", "160033.570000", "160034.357500", "160035.145000", "160035.935000", "160036.722500", "160037.510000", "160038.297500", "160039.087500", "160039.875000", "160040.662500", "160041.450000", "160042.240000", "160043.027500", "160043.815000", "160044.602500", "160045.392500", "160046.180000", "160046.967500", "160047.757500", "160048.545000", "160049.332500", "160050.120000", "160050.910000", "160051.697500", "160052.485000", "160053.272500", "160054.062500", "160054.850000", "160055.637500", "160056.425000", "160057.215000", "160058.002500", "160058.790000", "160059.577500", "160100.367500", "160101.155000", "160101.942500", "160102.730000", "160103.520000", "160104.307500", "160105.095000", "160105.885000", "160106.672500", "160107.460000", "160108.247500", "160109.037500", "160109.825000", "160110.612500", "160111.400000", "160112.190000", "160112.977500", "160113.765000", "160114.552500", "160115.342500", "160116.130000", "160116.917500", "160117.705000", "160118.495000", "160119.282500", "160120.070000", "160120.857500", "160121.647500", "160122.435000", "160123.222500", "160124.012500", "160124.800000", "160125.587500", "160126.375000", "160127.165000", "160127.952500", "160128.740000", "160129.527500", "160130.317500", "160131.105000", "160131.892500", "160132.680000", "160133.470000", "160134.257500", "160135.045000", "160135.832500", "160136.622500", "160137.410000", "160138.197500", "160138.985000", "160139.775000", "160140.562500", "160141.350000", "160142.140000", "160142.927500", "160143.715000", "160144.502500", "160145.292500", "160146.080000", "160146.867500", "160147.655000", "160148.445000", "160149.232500", "160150.020000", "160150.807500", "160151.597500", "160152.385000", "160153.172500", "160153.960000", "160154.750000", "160155.537500", "160156.325000", "160157.112500", "160157.902500", "160158.690000", "160159.477500", "160200.267500", "160201.055000", "160201.842500", "160202.630000", "160203.420000", "160204.207500", "160204.995000", "160205.782500", "160206.572500", "160207.360000", "160208.147500", "160208.935000", "160209.725000", "160210.512500", "160211.300000", "160212.087500", "160212.877500", "160213.665000", "160214.452500", "160215.240000", "160216.030000", "160216.817500", "160217.605000", "160218.395000", "160219.182500", "160219.970000", "160220.757500", "160221.547500", "160222.335000", "160223.122500", "160223.910000", "160224.700000", "160225.487500", "160226.275000", "160227.062500", "160227.852500", "160228.640000", "160229.427500", "160230.215000", "160231.005000", "160231.792500", "160232.580000", "160233.367500", "160234.157500", "160234.945000", "160235.732500", "160236.522500", "160237.310000", "160238.097500", "160238.885000", "160239.675000", "160240.462500", "160241.250000", "160242.037500", "160242.827500", "160243.615000", "160244.402500", "160245.190000", "160245.980000", "160246.767500", "160247.555000", "160248.342500", "160249.132500", "160249.920000", "160250.707500", "160251.497500", "160252.285000", "160253.072500", "160253.860000", "160254.650000", "160255.437500", "160256.225000", "160257.012500", "160257.802500", "160258.590000", "160259.377500", "160300.165000", "160300.955000", "160301.742500", "160302.530000", "160303.317500", "160304.107500", "160304.895000", "160305.682500", "160306.470000", "160307.260000", "160308.047500", "160308.835000", "160309.625000", "160310.412500", "160311.200000", "160311.987500", "160312.777500", "160313.565000", "160314.352500", "160315.140000", "160315.930000", "160316.717500", "160317.505000", "160318.292500", "160319.082500", "160319.870000", "160320.657500", "160321.445000", "160322.235000", "160323.022500", "160323.810000", "160324.597500", "160325.387500", "160326.175000", "160326.962500", "160327.752500", "160328.540000", "160329.327500", "160330.115000", "160330.905000", "160331.692500", "160332.480000", "160333.267500", "160334.057500", "160334.845000", "160335.632500", "160336.420000", "160337.210000", "160337.997500", "160338.785000", "160339.572500", "160340.362500", "160341.150000", "160341.937500", "160342.725000", "160343.515000", "160344.302500", "160345.090000", "160345.880000", "160346.667500", "160347.455000", "160348.242500", "160349.032500", "160349.820000", "160350.607500", "160351.395000", "160352.185000", "160352.972500", "160353.760000", "160354.547500", "160355.337500", "160356.125000", "160356.912500", "160357.700000", "160358.490000", "160359.277500", "160400.065000", "160400.852500", "160401.642500", "160402.430000", "160403.217500", "160404.007500", "160404.795000", "160405.582500", "160406.370000", "160407.160000", "160407.947500", "160408.735000", "160409.522500", "160410.312500", "160411.100000", "160411.887500", "160412.675000", "160413.465000", "160414.252500", "160415.040000", "160415.827500", "160416.617500", "160417.405000", "160418.192500", "160418.980000", "160419.770000", "160420.557500", "160421.345000", "160422.135000", "160422.922500", "160423.710000", "160424.497500", "160425.287500", "160426.075000", "160426.862500", "160427.650000", "160428.440000", "160429.227500", "160430.015000", "160430.802500", "160431.592500", "160432.380000", "160433.167500", "160433.955000", "160434.745000", "160435.532500", "160436.320000", "160437.107500", "160437.897500", "160438.685000", "160439.472500", "160440.262500", "160441.050000", "160441.837500"],
      "ContentTime": ["164015.281000", "164015.281000", "164015.296000", "164015.296000", "164015.296000", "164015.296000", "164015.296000", "164115.265000", "164115.265000", "164115.265000", "164115.265000", "164115.265000", "164115.281000", "164115.281000", "164115.281000", "164115.281000", "164115.281000", "164115.281000", "164115.281000", "164115.296000", "164115.296000", "164115.296000", "164115.296000", "164115.296000", "164115.296000", "164115.296000", "164115.312000", "164115.312000", "164115.312000", "164115.312000", "164115.312000", "164115.312000", "164115.312000", "164115.328000", "164115.328000", "164215.265000", "164215.265000", "164215.265000", "164215.265000", "164215.265000", "164215.281000", "164215.281000", "164215.281000", "164215.281000", "164215.281000", "164215.281000", "164215.281000", "164215.296000", "164215.296000", "164215.296000", "164215.296000", "164215.296000", "164215.296000", "164215.296000", "164215.312000", "164215.312000", "164215.312000", "164215.312000", "164215.312000", "164215.312000", "164215.312000", "164215.328000", "164315.265000", "164315.265000", "164315.265000", "164315.265000", "164315.265000", "164315.281000", "164315.281000", "164315.281000", "164315.281000", "164315.281000", "164315.281000", "164315.281000", "164315.296000", "164315.296000", "164315.296000", "164315.296000", "164315.296000", "164315.296000", "164315.296000", "164315.312000", "164315.312000", "164315.312000", "164315.312000", "164315.312000", "164315.312000", "164315.328000", "164315.328000", "164415.265000", "164415.265000", "164415.265000", "164415.265000", "164415.265000", "164415.281000", "164415.281000", "164415.281000", "164415.281000", "164415.281000", "164415.281000", "164415.281000", "164415.296000", "164415.296000", "164415.296000", "164415.296000", "164415.296000", "164415.296000", "164415.296000", "164415.312000", "164415.312000", "164415.312000", "164415.312000", "164415.312000", "164415.312000", "164415.312000", "164415.328000", "164415.328000", "164515.265000", "164515.265000", "164515.265000", "164515.265000", "164515.265000", "164515.281000", "164515.281000", "164515.281000", "164515.281000", "164515.281000", "164515.281000", "164515.281000", "164515.296000", "164515.296000", "164515.296000", "164515.296000", "164515.296000", "164515.296000", "164515.296000", "164515.312000", "164515.312000", "164515.312000", "164515.312000", "164515.312000", "164515.312000", "164515.312000", "164515.328000", "164615.265000", "164615.265000", "164615.265000", "164615.265000", "164615.265000", "164615.281000", "164615.281000", "164615.281000", "164615.281000", "164615.281000", "164615.281000", "164615.281000", "164615.296000", "164615.296000", "164615.296000", "164615.296000", "164615.296000", "164615.296000", "164615.296000", "164615.312000", "164615.312000", "164615.312000", "164615.312000", "164615.312000", "164615.312000", "164615.312000", "164615.328000", "164615.328000", "164715.265000", "164715.265000", "164715.265000", "164715.265000", "164715.265000", "164715.281000", "164715.281000", "164715.281000", "164715.281000", "164715.281000", "164715.281000", "164715.281000", "164715.296000", "164715.296000", "164715.296000", "164715.296000", "164715.296000", "164715.296000", "164715.296000", "164715.312000", "164715.312000", "164715.312000", "164715.312000", "164715.312000", "164715.312000", "164715.312000", "164715.328000", "164815.265000", "164815.265000", "164815.265000", "164815.265000", "164815.265000", "164815.281000", "164815.281000", "164815.281000", "164815.281000", "164815.281000", "164815.281000", "164815.281000", "164815.296000", "164815.296000", "164815.296000", "164815.296000", "164815.296000", "164815.296000", "164815.296000", "164815.312000", "164815.312000", "164815.312000", "164815.312000", "164815.312000", "164815.312000", "164815.312000", "164815.328000", "164815.328000", "164915.265000", "164915.265000", "164915.265000", "164915.265000", "164915.265000", "164915.281000", "164915.281000", "164915.281000", "164915.281000", "164915.281000", "164915.281000", "164915.281000", "164915.296000", "164915.296000", "164915.296000", "164915.296000", "164915.296000", "164915.296000", "164915.312000", "164915.312000", "164915.312000", "164915.312000", "164915.312000", "164915.312000", "164915.312000", "164915.328000", "164915.328000", "164915.328000", "165015.265000", "165015.265000", "165015.265000", "165015.265000", "165015.265000", "165015.281000", "165015.281000", "165015.281000", "165015.281000", "165015.281000", "165015.281000", "165015.281000", "165015.296000", "165015.296000", "165015.296000", "165015.296000", "165015.296000", "165015.296000", "165015.296000", "165015.312000", "165015.312000", "165015.312000", "165015.312000", "165015.312000", "165015.312000", "165015.312000", "165015.328000", "165015.328000", "165115.265000", "165115.265000", "165115.265000", "165115.265000", "165115.265000", "165115.281000", "165115.281000", "165115.281000", "165115.281000", "165115.281000", "165115.281000", "165115.296000", "165115.296000", "165115.296000", "165115.296000", "165115.296000", "165115.296000", "165115.296000", "165115.312000", "165115.312000", "165115.312000", "165115.312000", "165115.312000", "165115.312000", "165115.312000", "165115.328000", "165115.328000", "165115.328000", "165215.265000", "165215.265000", "165215.265000", "165215.265000", "165215.265000", "165215.281000", "165215.281000", "165215.281000", "165215.281000", "165215.281000", "165215.281000", "165215.281000", "165215.296000", "165215.296000", "165215.296000", "165215.296000", "165215.296000", "165215.296000", "165215.296000", "165215.312000", "165215.312000", "165215.312000", "165215.312000", "165215.312000", "165215.312000", "165215.312000", "165215.328000", "165215.328000", "165315.265000", "165315.265000", "165315.265000", "165315.265000", "165315.265000", "165315.281000", "165315.281000", "165315.281000", "165315.281000", "165315.281000", "165315.281000", "165315.281000", "165315.296000", "165315.296000", "165315.296000", "165315.296000", "165315.296000", "165315.296000", "165315.296000", "165315.312000", "165315.312000", "165315.312000", "165315.312000", "165315.312000", "165315.312000", "165315.328000", "165315.328000", "165315.328000", "165315.328000", "165415.265000", "165415.265000", "165415.265000", "165415.265000", "165415.265000", "165415.281000", "165415.281000", "165415.281000", "165415.281000", "165415.281000", "165415.281000", "165415.281000", "165415.296000", "165415.296000", "165415.296000", "165415.296000", "165415.296000", "165415.296000", "165415.296000", "165415.312000", "165415.312000", "165415.312000", "165415.312000", "165415.312000", "165415.312000", "165415.328000", "165415.328000", "165415.328000", "165515.265000", "165515.265000", "165515.265000", "165515.265000", "165515.265000", "165515.281000", "165515.281000", "165515.281000", "165515.281000", "165515.281000", "165515.281000", "165515.296000", "165515.296000", "165515.296000", "165515.296000", "165515.296000", "165515.296000", "165515.296000", "165515.312000", "165515.312000", "165515.312000", "165515.312000", "165515.312000", "165515.312000", "165515.312000", "165515.328000", "165515.328000", "165515.328000", "165615.265000", "165615.265000", "165615.265000", "165615.265000", "165615.265000", "165615.281000", "165615.281000", "165615.281000", "165615.281000", "165615.281000", "165615.281000", "165615.281000", "165615.296000", "165615.296000", "165615.296000", "165615.296000", "165615.296000", "165615.296000", "165615.296000", "165615.312000", "165615.312000", "165615.312000", "165615.312000", "165615.312000", "165615.312000", "165615.312000", "165615.328000", "165615.328000", "165715.265000", "165715.265000", "165715.265000", "165715.265000", "165715.265000", "165715.281000", "165715.281000", "165715.281000", "165715.281000", "165715.281000", "165715.281000", "165715.281000", "165715.296000", "165715.296000", "165715.296000", "165715.296000", "165715.296000", "165715.296000", "165715.312000", "165715.312000", "165715.312000", "165715.312000", "165715.312000", "165715.312000", "165715.312000", "165715.328000", "165715.328000", "165715.328000", "165815.265000", "165815.265000", "165815.265000", "165815.265000", "165815.281000", "165815.281000", "165815.281000", "165815.281000", "165815.281000", "165815.281000", "165815.281000", "165815.296000", "165815.296000", "165815.296000", "165815.296000", "165815.296000", "165815.296000", "165815.296000", "165815.312000", "165815.312000", "165815.312000", "165815.312000", "165815.312000", "165815.312000", "165815.312000", "165815.328000", "165815.328000", "165815.328000", "165915.265000", "165915.265000", "165915.265000", "165915.265000", "165915.265000", "165915.281000", "165915.281000", "165915.281000", "165915.281000", "165915.281000", "165915.281000", "165915.281000", "165915.296000", "165915.296000", "165915.296000", "165915.296000", "165915.296000", "165915.296000", "165915.296000", "165915.312000", "165915.312000", "165915.312000", "165915.312000", "165915.312000", "165915.312000", "165915.328000", "165915.328000", "165915.328000", "165915.328000", "170015.265000", "170015.265000", "170015.265000", "170015.265000", "170015.265000", "170015.281000", "170015.281000", "170015.281000", "170015.281000", "170015.281000", "170015.281000", "170015.281000", "170015.296000", "170015.296000", "170015.296000", "170015.296000", "170015.296000", "170015.296000", "170015.296000", "170015.312000", "170015.312000", "170015.312000", "170015.312000", "170015.312000", "170015.312000", "170015.312000", "170015.328000", "170015.328000", "170048.343000", "170048.343000", "170048.343000", "170048.343000", "170048.343000", "170048.343000", "170048.359000", "170048.359000", "170048.359000", "170048.359000", "170048.359000", "170048.375000", "170048.375000", "170048.375000", "170048.375000", "170048.375000"],
      "DataSetTrailingPadding": [
        "\u0000\u0000\u0000\u0000\u0000\u0000\u0000\u0000\u0000\u0000\u0000\u0000\u0000\u0000\u0000\u0000\u0000\u0000\u0000\u0000\u0000\u0000\u0000\u0000\u0000\u0000\u0000\u0000\u0000\u0000\u0000\u0000\u0000\u0000\u0000\u0000\u0000\u0000\u0000\u0000\u0000\u0000\u0000\u0000\u0000\u0000\u0000\u0000\u0000\u0000\u0000\u0000",
        "\u0000\u0000\u0000\u0000\u0000\u0000\u0000\u0000\u0000\u0000\u0000\u0000\u0000\u0000\u0000\u0000\u0000\u0000\u0000\u0000\u0000\u0000\u0000\u0000\u0000\u0000\u0000\u0000\u0000\u0000\u0000\u0000\u0000\u0000\u0000\u0000\u0000\u0000\u0000\u0000\u0000\u0000\u0000\u0000\u0000\u0000\u0000\u0000",
        "\u0000\u0000\u0000\u0000\u0000\u0000\u0000\u0000\u0000\u0000\u0000\u0000\u0000\u0000\u0000\u0000\u0000\u0000\u0000\u0000\u0000\u0000\u0000\u0000\u0000\u0000\u0000\u0000\u0000\u0000\u0000\u0000\u0000\u0000\u0000\u0000\u0000\u0000\u0000\u0000\u0000\u0000\u0000\u0000\u0000\u0000\u0000\u0000\u0000\u0000\u0000\u0000\u0000\u0000",
        "\u0000\u0000\u0000\u0000\u0000\u0000\u0000\u0000\u0000\u0000\u0000\u0000\u0000\u0000\u0000\u0000\u0000\u0000\u0000\u0000\u0000\u0000\u0000\u0000\u0000\u0000\u0000\u0000\u0000\u0000\u0000\u0000\u0000\u0000\u0000\u0000\u0000\u0000\u0000\u0000\u0000\u0000\u0000\u0000\u0000\u0000\u0000\u0000",
        "\u0000\u0000\u0000\u0000\u0000\u0000\u0000\u0000\u0000\u0000\u0000\u0000\u0000\u0000\u0000\u0000\u0000\u0000\u0000\u0000\u0000\u0000\u0000\u0000\u0000\u0000\u0000\u0000\u0000\u0000\u0000\u0000\u0000\u0000\u0000\u0000\u0000\u0000\u0000\u0000\u0000\u0000\u0000\u0000\u0000\u0000\u0000\u0000",
        "\u0000\u0000\u0000\u0000\u0000\u0000\u0000\u0000\u0000\u0000\u0000\u0000\u0000\u0000\u0000\u0000\u0000\u0000\u0000\u0000\u0000\u0000\u0000\u0000\u0000\u0000\u0000\u0000\u0000\u0000\u0000\u0000\u0000\u0000\u0000\u0000\u0000\u0000\u0000\u0000\u0000\u0000\u0000\u0000\u0000\u0000\u0000\u0000\u0000\u0000\u0000\u0000",
