{
  "AcquisitionMatrixPE": 104,
  "AcquisitionNumber": 1,
  "AcquisitionTime": "16:29:32.712500",
  "BandwidthPerPixelPhaseEncode": 13.935,
  "BaseResolution": 104,
  "CoilString": "C:HEA;HEP",
  "ConversionSoftware": "dcm2niix",
  "ConversionSoftwareVersion": "v1.0.20210317",
  "DerivedVendorReportedEchoSpacing": 0.000690017,
  "DeviceSerialNumber": "35450",
  "DwellTime": 2.5e-06,
  "EchoTime": 0.0348,
  "EffectiveEchoSpacing": 0.000690017,
  "FlipAngle": 55,
  "ImageComments": "Unaliased MB8/PE3",
  "ImageOrientationPatientDICOM": [0.999564, 0.00385405, 0.0292642, 7.41099e-08, 0.991439, -0.130573],
  "ImageType": [
    "ORIGINAL",
    "PRIMARY",
    "M",
    "MB",
    "ND",
    "MOSAIC"
],
  "ImagingFrequency": 123.235,
  "InPlanePhaseEncodingDirectionDICOM": "COL",
  "InstitutionAddress": "Univeristy Ave. 197,Newark,North East,US,07102-1814",
  "InstitutionName": "RUBIC",
  "InstitutionalDepartmentName": "Department",
  "MRAcquisitionType": "2D",
  "MagneticFieldStrength": 3,
  "Manufacturer": "Siemens",
  "ManufacturersModelName": "TrioTim",
  "Modality": "MR",
  "MultibandAccelerationFactor": 8,
  "PartialFourier": 0.875,
  "PatientPosition": "HFS",
  "PercentPhaseFOV": 100,
  "PercentSampling": 100,
  "PhaseEncodingDirection": "j-",
  "PhaseEncodingSteps": 91,
  "PhaseResolution": 1,
  "PixelBandwidth": 1923,
  "ProcedureStepDescription": "Cole^Michael",
  "ProtocolName": "cmrr_mbep2d_bold_2mm_MB8_Task_8x",
  "PulseSequenceDetails": "%CustomerSeq%\\cmrr_mbep2d_bold",
  "ReceiveCoilName": "32Ch_Head",
  "ReconMatrixPE": 104,
  "RepetitionTime": 0.785,
  "SAR": 0.148626,
  "ScanOptions": "PFP\\FS",
  "ScanningSequence": "EP",
  "SequenceName": "epfid2d1_104",
  "SequenceVariant": "SK\\SS",
  "SeriesDescription": "cmrr_mbep2d_bold_2mm_MB8_Task_8x",
  "SeriesNumber": 23,
  "ShimSetting": [2139, -349, -7311, 433, 34, -484, -67, 64],
  "SliceThickness": 2,
  "SliceTiming": [0, 0.4375, 0.0875, 0.525, 0.175, 0.6125, 0.2625, 0.7, 0.35, 0, 0.4375, 0.0875, 0.525, 0.175, 0.6125, 0.2625, 0.7, 0.35, 0, 0.4375, 0.0875, 0.525, 0.175, 0.6125, 0.2625, 0.7, 0.35, 0, 0.4375, 0.0875, 0.525, 0.175, 0.6125, 0.2625, 0.7, 0.35, 0, 0.4375, 0.0875, 0.525, 0.175, 0.6125, 0.2625, 0.7, 0.35, 0, 0.4375, 0.0875, 0.525, 0.175, 0.6125, 0.2625, 0.7, 0.35, 0, 0.4375, 0.0875, 0.525, 0.175, 0.6125, 0.2625, 0.7, 0.35, 0, 0.4375, 0.0875, 0.525, 0.175, 0.6125, 0.2625, 0.7, 0.35],
  "SoftwareVersions": "syngo MR B19",
  "SpacingBetweenSlices": 2,
  "StationName": "MRC35450",
  "TaskName": "cpro",
  "TotalReadoutTime": 0.0710717,
  "TxRefAmp": 345.06,
  "dcmmeta_affine": [
    [-1.9991285800933838, 1.4821971205947193e-07, 0.05903388559818268, 102.62969207763672],
    [-0.00770810479298234, 1.982877254486084, -0.26103290915489197, -71.79981231689453],
    [0.05852849408984184, 0.2611466944217682, 1.9820133447647095, -113.39724731445312],
    [0.0, 0.0, 0.0, 1.0]
],
  "dcmmeta_reorient_transform": [
    [0.0, -1.0, 0.0, 103.0],
    [1.0, 0.0, 0.0, 0.0],
    [0.0, 0.0, 1.0, 0.0],
    [0.0, 0.0, 0.0, 1.0]
],
  "dcmmeta_shape": [104, 104, 72, 581],
  "dcmmeta_slice_dim": 2,
  "dcmmeta_version": 0.6,
  "global": {
    "const": {
      "AcquisitionMatrix": [104, 0, 0, 104],
      "AngioFlag": "N",
      "BitsAllocated": 16,
      "BitsStored": 12,
      "Columns": 936,
      "EchoNumbers": 1,
      "EchoTime": 34.8,
      "EchoTrainLength": 1,
      "FlipAngle": 55.0,
      "HighBit": 11,
      "ImageOrientationPatient": [0.99956428014199, 0.00385405230319, 0.02926424687358, 7.4109859e-08, 0.99143865291043, -0.1305733415179],
      "ImagePositionPatient": [-934.2672490027, -960.52007948656, -2.2099733626441],
      "ImageType": [
        "ORIGINAL",
        "PRIMARY",
        "M",
        "MB",
        "ND",
        "MOSAIC"
],
      "ImagedNucleus": "1H",
      "ImagingFrequency": 123.234787,
      "InPlanePhaseEncodingDirection": "COL",
      "MRAcquisitionType": "2D",
      "MagneticFieldStrength": 3.0,
      "Manufacturer": "SIEMENS",
      "ManufacturerModelName": "TrioTim",
      "Modality": "MR",
      "NumberOfAverages": 1.0,
      "NumberOfPhaseEncodingSteps": 91,
      "PercentPhaseFieldOfView": 100.0,
      "PercentSampling": 100.0,
      "PerformedProcedureStepStartTime": "145202.046000",
      "PhotometricInterpretation": "MONOCHROME2",
      "PixelBandwidth": 1923.0,
      "PixelRepresentation": 0,
      "PixelSpacing": [2.0, 2.0],
      "ProtocolName": "cmrr_mbep2d_bold_2mm_MB8_Task_8x",
      "RepetitionTime": 785.0,
      "Rows": 936,
      "SAR": 0.14862648357304,
      "SamplesPerPixel": 1,
      "ScanOptions": [
        "PFP",
        "FS"
],
      "ScanningSequence": "EP",
      "SequenceName": "epfid2d1_104",
      "SequenceVariant": [
        "SK",
        "SS"
],
      "SeriesDescription": "cmrr_mbep2d_bold_2mm_MB8_Task_8x",
      "SeriesNumber": 23,
      "SeriesTime": "180403.625000",
      "SliceLocation": -99.977057344812,
      "SliceThickness": 2.0,
      "SmallestImagePixelValue": 0,
      "SoftwareVersions": "syngo MR B19",
      "SpacingBetweenSlices": 2.0000000549439,
      "SpecificCharacterSet": "ISO_IR 100",
      "StudyID": "1",
      "StudyTime": "145201.984000",
      "TransmitCoilName": "Body",
      "VariableFlipAngleFlag": "N",
      "WindowCenterWidthExplanation": "Algo1",
      "dBdt": 0.0},
    "slices": {}
  },
  "time": {
    "samples": {
      "AcquisitionNumber": [1, 2, 3, 4, 5, 6, 7, 8, 9, 10, 11, 12, 13, 14, 15, 16, 17, 18, 19, 20, 21, 22, 23, 24, 25, 26, 27, 28, 29, 30, 31, 32, 33, 34, 35, 36, 37, 38, 39, 40, 41, 42, 43, 44, 45, 46, 47, 48, 49, 50, 51, 52, 53, 54, 55, 56, 57, 58, 59, 60, 61, 62, 63, 64, 65, 66, 67, 68, 69, 70, 71, 72, 73, 74, 75, 76, 77, 78, 79, 80, 81, 82, 83, 84, 85, 86, 87, 88, 89, 90, 91, 92, 93, 94, 95, 96, 97, 98, 99, 100, 101, 102, 103, 104, 105, 106, 107, 108, 109, 110, 111, 112, 113, 114, 115, 116, 117, 118, 119, 120, 121, 122, 123, 124, 125, 126, 127, 128, 129, 130, 131, 132, 133, 134, 135, 136, 137, 138, 139, 140, 141, 142, 143, 144, 145, 146, 147, 148, 149, 150, 151, 152, 153, 154, 155, 156, 157, 158, 159, 160, 161, 162, 163, 164, 165, 166, 167, 168, 169, 170, 171, 172, 173, 174, 175, 176, 177, 178, 179, 180, 181, 182, 183, 184, 185, 186, 187, 188, 189, 190, 191, 192, 193, 194, 195, 196, 197, 198, 199, 200, 201, 202, 203, 204, 205, 206, 207, 208, 209, 210, 211, 212, 213, 214, 215, 216, 217, 218, 219, 220, 221, 222, 223, 224, 225, 226, 227, 228, 229, 230, 231, 232, 233, 234, 235, 236, 237, 238, 239, 240, 241, 242, 243, 244, 245, 246, 247, 248, 249, 250, 251, 252, 253, 254, 255, 256, 257, 258, 259, 260, 261, 262, 263, 264, 265, 266, 267, 268, 269, 270, 271, 272, 273, 274, 275, 276, 277, 278, 279, 280, 281, 282, 283, 284, 285, 286, 287, 288, 289, 290, 291, 292, 293, 294, 295, 296, 297, 298, 299, 300, 301, 302, 303, 304, 305, 306, 307, 308, 309, 310, 311, 312, 313, 314, 315, 316, 317, 318, 319, 320, 321, 322, 323, 324, 325, 326, 327, 328, 329, 330, 331, 332, 333, 334, 335, 336, 337, 338, 339, 340, 341, 342, 343, 344, 345, 346, 347, 348, 349, 350, 351, 352, 353, 354, 355, 356, 357, 358, 359, 360, 361, 362, 363, 364, 365, 366, 367, 368, 369, 370, 371, 372, 373, 374, 375, 376, 377, 378, 379, 380, 381, 382, 383, 384, 385, 386, 387, 388, 389, 390, 391, 392, 393, 394, 395, 396, 397, 398, 399, 400, 401, 402, 403, 404, 405, 406, 407, 408, 409, 410, 411, 412, 413, 414, 415, 416, 417, 418, 419, 420, 421, 422, 423, 424, 425, 426, 427, 428, 429, 430, 431, 432, 433, 434, 435, 436, 437, 438, 439, 440, 441, 442, 443, 444, 445, 446, 447, 448, 449, 450, 451, 452, 453, 454, 455, 456, 457, 458, 459, 460, 461, 462, 463, 464, 465, 466, 467, 468, 469, 470, 471, 472, 473, 474, 475, 476, 477, 478, 479, 480, 481, 482, 483, 484, 485, 486, 487, 488, 489, 490, 491, 492, 493, 494, 495, 496, 497, 498, 499, 500, 501, 502, 503, 504, 505, 506, 507, 508, 509, 510, 511, 512, 513, 514, 515, 516, 517, 518, 519, 520, 521, 522, 523, 524, 525, 526, 527, 528, 529, 530, 531, 532, 533, 534, 535, 536, 537, 538, 539, 540, 541, 542, 543, 544, 545, 546, 547, 548, 549, 550, 551, 552, 553, 554, 555, 556, 557, 558, 559, 560, 561, 562, 563, 564, 565, 566, 567, 568, 569, 570, 571, 572, 573, 574, 575, 576, 577, 578, 579, 580, 581],
      "AcquisitionTime": ["162932.712500", "162933.500000", "162934.290000", "162935.077500", "162935.865000", "162936.652500", "162937.442500", "162938.230000", "162939.017500", "162939.807500", "162940.595000", "162941.382500", "162942.170000", "162942.960000", "162943.747500", "162944.535000", "162945.322500", "162946.112500", "162946.900000", "162947.687500", "162948.475000", "162949.265000", "162950.052500", "162950.840000", "162951.627500", "162952.417500", "162953.205000", "162953.992500", "162954.780000", "162955.570000", "162956.357500", "162957.145000", "162957.935000", "162958.722500", "162959.510000", "163000.297500", "163001.087500", "163001.875000", "163002.662500", "163003.450000", "163004.240000", "163005.027500", "163005.815000", "163006.602500", "163007.392500", "163008.180000", "163008.967500", "163009.755000", "163010.545000", "163011.332500", "163012.120000", "163012.907500", "163013.697500", "163014.485000", "163015.272500", "163016.062500", "163016.850000", "163017.637500", "163018.425000", "163019.215000", "163020.002500", "163020.790000", "163021.577500", "163022.367500", "163023.155000", "163023.942500", "163024.730000", "163025.520000", "163026.307500", "163027.095000", "163027.882500", "163028.672500", "163029.460000", "163030.247500", "163031.035000", "163031.825000", "163032.612500", "163033.400000", "163034.190000", "163034.977500", "163035.765000", "163036.552500", "163037.342500", "163038.130000", "163038.917500", "163039.705000", "163040.495000", "163041.282500", "163042.070000", "163042.857500", "163043.647500", "163044.435000", "163045.222500", "163046.010000", "163046.800000", "163047.587500", "163048.375000", "163049.162500", "163049.952500", "163050.740000", "163051.527500", "163052.317500", "163053.105000", "163053.892500", "163054.680000", "163055.470000", "163056.257500", "163057.045000", "163057.832500", "163058.622500", "163059.410000", "163100.197500", "163100.985000", "163101.775000", "163102.562500", "163103.350000", "163104.137500", "163104.927500", "163105.715000", "163106.502500", "163107.290000", "163108.080000", "163108.867500", "163109.655000", "163110.445000", "163111.232500", "163112.020000", "163112.807500", "163113.597500", "163114.385000", "163115.172500", "163115.960000", "163116.750000", "163117.537500", "163118.325000", "163119.112500", "163119.902500", "163120.690000", "163121.477500", "163122.265000", "163123.055000", "163123.842500", "163124.630000", "163125.417500", "163126.207500", "163126.995000", "163127.782500", "163128.572500", "163129.360000", "163130.147500", "163130.935000", "163131.725000", "163132.512500", "163133.300000", "163134.087500", "163134.877500", "163135.665000", "163136.452500", "163137.240000", "163138.030000", "163138.817500", "163139.605000", "163140.392500", "163141.182500", "163141.970000", "163142.757500", "163143.545000", "163144.335000", "163145.122500", "163145.910000", "163146.700000", "163147.487500", "163148.275000", "163149.062500", "163149.852500", "163150.640000", "163151.427500", "163152.215000", "163153.005000", "163153.792500", "163154.580000", "163155.367500", "163156.157500", "163156.945000", "163157.732500", "163158.520000", "163159.310000", "163200.097500", "163200.885000", "163201.672500", "163202.462500", "163203.250000", "163204.037500", "163204.827500", "163205.615000", "163206.402500", "163207.190000", "163207.980000", "163208.767500", "163209.555000", "163210.342500", "163211.132500", "163211.920000", "163212.707500", "163213.495000", "163214.285000", "163215.072500", "163215.860000", "163216.647500", "163217.437500", "163218.225000", "163219.012500", "163219.800000", "163220.590000", "163221.377500", "163222.165000", "163222.955000", "163223.742500", "163224.530000", "163225.317500", "163226.107500", "163226.895000", "163227.682500", "163228.470000", "163229.260000", "163230.047500", "163230.835000", "163231.622500", "163232.412500", "163233.200000", "163233.987500", "163234.775000", "163235.565000", "163236.352500", "163237.140000", "163237.927500", "163238.717500", "163239.505000", "163240.292500", "163241.082500", "163241.870000", "163242.657500", "163243.445000", "163244.235000", "163245.022500", "163245.810000", "163246.597500", "163247.387500", "163248.175000", "163248.962500", "163249.750000", "163250.540000", "163251.327500", "163252.115000", "163252.902500", "163253.692500", "163254.480000", "163255.267500", "163256.057500", "163256.845000", "163257.632500", "163258.420000", "163259.210000", "163259.997500", "163300.785000", "163301.572500", "163302.362500", "163303.150000", "163303.937500", "163304.725000", "163305.515000", "163306.302500", "163307.090000", "163307.877500", "163308.667500", "163309.455000", "163310.242500", "163311.030000", "163311.820000", "163312.607500", "163313.395000", "163314.185000", "163314.972500", "163315.760000", "163316.547500", "163317.337500", "163318.125000", "163318.912500", "163319.700000", "163320.490000", "163321.277500", "163322.065000", "163322.852500", "163323.642500", "163324.430000", "163325.217500", "163326.005000", "163326.795000", "163327.582500", "163328.370000", "163329.157500", "163329.947500", "163330.735000", "163331.522500", "163332.312500", "163333.100000", "163333.887500", "163334.675000", "163335.465000", "163336.252500", "163337.040000", "163337.827500", "163338.617500", "163339.405000", "163340.192500", "163340.980000", "163341.770000", "163342.557500", "163343.345000", "163344.132500", "163344.922500", "163345.710000", "163346.497500", "163347.285000", "163348.075000", "163348.862500", "163349.650000", "163350.440000", "163351.227500", "163352.015000", "163352.802500", "163353.592500", "163354.380000", "163355.167500", "163355.955000", "163356.745000", "163357.532500", "163358.320000", "163359.107500", "163359.897500", "163400.685000", "163401.472500", "163402.260000", "163403.050000", "163403.837500", "163404.625000", "163405.412500", "163406.202500", "163406.990000", "163407.777500", "163408.567500", "163409.355000", "163410.142500", "163410.930000", "163411.720000", "163412.507500", "163413.295000", "163414.082500", "163414.872500", "163415.660000", "163416.447500", "163417.235000", "163418.025000", "163418.812500", "163419.600000", "163420.387500", "163421.177500", "163421.965000", "163422.752500", "163423.540000", "163424.330000", "163425.117500", "163425.905000", "163426.695000", "163427.482500", "163428.270000", "163429.057500", "163429.847500", "163430.635000", "163431.422500", "163432.210000", "163433.000000", "163433.787500", "163434.575000", "163435.362500", "163436.152500", "163436.940000", "163437.727500", "163438.515000", "163439.305000", "163440.092500", "163440.880000", "163441.667500", "163442.457500", "163443.245000", "163444.032500", "163444.822500", "163445.610000", "163446.397500", "163447.185000", "163447.975000", "163448.762500", "163449.550000", "163450.337500", "163451.127500", "163451.915000", "163452.702500", "163453.490000", "163454.280000", "163455.067500", "163455.855000", "163456.642500", "163457.432500", "163458.220000", "163459.007500", "163459.795000", "163500.585000", "163501.372500", "163502.160000", "163502.950000", "163503.737500", "163504.525000", "163505.312500", "163506.102500", "163506.890000", "163507.677500", "163508.465000", "163509.255000", "163510.042500", "163510.830000", "163511.617500", "163512.407500", "163513.195000", "163513.982500", "163514.770000", "163515.560000", "163516.347500", "163517.135000", "163517.922500", "163518.712500", "163519.500000", "163520.287500", "163521.077500", "163521.865000", "163522.652500", "163523.440000", "163524.230000", "163525.017500", "163525.805000", "163526.592500", "163527.382500", "163528.170000", "163528.957500", "163529.745000", "163530.535000", "163531.322500", "163532.110000", "163532.897500", "163533.687500", "163534.475000", "163535.262500", "163536.050000", "163536.840000", "163537.627500", "163538.415000", "163539.205000", "163539.992500", "163540.780000", "163541.567500", "163542.357500", "163543.145000", "163543.932500", "163544.720000", "163545.510000", "163546.297500", "163547.085000", "163547.872500", "163548.662500", "163549.450000", "163550.237500", "163551.025000", "163551.815000", "163552.602500", "163553.390000", "163554.177500", "163554.967500", "163555.755000", "163556.542500", "163557.332500", "163558.120000", "163558.907500", "163559.695000", "163600.485000", "163601.272500", "163602.060000", "163602.847500", "163603.637500", "163604.425000", "163605.212500", "163606.000000", "163606.790000", "163607.577500", "163608.365000", "163609.152500", "163609.942500", "163610.730000", "163611.517500", "163612.307500", "163613.095000", "163613.882500", "163614.670000", "163615.460000", "163616.247500", "163617.035000", "163617.822500", "163618.612500", "163619.400000", "163620.187500", "163620.975000", "163621.765000", "163622.552500", "163623.340000", "163624.127500", "163624.917500", "163625.705000", "163626.492500", "163627.280000", "163628.070000", "163628.857500", "163629.645000", "163630.435000", "163631.222500", "163632.010000", "163632.797500", "163633.587500", "163634.375000", "163635.162500", "163635.950000", "163636.740000", "163637.527500", "163638.315000", "163639.102500", "163639.892500", "163640.680000", "163641.467500", "163642.255000", "163643.045000", "163643.832500", "163644.620000", "163645.407500", "163646.197500", "163646.985000", "163647.772500", "163648.562500", "163649.350000", "163650.137500", "163650.925000", "163651.715000", "163652.502500", "163653.290000", "163654.077500", "163654.867500", "163655.655000", "163656.442500", "163657.230000", "163658.020000", "163658.807500", "163659.595000", "163700.382500", "163701.172500", "163701.960000", "163702.747500", "163703.535000", "163704.325000", "163705.112500", "163705.900000", "163706.690000", "163707.477500", "163708.265000", "163709.052500", "163709.842500"],
      "ContentTime": ["180403.625000", "180403.625000", "180403.640000", "180403.640000", "180403.640000", "180503.609000", "180503.609000", "180503.609000", "180503.609000", "180503.609000", "180503.625000", "180503.625000", "180503.625000", "180503.625000", "180503.625000", "180503.625000", "180503.625000", "180503.640000", "180503.640000", "180503.640000", "180503.640000", "180503.640000", "180503.640000", "180503.640000", "180503.656000", "180503.656000", "180503.656000", "180503.656000", "180503.656000", "180503.656000", "180503.656000", "180503.656000", "180503.671000", "180603.609000", "180603.609000", "180603.609000", "180603.609000", "180603.609000", "180603.625000", "180603.625000", "180603.625000", "180603.625000", "180603.625000", "180603.625000", "180603.625000", "180603.640000", "180603.640000", "180603.640000", "180603.640000", "180603.640000", "180603.640000", "180603.640000", "180603.656000", "180603.656000", "180603.656000", "180603.656000", "180603.656000", "180603.656000", "180603.656000", "180603.671000", "180603.671000", "180703.609000", "180703.609000", "180703.609000", "180703.609000", "180703.609000", "180703.625000", "180703.625000", "180703.625000", "180703.625000", "180703.625000", "180703.625000", "180703.625000", "180703.640000", "180703.640000", "180703.640000", "180703.640000", "180703.640000", "180703.640000", "180703.640000", "180703.656000", "180703.656000", "180703.656000", "180703.656000", "180703.656000", "180703.656000", "180703.656000", "180703.671000", "180703.671000", "180803.609000", "180803.609000", "180803.609000", "180803.609000", "180803.609000", "180803.625000", "180803.625000", "180803.625000", "180803.625000", "180803.625000", "180803.625000", "180803.625000", "180803.640000", "180803.640000", "180803.640000", "180803.640000", "180803.640000", "180803.640000", "180803.640000", "180803.656000", "180803.656000", "180803.656000", "180803.656000", "180803.656000", "180803.671000", "180803.671000", "180803.671000", "180803.671000", "180803.671000", "180903.609000", "180903.609000", "180903.609000", "180903.609000", "180903.609000", "180903.625000", "180903.625000", "180903.625000", "180903.625000", "180903.625000", "180903.625000", "180903.625000", "180903.640000", "180903.640000", "180903.640000", "180903.640000", "180903.640000", "180903.640000", "180903.640000", "180903.656000", "180903.656000", "180903.656000", "180903.656000", "180903.656000", "180903.656000", "180903.656000", "180903.671000", "180903.671000", "180943.609000", "180943.609000", "180943.609000", "180943.609000", "180943.609000", "180943.625000", "180943.625000", "180943.625000", "180943.625000", "180943.625000", "180943.625000", "180943.625000", "180943.640000", "180943.640000", "180943.640000", "180943.640000", "180943.640000", "180943.640000", "180943.640000", "181043.609000", "181043.609000", "181043.609000", "181043.609000", "181043.609000", "181043.625000", "181043.625000", "181043.625000", "181043.625000", "181043.625000", "181043.625000", "181043.625000", "181043.640000", "181043.640000", "181043.640000", "181043.640000", "181043.640000", "181043.640000", "181043.640000", "181043.656000", "181043.656000", "181043.656000", "181043.656000", "181043.656000", "181043.656000", "181043.656000", "181043.671000", "181043.671000", "181143.609000", "181143.609000", "181143.609000", "181143.609000", "181143.609000", "181143.625000", "181143.625000", "181143.625000", "181143.625000", "181143.625000", "181143.625000", "181143.640000", "181143.640000", "181143.640000", "181143.640000", "181143.640000", "181143.640000", "181143.640000", "181143.656000", "181143.656000", "181143.656000", "181143.656000", "181143.656000", "181143.656000", "181143.656000", "181143.656000", "181143.671000", "181143.671000", "181243.609000", "181243.609000", "181243.609000", "181243.609000", "181243.609000", "181243.625000", "181243.625000", "181243.625000", "181243.625000", "181243.625000", "181243.625000", "181243.625000", "181243.640000", "181243.640000", "181243.640000", "181243.640000", "181243.640000", "181243.640000", "181243.640000", "181243.656000", "181243.656000", "181243.656000", "181243.656000", "181243.656000", "181243.656000", "181243.656000", "181243.671000", "181243.671000", "181343.609000", "181343.609000", "181343.609000", "181343.609000", "181343.609000", "181343.625000", "181343.625000", "181343.625000", "181343.625000", "181343.625000", "181343.625000", "181343.625000", "181343.640000", "181343.640000", "181343.640000", "181343.640000", "181343.640000", "181343.640000", "181343.640000", "181343.656000", "181343.656000", "181343.656000", "181343.656000", "181343.656000", "181343.656000", "181343.656000", "181343.671000", "181343.671000", "181443.609000", "181443.609000", "181443.609000", "181443.609000", "181443.609000", "181443.625000", "181443.625000", "181443.625000", "181443.625000", "181443.625000", "181443.625000", "181443.625000", "181443.640000", "181443.640000", "181443.640000", "181443.640000", "181443.640000", "181443.640000", "181443.640000", "181443.656000", "181443.656000", "181443.656000", "181443.656000", "181443.656000", "181443.656000", "181443.656000", "181443.671000", "181443.671000", "181443.671000", "181543.609000", "181543.609000", "181543.609000", "181543.609000", "181543.609000", "181543.625000", "181543.625000", "181543.625000", "181543.625000", "181543.625000", "181543.625000", "181543.625000", "181543.640000", "181543.640000", "181543.640000", "181543.640000", "181543.640000", "181543.640000", "181543.640000", "181543.656000", "181543.656000", "181543.656000", "181543.656000", "181543.656000", "181543.656000", "181543.656000", "181543.671000", "181543.671000", "181643.609000", "181643.609000", "181643.609000", "181643.609000", "181643.609000", "181643.625000", "181643.625000", "181643.625000", "181643.625000", "181643.625000", "181643.625000", "181643.625000", "181643.640000", "181643.640000", "181643.640000", "181643.640000", "181643.640000", "181643.640000", "181643.640000", "181643.656000", "181643.656000", "181643.656000", "181643.656000", "181643.656000", "181643.656000", "181643.656000", "181643.671000", "181643.671000", "181743.609000", "181743.609000", "181743.609000", "181743.609000", "181743.609000", "181743.625000", "181743.625000", "181743.625000", "181743.625000", "181743.625000", "181743.625000", "181743.625000", "181743.640000", "181743.640000", "181743.640000", "181743.640000", "181743.640000", "181743.640000", "181743.640000", "181743.656000", "181743.656000", "181743.656000", "181743.656000", "181743.656000", "181743.656000", "181743.656000", "181743.671000", "181743.671000", "181843.609000", "181843.609000", "181843.609000", "181843.609000", "181843.609000", "181843.625000", "181843.625000", "181843.625000", "181843.625000", "181843.625000", "181843.625000", "181843.625000", "181843.640000", "181843.640000", "181843.640000", "181843.640000", "181843.640000", "181843.640000", "181843.640000", "181843.656000", "181843.656000", "181843.656000", "181843.656000", "181843.656000", "181843.656000", "181843.671000", "181843.671000", "181843.671000", "181923.609000", "181923.609000", "181923.609000", "181923.609000", "181923.609000", "181923.625000", "181923.625000", "181923.625000", "181923.625000", "181923.625000", "181923.625000", "181923.625000", "181923.640000", "181923.640000", "181923.640000", "181923.640000", "181923.640000", "181923.640000", "181923.640000", "182023.609000", "182023.609000", "182023.609000", "182023.609000", "182023.609000", "182023.625000", "182023.625000", "182023.625000", "182023.625000", "182023.640000", "182023.640000", "182023.640000", "182023.640000", "182023.640000", "182023.640000", "182023.640000", "182023.656000", "182023.656000", "182023.656000", "182023.656000", "182023.656000", "182023.656000", "182023.656000", "182023.671000", "182023.671000", "182023.671000", "182023.671000", "182023.671000", "182123.609000", "182123.609000", "182123.609000", "182123.609000", "182123.609000", "182123.625000", "182123.625000", "182123.625000", "182123.625000", "182123.625000", "182123.625000", "182123.625000", "182123.640000", "182123.640000", "182123.640000", "182123.640000", "182123.640000", "182123.640000", "182123.640000", "182123.656000", "182123.656000", "182123.656000", "182123.656000", "182123.656000", "182123.656000", "182123.656000", "182123.671000", "182123.671000", "182123.671000", "182223.609000", "182223.609000", "182223.609000", "182223.609000", "182223.609000", "182223.625000", "182223.625000", "182223.625000", "182223.625000", "182223.625000", "182223.625000", "182223.625000", "182223.640000", "182223.640000", "182223.640000", "182223.640000", "182223.640000", "182223.640000", "182223.640000", "182223.656000", "182223.656000", "182223.656000", "182223.656000", "182223.656000", "182223.656000", "182223.656000", "182223.671000", "182223.671000", "182323.609000", "182323.609000", "182323.609000", "182323.609000", "182323.609000", "182323.625000", "182323.625000", "182323.625000", "182323.625000", "182323.625000", "182323.625000", "182323.625000", "182323.640000", "182323.640000", "182323.640000", "182323.640000", "182323.640000", "182323.640000", "182323.640000", "182323.656000", "182323.656000", "182323.656000", "182323.656000", "182323.656000", "182323.656000", "182323.656000", "182323.671000", "182323.671000", "182423.609000", "182423.609000", "182423.609000", "182423.609000", "182423.609000", "182423.625000", "182423.625000", "182423.625000", "182423.625000", "182423.625000", "182423.625000", "182423.625000", "182423.640000", "182423.640000", "182423.640000", "182423.640000", "182423.640000", "182423.640000", "182423.640000", "182423.656000", "182423.656000", "182423.656000", "182423.656000", "182423.656000", "182423.656000", "182423.656000", "182423.671000", "182423.671000", "182428.343000", "182428.343000", "182428.343000"],
      "DataSetTrailingPadding": [
        "\u0000\u0000\u0000\u0000\u0000\u0000\u0000\u0000\u0000\u0000\u0000\u0000\u0000\u0000\u0000\u0000\u0000\u0000\u0000\u0000\u0000\u0000\u0000\u0000\u0000\u0000\u0000\u0000\u0000\u0000\u0000\u0000\u0000\u0000\u0000\u0000\u0000\u0000\u0000\u0000\u0000\u0000\u0000\u0000\u0000\u0000\u0000\u0000\u0000\u0000",
        "\u0000\u0000\u0000\u0000\u0000\u0000\u0000\u0000\u0000\u0000\u0000\u0000\u0000\u0000\u0000\u0000\u0000\u0000\u0000\u0000\u0000\u0000\u0000\u0000\u0000\u0000\u0000\u0000\u0000\u0000\u0000\u0000\u0000\u0000\u0000\u0000\u0000\u0000\u0000\u0000\u0000\u0000\u0000\u0000\u0000\u0000\u0000\u0000\u0000\u0000",
        "\u0000\u0000\u0000\u0000\u0000\u0000\u0000\u0000\u0000\u0000\u0000\u0000\u0000\u0000\u0000\u0000\u0000\u0000\u0000\u0000\u0000\u0000\u0000\u0000\u0000\u0000\u0000\u0000\u0000\u0000\u0000\u0000\u0000\u0000\u0000\u0000\u0000\u0000\u0000\u0000\u0000\u0000\u0000\u0000\u0000\u0000\u0000\u0000\u0000\u0000",
        "\u0000\u0000\u0000\u0000\u0000\u0000\u0000\u0000\u0000\u0000\u0000\u0000\u0000\u0000\u0000\u0000\u0000\u0000\u0000\u0000\u0000\u0000\u0000\u0000\u0000\u0000\u0000\u0000\u0000\u0000\u0000\u0000\u0000\u0000\u0000\u0000\u0000\u0000\u0000\u0000\u0000\u0000\u0000\u0000\u0000\u0000\u0000\u0000",
        "\u0000\u0000\u0000\u0000\u0000\u0000\u0000\u0000\u0000\u0000\u0000\u0000\u0000\u0000\u0000\u0000\u0000\u0000\u0000\u0000\u0000\u0000\u0000\u0000\u0000\u0000\u0000\u0000\u0000\u0000\u0000\u0000\u0000\u0000\u0000\u0000\u0000\u0000\u0000\u0000\u0000\u0000\u0000\u0000\u0000\u0000\u0000\u0000\u0000\u0000",
        "\u0000\u0000\u0000\u0000\u0000\u0000\u0000\u0000\u0000\u0000\u0000\u0000\u0000\u0000\u0000\u0000\u0000\u0000\u0000\u0000\u0000\u0000\u0000\u0000\u0000\u0000\u0000\u0000\u0000\u0000\u0000\u0000\u0000\u0000\u0000\u0000\u0000\u0000\u0000\u0000\u0000\u0000\u0000\u0000\u0000\u0000\u0000\u0000",
