{
  "AcquisitionMatrixPE": 104,
  "AcquisitionNumber": 1,
  "AcquisitionTime": "16:05:6.710000",
  "BandwidthPerPixelPhaseEncode": 13.935,
  "BaseResolution": 104,
  "CoilString": "C:HEA;HEP",
  "ConversionSoftware": "dcm2niix",
  "ConversionSoftwareVersion": "v1.0.20210317",
  "DerivedVendorReportedEchoSpacing": 0.000690017,
  "DeviceSerialNumber": "35450",
  "DwellTime": 2.5e-06,
  "EchoTime": 0.0348,
  "EffectiveEchoSpacing": 0.000690017,
  "FlipAngle": 55,
  "ImageComments": "Unaliased MB8/PE3",
  "ImageOrientationPatientDICOM": [0.999564, 0.00385405, 0.0292642, 7.41099e-08, 0.991439, -0.130573],
  "ImageType": [
    "ORIGINAL",
    "PRIMARY",
    "M",
    "MB",
    "ND",
    "MOSAIC"
],
  "ImagingFrequency": 123.235,
  "InPlanePhaseEncodingDirectionDICOM": "COL",
  "InstitutionAddress": "Univeristy Ave. 197,Newark,North East,US,07102-1814",
  "InstitutionName": "RUBIC",
  "InstitutionalDepartmentName": "Department",
  "MRAcquisitionType": "2D",
  "MagneticFieldStrength": 3,
  "Manufacturer": "Siemens",
  "ManufacturersModelName": "TrioTim",
  "Modality": "MR",
  "MultibandAccelerationFactor": 8,
  "PartialFourier": 0.875,
  "PatientPosition": "HFS",
  "PercentPhaseFOV": 100,
  "PercentSampling": 100,
  "PhaseEncodingDirection": "j-",
  "PhaseEncodingSteps": 91,
  "PhaseResolution": 1,
  "PixelBandwidth": 1923,
  "ProcedureStepDescription": "Cole^Michael",
  "ProtocolName": "cmrr_mbep2d_bold_2mm_MB8_Task_8x",
  "PulseSequenceDetails": "%CustomerSeq%\\cmrr_mbep2d_bold",
  "ReceiveCoilName": "32Ch_Head",
  "ReconMatrixPE": 104,
  "RepetitionTime": 0.785,
  "SAR": 0.148626,
  "ScanOptions": "PFP\\FS",
  "ScanningSequence": "EP",
  "SequenceName": "epfid2d1_104",
  "SequenceVariant": "SK\\SS",
  "SeriesDescription": "cmrr_mbep2d_bold_2mm_MB8_Task_8x",
  "SeriesNumber": 17,
  "ShimSetting": [2139, -349, -7311, 433, 34, -484, -67, 64],
  "SliceThickness": 2,
  "SliceTiming": [0, 0.4375, 0.0875, 0.525, 0.175, 0.6125, 0.2625, 0.7, 0.35, 0, 0.4375, 0.0875, 0.525, 0.175, 0.6125, 0.2625, 0.7, 0.35, 0, 0.4375, 0.0875, 0.525, 0.175, 0.6125, 0.2625, 0.7, 0.35, 0, 0.4375, 0.0875, 0.525, 0.175, 0.6125, 0.2625, 0.7, 0.35, 0, 0.4375, 0.0875, 0.525, 0.175, 0.6125, 0.2625, 0.7, 0.35, 0, 0.4375, 0.0875, 0.525, 0.175, 0.6125, 0.2625, 0.7, 0.35, 0, 0.4375, 0.0875, 0.525, 0.175, 0.6125, 0.2625, 0.7, 0.35, 0, 0.4375, 0.0875, 0.525, 0.175, 0.6125, 0.2625, 0.7, 0.35],
  "SoftwareVersions": "syngo MR B19",
  "SpacingBetweenSlices": 2,
  "StationName": "MRC35450",
  "TaskName": "cpro",
  "TotalReadoutTime": 0.0710717,
  "TxRefAmp": 345.06,
  "dcmmeta_affine": [
    [-1.9991285800933838, 1.4821971205947193e-07, 0.05903388559818268, 102.62969207763672],
    [-0.00770810479298234, 1.982877254486084, -0.26103290915489197, -71.79981231689453],
    [0.05852849408984184, 0.2611466944217682, 1.9820133447647095, -113.39724731445312],
    [0.0, 0.0, 0.0, 1.0]
],
  "dcmmeta_reorient_transform": [
    [0.0, -1.0, 0.0, 103.0],
    [1.0, 0.0, 0.0, 0.0],
    [0.0, 0.0, 1.0, 0.0],
    [0.0, 0.0, 0.0, 1.0]
],
  "dcmmeta_shape": [104, 104, 72, 581],
  "dcmmeta_slice_dim": 2,
  "dcmmeta_version": 0.6,
  "global": {
    "const": {
      "AcquisitionMatrix": [104, 0, 0, 104],
      "AngioFlag": "N",
      "BitsAllocated": 16,
      "BitsStored": 12,
      "Columns": 936,
      "EchoNumbers": 1,
      "EchoTime": 34.8,
      "EchoTrainLength": 1,
      "FlipAngle": 55.0,
      "HighBit": 11,
      "ImageOrientationPatient": [0.99956428014199, 0.00385405230319, 0.02926424687358, 7.4109859e-08, 0.99143865291043, -0.1305733415179],
      "ImagePositionPatient": [-934.2672490027, -960.52007948656, -2.2099733626441],
      "ImageType": [
        "ORIGINAL",
        "PRIMARY",
        "M",
        "MB",
        "ND",
        "MOSAIC"
],
      "ImagedNucleus": "1H",
      "ImagingFrequency": 123.234787,
      "InPlanePhaseEncodingDirection": "COL",
      "MRAcquisitionType": "2D",
      "MagneticFieldStrength": 3.0,
      "Manufacturer": "SIEMENS",
      "ManufacturerModelName": "TrioTim",
      "Modality": "MR",
      "NumberOfAverages": 1.0,
      "NumberOfPhaseEncodingSteps": 91,
      "PercentPhaseFieldOfView": 100.0,
      "PercentSampling": 100.0,
      "PerformedProcedureStepStartTime": "145202.046000",
      "PhotometricInterpretation": "MONOCHROME2",
      "PixelBandwidth": 1923.0,
      "PixelRepresentation": 0,
      "PixelSpacing": [2.0, 2.0],
      "ProtocolName": "cmrr_mbep2d_bold_2mm_MB8_Task_8x",
      "RepetitionTime": 785.0,
      "Rows": 936,
      "SAR": 0.14862648357304,
      "SamplesPerPixel": 1,
      "ScanOptions": [
        "PFP",
        "FS"
],
      "ScanningSequence": "EP",
      "SequenceName": "epfid2d1_104",
      "SequenceVariant": [
        "SK",
        "SS"
],
      "SeriesDescription": "cmrr_mbep2d_bold_2mm_MB8_Task_8x",
      "SeriesNumber": 17,
      "SeriesTime": "170124.359000",
      "SliceLocation": -99.977057344812,
      "SliceThickness": 2.0,
      "SmallestImagePixelValue": 0,
      "SoftwareVersions": "syngo MR B19",
      "SpacingBetweenSlices": 2.0000000549439,
      "SpecificCharacterSet": "ISO_IR 100",
      "StudyID": "1",
      "StudyTime": "145201.984000",
      "TransmitCoilName": "Body",
      "VariableFlipAngleFlag": "N",
      "WindowCenterWidthExplanation": "Algo1",
      "dBdt": 0.0},
    "slices": {}
  },
  "time": {
    "samples": {
      "AcquisitionNumber": [1, 2, 3, 4, 5, 6, 7, 8, 9, 10, 11, 12, 13, 14, 15, 16, 17, 18, 19, 20, 21, 22, 23, 24, 25, 26, 27, 28, 29, 30, 31, 32, 33, 34, 35, 36, 37, 38, 39, 40, 41, 42, 43, 44, 45, 46, 47, 48, 49, 50, 51, 52, 53, 54, 55, 56, 57, 58, 59, 60, 61, 62, 63, 64, 65, 66, 67, 68, 69, 70, 71, 72, 73, 74, 75, 76, 77, 78, 79, 80, 81, 82, 83, 84, 85, 86, 87, 88, 89, 90, 91, 92, 93, 94, 95, 96, 97, 98, 99, 100, 101, 102, 103, 104, 105, 106, 107, 108, 109, 110, 111, 112, 113, 114, 115, 116, 117, 118, 119, 120, 121, 122, 123, 124, 125, 126, 127, 128, 129, 130, 131, 132, 133, 134, 135, 136, 137, 138, 139, 140, 141, 142, 143, 144, 145, 146, 147, 148, 149, 150, 151, 152, 153, 154, 155, 156, 157, 158, 159, 160, 161, 162, 163, 164, 165, 166, 167, 168, 169, 170, 171, 172, 173, 174, 175, 176, 177, 178, 179, 180, 181, 182, 183, 184, 185, 186, 187, 188, 189, 190, 191, 192, 193, 194, 195, 196, 197, 198, 199, 200, 201, 202, 203, 204, 205, 206, 207, 208, 209, 210, 211, 212, 213, 214, 215, 216, 217, 218, 219, 220, 221, 222, 223, 224, 225, 226, 227, 228, 229, 230, 231, 232, 233, 234, 235, 236, 237, 238, 239, 240, 241, 242, 243, 244, 245, 246, 247, 248, 249, 250, 251, 252, 253, 254, 255, 256, 257, 258, 259, 260, 261, 262, 263, 264, 265, 266, 267, 268, 269, 270, 271, 272, 273, 274, 275, 276, 277, 278, 279, 280, 281, 282, 283, 284, 285, 286, 287, 288, 289, 290, 291, 292, 293, 294, 295, 296, 297, 298, 299, 300, 301, 302, 303, 304, 305, 306, 307, 308, 309, 310, 311, 312, 313, 314, 315, 316, 317, 318, 319, 320, 321, 322, 323, 324, 325, 326, 327, 328, 329, 330, 331, 332, 333, 334, 335, 336, 337, 338, 339, 340, 341, 342, 343, 344, 345, 346, 347, 348, 349, 350, 351, 352, 353, 354, 355, 356, 357, 358, 359, 360, 361, 362, 363, 364, 365, 366, 367, 368, 369, 370, 371, 372, 373, 374, 375, 376, 377, 378, 379, 380, 381, 382, 383, 384, 385, 386, 387, 388, 389, 390, 391, 392, 393, 394, 395, 396, 397, 398, 399, 400, 401, 402, 403, 404, 405, 406, 407, 408, 409, 410, 411, 412, 413, 414, 415, 416, 417, 418, 419, 420, 421, 422, 423, 424, 425, 426, 427, 428, 429, 430, 431, 432, 433, 434, 435, 436, 437, 438, 439, 440, 441, 442, 443, 444, 445, 446, 447, 448, 449, 450, 451, 452, 453, 454, 455, 456, 457, 458, 459, 460, 461, 462, 463, 464, 465, 466, 467, 468, 469, 470, 471, 472, 473, 474, 475, 476, 477, 478, 479, 480, 481, 482, 483, 484, 485, 486, 487, 488, 489, 490, 491, 492, 493, 494, 495, 496, 497, 498, 499, 500, 501, 502, 503, 504, 505, 506, 507, 508, 509, 510, 511, 512, 513, 514, 515, 516, 517, 518, 519, 520, 521, 522, 523, 524, 525, 526, 527, 528, 529, 530, 531, 532, 533, 534, 535, 536, 537, 538, 539, 540, 541, 542, 543, 544, 545, 546, 547, 548, 549, 550, 551, 552, 553, 554, 555, 556, 557, 558, 559, 560, 561, 562, 563, 564, 565, 566, 567, 568, 569, 570, 571, 572, 573, 574, 575, 576, 577, 578, 579, 580, 581],
      "AcquisitionTime": ["160506.710000", "160507.497500", "160508.285000", "160509.075000", "160509.862500", "160510.650000", "160511.437500", "160512.227500", "160513.015000", "160513.802500", "160514.590000", "160515.380000", "160516.167500", "160516.955000", "160517.742500", "160518.532500", "160519.320000", "160520.107500", "160520.895000", "160521.685000", "160522.472500", "160523.260000", "160524.050000", "160524.837500", "160525.625000", "160526.412500", "160527.202500", "160527.990000", "160528.777500", "160529.565000", "160530.355000", "160531.142500", "160531.930000", "160532.717500", "160533.507500", "160534.295000", "160535.082500", "160535.870000", "160536.660000", "160537.447500", "160538.235000", "160539.022500", "160539.812500", "160540.600000", "160541.387500", "160542.177500", "160542.965000", "160543.752500", "160544.540000", "160545.330000", "160546.117500", "160546.905000", "160547.692500", "160548.482500", "160549.270000", "160550.057500", "160550.845000", "160551.635000", "160552.422500", "160553.210000", "160553.997500", "160554.787500", "160555.575000", "160556.362500", "160557.150000", "160557.940000", "160558.727500", "160559.515000", "160600.305000", "160601.092500", "160601.880000", "160602.667500", "160603.457500", "160604.245000", "160605.032500", "160605.820000", "160606.610000", "160607.397500", "160608.185000", "160608.972500", "160609.762500", "160610.550000", "160611.337500", "160612.125000", "160612.915000", "160613.702500", "160614.490000", "160615.277500", "160616.067500", "160616.855000", "160617.642500", "160618.432500", "160619.220000", "160620.007500", "160620.795000", "160621.585000", "160622.372500", "160623.160000", "160623.947500", "160624.737500", "160625.525000", "160626.312500", "160627.100000", "160627.890000", "160628.677500", "160629.465000", "160630.252500", "160631.042500", "160631.830000", "160632.617500", "160633.405000", "160634.195000", "160634.982500", "160635.770000", "160636.560000", "160637.347500", "160638.135000", "160638.922500", "160639.712500", "160640.500000", "160641.287500", "160642.075000", "160642.865000", "160643.652500", "160644.440000", "160645.227500", "160646.017500", "160646.805000", "160647.592500", "160648.380000", "160649.170000", "160649.957500", "160650.745000", "160651.532500", "160652.322500", "160653.110000", "160653.897500", "160654.687500", "160655.475000", "160656.262500", "160657.050000", "160657.840000", "160658.627500", "160659.415000", "160700.202500", "160700.992500", "160701.780000", "160702.567500", "160703.355000", "160704.145000", "160704.932500", "160705.720000", "160706.507500", "160707.297500", "160708.085000", "160708.872500", "160709.662500", "160710.450000", "160711.237500", "160712.025000", "160712.815000", "160713.602500", "160714.390000", "160715.177500", "160715.967500", "160716.755000", "160717.542500", "160718.330000", "160719.120000", "160719.907500", "160720.695000", "160721.482500", "160722.272500", "160723.060000", "160723.847500", "160724.635000", "160725.425000", "160726.212500", "160727.000000", "160727.790000", "160728.577500", "160729.365000", "160730.152500", "160730.942500", "160731.730000", "160732.517500", "160733.305000", "160734.095000", "160734.882500", "160735.670000", "160736.457500", "160737.247500", "160738.035000", "160738.822500", "160739.610000", "160740.400000", "160741.187500", "160741.975000", "160742.762500", "160743.552500", "160744.340000", "160745.127500", "160745.917500", "160746.705000", "160747.492500", "160748.280000", "160749.070000", "160749.857500", "160750.645000", "160751.432500", "160752.222500", "160753.010000", "160753.797500", "160754.585000", "160755.375000", "160756.162500", "160756.950000", "160757.737500", "160758.527500", "160759.315000", "160800.102500", "160800.890000", "160801.680000", "160802.467500", "160803.255000", "160804.045000", "160804.832500", "160805.620000", "160806.407500", "160807.197500", "160807.985000", "160808.772500", "160809.560000", "160810.350000", "160811.137500", "160811.925000", "160812.712500", "160813.502500", "160814.290000", "160815.077500", "160815.865000", "160816.655000", "160817.442500", "160818.230000", "160819.017500", "160819.807500", "160820.595000", "160821.382500", "160822.172500", "160822.960000", "160823.747500", "160824.535000", "160825.325000", "160826.112500", "160826.900000", "160827.687500", "160828.477500", "160829.265000", "160830.052500", "160830.840000", "160831.630000", "160832.417500", "160833.205000", "160833.992500", "160834.782500", "160835.570000", "160836.357500", "160837.145000", "160837.935000", "160838.722500", "160839.510000", "160840.300000", "160841.087500", "160841.875000", "160842.662500", "160843.452500", "160844.240000", "160845.027500", "160845.815000", "160846.605000", "160847.392500", "160848.180000", "160848.967500", "160849.757500", "160850.545000", "160851.332500", "160852.120000", "160852.910000", "160853.697500", "160854.485000", "160855.272500", "160856.062500", "160856.850000", "160857.637500", "160858.427500", "160859.215000", "160900.002500", "160900.790000", "160901.580000", "160902.367500", "160903.155000", "160903.942500", "160904.732500", "160905.520000", "160906.307500", "160907.095000", "160907.885000", "160908.672500", "160909.460000", "160910.247500", "160911.037500", "160911.825000", "160912.612500", "160913.400000", "160914.190000", "160914.977500", "160915.765000", "160916.555000", "160917.342500", "160918.130000", "160918.917500", "160919.707500", "160920.495000", "160921.282500", "160922.070000", "160922.860000", "160923.647500", "160924.435000", "160925.222500", "160926.012500", "160926.800000", "160927.587500", "160928.375000", "160929.165000", "160929.952500", "160930.740000", "160931.527500", "160932.317500", "160933.105000", "160933.892500", "160934.682500", "160935.470000", "160936.257500", "160937.045000", "160937.835000", "160938.622500", "160939.410000", "160940.197500", "160940.987500", "160941.775000", "160942.562500", "160943.350000", "160944.140000", "160944.927500", "160945.715000", "160946.502500", "160947.292500", "160948.080000", "160948.867500", "160949.655000", "160950.445000", "160951.232500", "160952.020000", "160952.810000", "160953.597500", "160954.385000", "160955.172500", "160955.962500", "160956.750000", "160957.537500", "160958.325000", "160959.115000", "160959.902500", "161000.690000", "161001.477500", "161002.267500", "161003.055000", "161003.842500", "161004.630000", "161005.420000", "161006.207500", "161006.995000", "161007.782500", "161008.572500", "161009.360000", "161010.147500", "161010.937500", "161011.725000", "161012.512500", "161013.300000", "161014.090000", "161014.877500", "161015.665000", "161016.452500", "161017.242500", "161018.030000", "161018.817500", "161019.605000", "161020.395000", "161021.182500", "161021.970000", "161022.757500", "161023.547500", "161024.335000", "161025.122500", "161025.912500", "161026.700000", "161027.487500", "161028.275000", "161029.065000", "161029.852500", "161030.640000", "161031.427500", "161032.217500", "161033.005000", "161033.792500", "161034.580000", "161035.370000", "161036.157500", "161036.945000", "161037.732500", "161038.522500", "161039.310000", "161040.097500", "161040.885000", "161041.675000", "161042.462500", "161043.250000", "161044.040000", "161044.827500", "161045.615000", "161046.402500", "161047.192500", "161047.980000", "161048.767500", "161049.555000", "161050.345000", "161051.132500", "161051.920000", "161052.707500", "161053.497500", "161054.285000", "161055.072500", "161055.860000", "161056.650000", "161057.437500", "161058.225000", "161059.012500", "161059.802500", "161100.590000", "161101.377500", "161102.167500", "161102.955000", "161103.742500", "161104.530000", "161105.320000", "161106.107500", "161106.895000", "161107.682500", "161108.472500", "161109.260000", "161110.047500", "161110.835000", "161111.625000", "161112.412500", "161113.200000", "161113.987500", "161114.777500", "161115.565000", "161116.352500", "161117.140000", "161117.930000", "161118.717500", "161119.505000", "161120.295000", "161121.082500", "161121.870000", "161122.657500", "161123.447500", "161124.235000", "161125.022500", "161125.810000", "161126.600000", "161127.387500", "161128.175000", "161128.962500", "161129.752500", "161130.540000", "161131.327500", "161132.115000", "161132.905000", "161133.692500", "161134.480000", "161135.267500", "161136.057500", "161136.845000", "161137.632500", "161138.422500", "161139.210000", "161139.997500", "161140.785000", "161141.575000", "161142.362500", "161143.150000", "161143.937500", "161144.727500", "161145.515000", "161146.302500", "161147.090000", "161147.880000", "161148.667500", "161149.455000", "161150.242500", "161151.032500", "161151.820000", "161152.607500", "161153.395000", "161154.185000", "161154.972500", "161155.760000", "161156.550000", "161157.337500", "161158.125000", "161158.912500", "161159.702500", "161200.490000", "161201.277500", "161202.065000", "161202.855000", "161203.642500", "161204.430000", "161205.217500", "161206.007500", "161206.795000", "161207.582500", "161208.370000", "161209.160000", "161209.947500", "161210.735000", "161211.522500", "161212.312500", "161213.100000", "161213.887500", "161214.677500", "161215.465000", "161216.252500", "161217.040000", "161217.830000", "161218.617500", "161219.405000", "161220.192500", "161220.982500", "161221.770000", "161222.557500", "161223.345000", "161224.135000", "161224.922500", "161225.710000", "161226.497500", "161227.287500", "161228.075000", "161228.862500", "161229.650000", "161230.440000", "161231.227500", "161232.015000", "161232.805000", "161233.592500", "161234.380000", "161235.167500", "161235.957500", "161236.745000", "161237.532500", "161238.320000", "161239.110000", "161239.897500", "161240.685000", "161241.472500", "161242.262500", "161243.050000", "161243.837500"],
      "ContentTime": ["170124.359000", "170124.359000", "170124.359000", "170124.375000", "170124.375000", "170124.375000", "170124.375000", "170124.375000", "170124.375000", "170224.343000", "170224.343000", "170224.343000", "170224.343000", "170224.343000", "170224.359000", "170224.359000", "170224.359000", "170224.359000", "170224.359000", "170224.359000", "170224.359000", "170224.375000", "170224.375000", "170224.375000", "170224.375000", "170224.375000", "170224.375000", "170224.375000", "170224.390000", "170224.390000", "170224.390000", "170224.390000", "170224.390000", "170224.390000", "170224.390000", "170224.406000", "170324.343000", "170324.343000", "170324.343000", "170324.343000", "170324.343000", "170324.359000", "170324.359000", "170324.359000", "170324.359000", "170324.359000", "170324.359000", "170324.359000", "170324.375000", "170324.375000", "170324.375000", "170324.375000", "170324.375000", "170324.375000", "170324.375000", "170324.390000", "170324.390000", "170324.390000", "170324.390000", "170324.390000", "170324.390000", "170324.390000", "170324.406000", "170324.406000", "170424.343000", "170424.343000", "170424.343000", "170424.343000", "170424.343000", "170424.359000", "170424.359000", "170424.359000", "170424.359000", "170424.359000", "170424.359000", "170424.359000", "170424.375000", "170424.375000", "170424.375000", "170424.375000", "170424.375000", "170424.375000", "170424.375000", "170424.390000", "170424.390000", "170424.390000", "170424.390000", "170424.390000", "170424.390000", "170424.390000", "170424.406000", "170524.343000", "170524.343000", "170524.343000", "170524.343000", "170524.343000", "170524.359000", "170524.359000", "170524.359000", "170524.359000", "170524.359000", "170524.359000", "170524.359000", "170524.375000", "170524.375000", "170524.375000", "170524.375000", "170524.375000", "170524.375000", "170524.375000", "170524.390000", "170524.390000", "170524.390000", "170524.390000", "170524.390000", "170524.390000", "170524.390000", "170524.406000", "170624.343000", "170624.343000", "170624.343000", "170624.343000", "170624.343000", "170624.359000", "170624.359000", "170624.359000", "170624.359000", "170624.390000", "170624.390000", "170624.390000", "170624.390000", "170624.406000", "170624.406000", "170624.406000", "170624.406000", "170624.406000", "170624.406000", "170624.406000", "170624.421000", "170624.421000", "170624.421000", "170624.421000", "170624.421000", "170624.421000", "170624.421000", "170624.437000", "170724.343000", "170724.343000", "170724.343000", "170724.343000", "170724.343000", "170724.359000", "170724.359000", "170724.359000", "170724.359000", "170724.359000", "170724.359000", "170724.359000", "170724.375000", "170724.375000", "170724.375000", "170724.375000", "170724.375000", "170724.375000", "170724.375000", "170724.390000", "170724.390000", "170724.390000", "170724.390000", "170724.390000", "170724.390000", "170724.390000", "170724.406000", "170824.343000", "170824.343000", "170824.343000", "170824.343000", "170824.343000", "170824.359000", "170824.359000", "170824.359000", "170824.359000", "170824.359000", "170824.375000", "170824.375000", "170824.375000", "170824.375000", "170824.375000", "170824.375000", "170824.375000", "170824.390000", "170824.390000", "170824.390000", "170824.390000", "170824.390000", "170824.390000", "170824.390000", "170824.390000", "170824.406000", "170824.406000", "170824.406000", "170924.343000", "170924.343000", "170924.343000", "170924.343000", "170924.343000", "170924.359000", "170924.359000", "170924.359000", "170924.359000", "170924.359000", "170924.359000", "170924.359000", "170924.375000", "170924.375000", "170924.375000", "170924.375000", "170924.375000", "170924.375000", "170924.375000", "170924.390000", "170924.390000", "170924.390000", "170924.390000", "170924.406000", "170924.406000", "170924.406000", "170924.406000", "171024.343000", "171024.343000", "171024.343000", "171024.343000", "171024.343000", "171024.359000", "171024.359000", "171024.359000", "171024.359000", "171024.359000", "171024.359000", "171024.359000", "171024.375000", "171024.375000", "171024.375000", "171024.375000", "171024.375000", "171024.375000", "171024.375000", "171024.390000", "171024.390000", "171024.390000", "171024.390000", "171024.390000", "171024.390000", "171024.390000", "171024.406000", "171024.406000", "171124.343000", "171124.343000", "171124.343000", "171124.343000", "171124.343000", "171124.359000", "171124.359000", "171124.359000", "171124.359000", "171124.375000", "171124.375000", "171124.375000", "171124.390000", "171124.390000", "171124.390000", "171124.390000", "171124.406000", "171124.406000", "171124.406000", "171124.406000", "171124.406000", "171124.406000", "171124.406000", "171124.421000", "171124.421000", "171124.421000", "171124.421000", "171124.421000", "171224.343000", "171224.343000", "171224.343000", "171224.343000", "171224.343000", "171224.359000", "171224.359000", "171224.359000", "171224.359000", "171224.359000", "171224.359000", "171224.375000", "171224.375000", "171224.375000", "171224.375000", "171224.375000", "171224.375000", "171224.375000", "171224.390000", "171224.390000", "171224.390000", "171224.390000", "171224.390000", "171224.390000", "171224.390000", "171224.406000", "171224.406000", "171224.406000", "171224.406000", "171324.343000", "171324.343000", "171324.343000", "171324.343000", "171324.343000", "171324.359000", "171324.359000", "171324.359000", "171324.359000", "171324.359000", "171324.359000", "171324.359000", "171324.375000", "171324.375000", "171324.375000", "171324.375000", "171324.375000", "171324.375000", "171324.375000", "171324.390000", "171324.390000", "171324.390000", "171324.390000", "171324.390000", "171324.390000", "171324.390000", "171324.406000", "171324.406000", "171424.343000", "171424.343000", "171424.343000", "171424.343000", "171424.343000", "171424.359000", "171424.359000", "171424.359000", "171424.359000", "171424.359000", "171424.359000", "171424.359000", "171424.375000", "171424.375000", "171424.375000", "171424.375000", "171424.375000", "171424.375000", "171424.375000", "171424.390000", "171424.390000", "171424.390000", "171424.390000", "171424.390000", "171424.390000", "171424.390000", "171424.406000", "171424.406000", "171524.343000", "171524.343000", "171524.343000", "171524.343000", "171524.343000", "171524.359000", "171524.359000", "171524.359000", "171524.359000", "171524.359000", "171524.359000", "171524.359000", "171524.375000", "171524.375000", "171524.375000", "171524.375000", "171524.375000", "171524.375000", "171524.375000", "171524.390000", "171524.390000", "171524.390000", "171524.390000", "171524.390000", "171524.390000", "171524.390000", "171524.406000", "171524.406000", "171624.343000", "171624.343000", "171624.343000", "171624.343000", "171624.343000", "171624.359000", "171624.359000", "171624.359000", "171624.359000", "171624.359000", "171624.359000", "171624.359000", "171624.375000", "171624.375000", "171624.375000", "171624.375000", "171624.375000", "171624.375000", "171624.375000", "171624.390000", "171624.390000", "171624.390000", "171624.390000", "171624.390000", "171624.390000", "171624.390000", "171624.406000", "171624.406000", "171724.343000", "171724.343000", "171724.343000", "171724.343000", "171724.343000", "171724.359000", "171724.359000", "171724.359000", "171724.359000", "171724.359000", "171724.359000", "171724.359000", "171724.375000", "171724.375000", "171724.375000", "171724.375000", "171724.375000", "171724.375000", "171724.375000", "171724.390000", "171724.390000", "171724.390000", "171724.390000", "171724.390000", "171724.390000", "171724.390000", "171724.406000", "171724.406000", "171824.343000", "171824.343000", "171824.343000", "171824.343000", "171824.343000", "171824.359000", "171824.359000", "171824.359000", "171824.359000", "171824.359000", "171824.359000", "171824.375000", "171824.375000", "171824.375000", "171824.375000", "171824.375000", "171824.375000", "171824.375000", "171824.390000", "171824.390000", "171824.390000", "171824.390000", "171824.390000", "171824.390000", "171824.390000", "171824.406000", "171824.406000", "171824.406000", "171924.343000", "171924.343000", "171924.343000", "171924.343000", "171924.343000", "171924.359000", "171924.359000", "171924.359000", "171924.359000", "171924.359000", "171924.359000", "171924.359000", "171924.375000", "171924.375000", "171924.375000", "171924.375000", "171924.375000", "171924.375000", "171924.375000", "171924.390000", "171924.390000", "171924.390000", "171924.390000", "171924.390000", "171924.390000", "171924.390000", "171924.406000", "171924.406000", "171924.406000", "172024.343000", "172024.343000", "172024.343000", "172024.343000", "172024.343000", "172024.359000", "172024.359000", "172024.359000", "172024.359000", "172024.359000", "172024.359000", "172024.359000", "172024.375000", "172024.375000", "172024.375000", "172024.375000", "172024.375000", "172024.375000", "172024.375000", "172024.390000", "172024.390000", "172024.390000", "172024.390000", "172024.390000", "172024.390000", "172024.390000", "172024.406000", "172024.406000", "172124.343000", "172124.343000", "172124.343000", "172124.343000", "172124.343000", "172124.359000", "172124.359000", "172124.359000", "172124.359000", "172124.359000", "172124.359000", "172124.359000", "172124.375000", "172124.375000", "172124.375000", "172124.375000", "172124.375000", "172124.375000", "172124.375000", "172124.390000", "172124.390000", "172124.390000", "172124.390000", "172124.390000", "172124.390000", "172124.390000", "172124.406000", "172124.406000", "172155.187000", "172155.203000", "172155.203000", "172155.203000", "172155.203000", "172155.203000", "172155.203000", "172155.203000", "172155.218000", "172155.218000", "172155.218000", "172155.218000", "172155.218000", "172155.234000", "172155.234000"],
      "DataSetTrailingPadding": [
        "\u0000\u0000\u0000\u0000\u0000\u0000\u0000\u0000\u0000\u0000\u0000\u0000\u0000\u0000\u0000\u0000\u0000\u0000\u0000\u0000\u0000\u0000\u0000\u0000\u0000\u0000\u0000\u0000\u0000\u0000\u0000\u0000\u0000\u0000\u0000\u0000\u0000\u0000\u0000\u0000\u0000\u0000\u0000\u0000\u0000\u0000\u0000\u0000\u0000\u0000",
        "\u0000\u0000\u0000\u0000\u0000\u0000\u0000\u0000\u0000\u0000\u0000\u0000\u0000\u0000\u0000\u0000\u0000\u0000\u0000\u0000\u0000\u0000\u0000\u0000\u0000\u0000\u0000\u0000\u0000\u0000\u0000\u0000\u0000\u0000\u0000\u0000\u0000\u0000\u0000\u0000\u0000\u0000\u0000\u0000\u0000\u0000\u0000\u0000\u0000\u0000",
        "\u0000\u0000\u0000\u0000\u0000\u0000\u0000\u0000\u0000\u0000\u0000\u0000\u0000\u0000\u0000\u0000\u0000\u0000\u0000\u0000\u0000\u0000\u0000\u0000\u0000\u0000\u0000\u0000\u0000\u0000\u0000\u0000\u0000\u0000\u0000\u0000\u0000\u0000\u0000\u0000\u0000\u0000\u0000\u0000\u0000\u0000\u0000\u0000",
        "\u0000\u0000\u0000\u0000\u0000\u0000\u0000\u0000\u0000\u0000\u0000\u0000\u0000\u0000\u0000\u0000\u0000\u0000\u0000\u0000\u0000\u0000\u0000\u0000\u0000\u0000\u0000\u0000\u0000\u0000\u0000\u0000\u0000\u0000\u0000\u0000\u0000\u0000\u0000\u0000\u0000\u0000\u0000\u0000\u0000\u0000\u0000\u0000\u0000\u0000",
        "\u0000\u0000\u0000\u0000\u0000\u0000\u0000\u0000\u0000\u0000\u0000\u0000\u0000\u0000\u0000\u0000\u0000\u0000\u0000\u0000\u0000\u0000\u0000\u0000\u0000\u0000\u0000\u0000\u0000\u0000\u0000\u0000\u0000\u0000\u0000\u0000\u0000\u0000\u0000\u0000\u0000\u0000\u0000\u0000\u0000\u0000\u0000\u0000\u0000\u0000",
        "\u0000\u0000\u0000\u0000\u0000\u0000\u0000\u0000\u0000\u0000\u0000\u0000\u0000\u0000\u0000\u0000\u0000\u0000\u0000\u0000\u0000\u0000\u0000\u0000\u0000\u0000\u0000\u0000\u0000\u0000\u0000\u0000\u0000\u0000\u0000\u0000\u0000\u0000\u0000\u0000\u0000\u0000\u0000\u0000\u0000\u0000\u0000\u0000",
