{
  "AcquisitionMatrixPE": 104,
  "AcquisitionNumber": 1,
  "AcquisitionTime": "12:12:5.695000",
  "BandwidthPerPixelPhaseEncode": 13.935,
  "BaseResolution": 104,
  "CoilString": "C:HEA;HEP",
  "ConversionSoftware": "dcm2niix",
  "ConversionSoftwareVersion": "v1.0.20210317",
  "DerivedVendorReportedEchoSpacing": 0.000690017,
  "DeviceSerialNumber": "35450",
  "DwellTime": 2.5e-06,
  "EchoTime": 0.0348,
  "EffectiveEchoSpacing": 0.000690017,
  "FlipAngle": 55,
  "ImageComments": "Unaliased MB8/PE3 (remote)",
  "ImageOrientationPatientDICOM": [0.999946, -0.00187463, -0.0102168, 5.2022e-08, 0.983581, -0.180466],
  "ImageType": [
    "ORIGINAL",
    "PRIMARY",
    "M",
    "MB",
    "ND",
    "MOSAIC"
],
  "ImagingFrequency": 123.235,
  "InPlanePhaseEncodingDirectionDICOM": "COL",
  "InstitutionAddress": "Univeristy Ave. 197,Newark,North East,US,07102-1814",
  "InstitutionName": "RUBIC",
  "InstitutionalDepartmentName": "Department",
  "MRAcquisitionType": "2D",
  "MagneticFieldStrength": 3,
  "Manufacturer": "Siemens",
  "ManufacturersModelName": "TrioTim",
  "Modality": "MR",
  "MultibandAccelerationFactor": 8,
  "PartialFourier": 0.875,
  "PatientPosition": "HFS",
  "PercentPhaseFOV": 100,
  "PercentSampling": 100,
  "PhaseEncodingDirection": "j-",
  "PhaseEncodingSteps": 91,
  "PhaseResolution": 1,
  "PixelBandwidth": 1923,
  "ProcedureStepDescription": "Cole^Michael",
  "ProtocolName": "cmrr_mbep2d_bold_2mm_MB8_Task_8x",
  "PulseSequenceDetails": "%CustomerSeq%\\cmrr_mbep2d_bold",
  "ReceiveCoilName": "32Ch_Head",
  "ReconMatrixPE": 104,
  "RepetitionTime": 0.785,
  "SAR": 0.118457,
  "ScanOptions": "PFP\\FS",
  "ScanningSequence": "EP",
  "SequenceName": "epfid2d1_104",
  "SequenceVariant": "SK\\SS",
  "SeriesDescription": "cmrr_mbep2d_bold_2mm_MB8_Task_8x",
  "SeriesNumber": 23,
  "ShimSetting": [2077, -368, -7257, 443, 248, -667, -97, -7],
  "SliceThickness": 2,
  "SliceTiming": [0, 0.4375, 0.0875, 0.525, 0.175, 0.6125, 0.2625, 0.7, 0.35, 0, 0.4375, 0.0875, 0.525, 0.175, 0.6125, 0.2625, 0.7, 0.35, 0, 0.4375, 0.0875, 0.525, 0.175, 0.6125, 0.2625, 0.7, 0.35, 0, 0.4375, 0.0875, 0.525, 0.175, 0.6125, 0.2625, 0.7, 0.35, 0, 0.4375, 0.0875, 0.525, 0.175, 0.6125, 0.2625, 0.7, 0.35, 0, 0.4375, 0.0875, 0.525, 0.175, 0.6125, 0.2625, 0.7, 0.35, 0, 0.4375, 0.0875, 0.525, 0.175, 0.6125, 0.2625, 0.7, 0.35, 0, 0.4375, 0.0875, 0.525, 0.175, 0.6125, 0.2625, 0.7, 0.35],
  "SoftwareVersions": "syngo MR B19",
  "SpacingBetweenSlices": 2,
  "StationName": "MRC35450",
  "TaskName": "cpro",
  "TotalReadoutTime": 0.0710717,
  "TxRefAmp": 317.333,
  "dcmmeta_affine": [
    [-1.9998921155929565, 1.0404392014606856e-07, -0.020774783566594124, 105.44805908203125],
    [0.003749253461137414, 1.9671622514724731, -0.36091339588165283, -74.31863403320312],
    [-0.020433668047189713, 0.360932856798172, 1.967056155204773, -110.6610336303711],
    [0.0, 0.0, 0.0, 1.0]
],
  "dcmmeta_reorient_transform": [
    [0.0, -1.0, 0.0, 103.0],
    [1.0, 0.0, 0.0, 0.0],
    [0.0, 0.0, 1.0, 0.0],
    [0.0, 0.0, 0.0, 1.0]
],
  "dcmmeta_shape": [104, 104, 72, 581],
  "dcmmeta_slice_dim": 2,
  "dcmmeta_version": 0.6,
  "global": {
    "const": {
      "AcquisitionMatrix": [104, 0, 0, 104],
      "AngioFlag": "N",
      "BitsAllocated": 16,
      "BitsStored": 12,
      "Columns": 936,
      "EchoNumbers": 1,
      "EchoTime": 34.8,
      "EchoTrainLength": 1,
      "FlipAngle": 55.0,
      "HighBit": 11,
      "ImageOrientationPatient": [0.99994604958683, -0.0018746267239, -0.0102168336747, 5.2021961e-08, 0.98358114475792, -0.1804664281153],
      "ImagePositionPatient": [-937.40322637591, -945.078905723, 85.163523513928],
      "ImageType": [
        "ORIGINAL",
        "PRIMARY",
        "M",
        "MB",
        "ND",
        "MOSAIC"
],
      "ImagedNucleus": "1H",
      "ImagingFrequency": 123.234518,
      "InPlanePhaseEncodingDirection": "COL",
      "MRAcquisitionType": "2D",
      "MagneticFieldStrength": 3.0,
      "Manufacturer": "SIEMENS",
      "ManufacturerModelName": "TrioTim",
      "Modality": "MR",
      "NumberOfAverages": 1.0,
      "NumberOfPhaseEncodingSteps": 91,
      "PercentPhaseFieldOfView": 100.0,
      "PercentSampling": 100.0,
      "PerformedProcedureStepStartTime": "101512.937000",
      "PhotometricInterpretation": "MONOCHROME2",
      "PixelBandwidth": 1923.0,
      "PixelRepresentation": 0,
      "PixelSpacing": [2.0, 2.0],
      "ProtocolName": "cmrr_mbep2d_bold_2mm_MB8_Task_8x",
      "RepetitionTime": 785.0,
      "Rows": 936,
      "SAR": 0.11845703414073,
      "SamplesPerPixel": 1,
      "ScanOptions": [
        "PFP",
        "FS"
],
      "ScanningSequence": "EP",
      "SequenceName": "epfid2d1_104",
      "SequenceVariant": [
        "SK",
        "SS"
],
      "SeriesDescription": "cmrr_mbep2d_bold_2mm_MB8_Task_8x",
      "SeriesNumber": 23,
      "SeriesTime": "121236.546000",
      "SliceLocation": -96.522270513934,
      "SliceThickness": 2.0,
      "SmallestImagePixelValue": 0,
      "SoftwareVersions": "syngo MR B19",
      "SpacingBetweenSlices": 2.0000000063378,
      "SpecificCharacterSet": "ISO_IR 100",
      "StudyID": "1",
      "StudyTime": "101512.890000",
      "TransmitCoilName": "Body",
      "VariableFlipAngleFlag": "N",
      "WindowCenterWidthExplanation": "Algo1",
      "dBdt": 0.0},
    "slices": {}
  },
  "time": {
    "samples": {
      "AcquisitionNumber": [1, 2, 3, 4, 5, 6, 7, 8, 9, 10, 11, 12, 13, 14, 15, 16, 17, 18, 19, 20, 21, 22, 23, 24, 25, 26, 27, 28, 29, 30, 31, 32, 33, 34, 35, 36, 37, 38, 39, 40, 41, 42, 43, 44, 45, 46, 47, 48, 49, 50, 51, 52, 53, 54, 55, 56, 57, 58, 59, 60, 61, 62, 63, 64, 65, 66, 67, 68, 69, 70, 71, 72, 73, 74, 75, 76, 77, 78, 79, 80, 81, 82, 83, 84, 85, 86, 87, 88, 89, 90, 91, 92, 93, 94, 95, 96, 97, 98, 99, 100, 101, 102, 103, 104, 105, 106, 107, 108, 109, 110, 111, 112, 113, 114, 115, 116, 117, 118, 119, 120, 121, 122, 123, 124, 125, 126, 127, 128, 129, 130, 131, 132, 133, 134, 135, 136, 137, 138, 139, 140, 141, 142, 143, 144, 145, 146, 147, 148, 149, 150, 151, 152, 153, 154, 155, 156, 157, 158, 159, 160, 161, 162, 163, 164, 165, 166, 167, 168, 169, 170, 171, 172, 173, 174, 175, 176, 177, 178, 179, 180, 181, 182, 183, 184, 185, 186, 187, 188, 189, 190, 191, 192, 193, 194, 195, 196, 197, 198, 199, 200, 201, 202, 203, 204, 205, 206, 207, 208, 209, 210, 211, 212, 213, 214, 215, 216, 217, 218, 219, 220, 221, 222, 223, 224, 225, 226, 227, 228, 229, 230, 231, 232, 233, 234, 235, 236, 237, 238, 239, 240, 241, 242, 243, 244, 245, 246, 247, 248, 249, 250, 251, 252, 253, 254, 255, 256, 257, 258, 259, 260, 261, 262, 263, 264, 265, 266, 267, 268, 269, 270, 271, 272, 273, 274, 275, 276, 277, 278, 279, 280, 281, 282, 283, 284, 285, 286, 287, 288, 289, 290, 291, 292, 293, 294, 295, 296, 297, 298, 299, 300, 301, 302, 303, 304, 305, 306, 307, 308, 309, 310, 311, 312, 313, 314, 315, 316, 317, 318, 319, 320, 321, 322, 323, 324, 325, 326, 327, 328, 329, 330, 331, 332, 333, 334, 335, 336, 337, 338, 339, 340, 341, 342, 343, 344, 345, 346, 347, 348, 349, 350, 351, 352, 353, 354, 355, 356, 357, 358, 359, 360, 361, 362, 363, 364, 365, 366, 367, 368, 369, 370, 371, 372, 373, 374, 375, 376, 377, 378, 379, 380, 381, 382, 383, 384, 385, 386, 387, 388, 389, 390, 391, 392, 393, 394, 395, 396, 397, 398, 399, 400, 401, 402, 403, 404, 405, 406, 407, 408, 409, 410, 411, 412, 413, 414, 415, 416, 417, 418, 419, 420, 421, 422, 423, 424, 425, 426, 427, 428, 429, 430, 431, 432, 433, 434, 435, 436, 437, 438, 439, 440, 441, 442, 443, 444, 445, 446, 447, 448, 449, 450, 451, 452, 453, 454, 455, 456, 457, 458, 459, 460, 461, 462, 463, 464, 465, 466, 467, 468, 469, 470, 471, 472, 473, 474, 475, 476, 477, 478, 479, 480, 481, 482, 483, 484, 485, 486, 487, 488, 489, 490, 491, 492, 493, 494, 495, 496, 497, 498, 499, 500, 501, 502, 503, 504, 505, 506, 507, 508, 509, 510, 511, 512, 513, 514, 515, 516, 517, 518, 519, 520, 521, 522, 523, 524, 525, 526, 527, 528, 529, 530, 531, 532, 533, 534, 535, 536, 537, 538, 539, 540, 541, 542, 543, 544, 545, 546, 547, 548, 549, 550, 551, 552, 553, 554, 555, 556, 557, 558, 559, 560, 561, 562, 563, 564, 565, 566, 567, 568, 569, 570, 571, 572, 573, 574, 575, 576, 577, 578, 579, 580, 581],
      "AcquisitionTime": ["121205.695000", "121206.485000", "121207.272500", "121208.060000", "121208.847500", "121209.637500", "121210.425000", "121211.212500", "121212.000000", "121212.790000", "121213.577500", "121214.365000", "121215.152500", "121215.942500", "121216.730000", "121217.517500", "121218.305000", "121219.095000", "121219.882500", "121220.670000", "121221.460000", "121222.247500", "121223.035000", "121223.822500", "121224.612500", "121225.400000", "121226.187500", "121226.975000", "121227.765000", "121228.552500", "121229.340000", "121230.127500", "121230.917500", "121231.705000", "121232.492500", "121233.280000", "121234.070000", "121234.857500", "121235.645000", "121236.432500", "121237.222500", "121238.010000", "121238.797500", "121239.587500", "121240.375000", "121241.162500", "121241.950000", "121242.740000", "121243.527500", "121244.315000", "121245.102500", "121245.892500", "121246.680000", "121247.467500", "121248.255000", "121249.045000", "121249.832500", "121250.620000", "121251.407500", "121252.197500", "121252.985000", "121253.772500", "121254.560000", "121255.350000", "121256.137500", "121256.925000", "121257.715000", "121258.502500", "121259.290000", "121300.077500", "121300.867500", "121301.655000", "121302.442500", "121303.230000", "121304.020000", "121304.807500", "121305.595000", "121306.382500", "121307.172500", "121307.960000", "121308.747500", "121309.535000", "121310.325000", "121311.112500", "121311.900000", "121312.687500", "121313.477500", "121314.265000", "121315.052500", "121315.842500", "121316.630000", "121317.417500", "121318.205000", "121318.995000", "121319.782500", "121320.570000", "121321.357500", "121322.147500", "121322.935000", "121323.722500", "121324.510000", "121325.300000", "121326.087500", "121326.875000", "121327.662500", "121328.452500", "121329.240000", "121330.027500", "121330.815000", "121331.605000", "121332.392500", "121333.180000", "121333.970000", "121334.757500", "121335.545000", "121336.332500", "121337.122500", "121337.910000", "121338.697500", "121339.485000", "121340.275000", "121341.062500", "121341.850000", "121342.637500", "121343.427500", "121344.215000", "121345.002500", "121345.790000", "121346.580000", "121347.367500", "121348.155000", "121348.942500", "121349.732500", "121350.520000", "121351.307500", "121352.097500", "121352.885000", "121353.672500", "121354.460000", "121355.250000", "121356.037500", "121356.825000", "121357.612500", "121358.402500", "121359.190000", "121359.977500", "121400.765000", "121401.555000", "121402.342500", "121403.130000", "121403.917500", "121404.707500", "121405.495000", "121406.282500", "121407.070000", "121407.860000", "121408.647500", "121409.435000", "121410.225000", "121411.012500", "121411.800000", "121412.587500", "121413.377500", "121414.165000", "121414.952500", "121415.740000", "121416.530000", "121417.317500", "121418.105000", "121418.892500", "121419.682500", "121420.470000", "121421.257500", "121422.045000", "121422.835000", "121423.622500", "121424.410000", "121425.197500", "121425.987500", "121426.775000", "121427.562500", "121428.352500", "121429.140000", "121429.927500", "121430.715000", "121431.505000", "121432.292500", "121433.080000", "121433.867500", "121434.657500", "121435.445000", "121436.232500", "121437.020000", "121437.810000", "121438.597500", "121439.385000", "121440.172500", "121440.962500", "121441.750000", "121442.537500", "121443.325000", "121444.115000", "121444.902500", "121445.690000", "121446.480000", "121447.267500", "121448.055000", "121448.842500", "121449.632500", "121450.420000", "121451.207500", "121451.995000", "121452.785000", "121453.572500", "121454.360000", "121455.147500", "121455.937500", "121456.725000", "121457.512500", "121458.300000", "121459.090000", "121459.877500", "121500.665000", "121501.455000", "121502.242500", "121503.030000", "121503.817500", "121504.607500", "121505.395000", "121506.182500", "121506.970000", "121507.760000", "121508.547500", "121509.335000", "121510.122500", "121510.912500", "121511.700000", "121512.487500", "121513.275000", "121514.065000", "121514.852500", "121515.640000", "121516.427500", "121517.217500", "121518.005000", "121518.792500", "121519.582500", "121520.370000", "121521.157500", "121521.945000", "121522.735000", "121523.522500", "121524.310000", "121525.097500", "121525.887500", "121526.675000", "121527.462500", "121528.250000", "121529.040000", "121529.827500", "121530.615000", "121531.402500", "121532.192500", "121532.980000", "121533.767500", "121534.555000", "121535.345000", "121536.132500", "121536.920000", "121537.710000", "121538.497500", "121539.285000", "121540.072500", "121540.862500", "121541.650000", "121542.437500", "121543.225000", "121544.015000", "121544.802500", "121545.590000", "121546.377500", "121547.167500", "121547.955000", "121548.742500", "121549.530000", "121550.320000", "121551.107500", "121551.895000", "121552.682500", "121553.472500", "121554.260000", "121555.047500", "121555.837500", "121556.625000", "121557.412500", "121558.200000", "121558.990000", "121559.777500", "121600.565000", "121601.352500", "121602.142500", "121602.930000", "121603.717500", "121604.505000", "121605.295000", "121606.082500", "121606.870000", "121607.657500", "121608.447500", "121609.235000", "121610.022500", "121610.810000", "121611.600000", "121612.387500", "121613.175000", "121613.965000", "121614.752500", "121615.540000", "121616.327500", "121617.117500", "121617.905000", "121618.692500", "121619.480000", "121620.270000", "121621.057500", "121621.845000", "121622.632500", "121623.422500", "121624.210000", "121624.997500", "121625.785000", "121626.575000", "121627.362500", "121628.150000", "121628.937500", "121629.727500", "121630.515000", "121631.302500", "121632.092500", "121632.880000", "121633.667500", "121634.455000", "121635.245000", "121636.032500", "121636.820000", "121637.607500", "121638.397500", "121639.185000", "121639.972500", "121640.760000", "121641.550000", "121642.337500", "121643.125000", "121643.912500", "121644.702500", "121645.490000", "121646.277500", "121647.065000", "121647.855000", "121648.642500", "121649.430000", "121650.220000", "121651.007500", "121651.795000", "121652.582500", "121653.372500", "121654.160000", "121654.947500", "121655.735000", "121656.525000", "121657.312500", "121658.100000", "121658.887500", "121659.677500", "121700.465000", "121701.252500", "121702.040000", "121702.830000", "121703.617500", "121704.405000", "121705.192500", "121705.982500", "121706.770000", "121707.557500", "121708.347500", "121709.135000", "121709.922500", "121710.710000", "121711.500000", "121712.287500", "121713.075000", "121713.862500", "121714.652500", "121715.440000", "121716.227500", "121717.015000", "121717.805000", "121718.592500", "121719.380000", "121720.167500", "121720.957500", "121721.745000", "121722.532500", "121723.320000", "121724.110000", "121724.897500", "121725.685000", "121726.475000", "121727.262500", "121728.050000", "121728.837500", "121729.627500", "121730.415000", "121731.202500", "121731.990000", "121732.780000", "121733.567500", "121734.355000", "121735.142500", "121735.932500", "121736.720000", "121737.507500", "121738.295000", "121739.085000", "121739.872500", "121740.660000", "121741.447500", "121742.237500", "121743.025000", "121743.812500", "121744.602500", "121745.390000", "121746.177500", "121746.965000", "121747.755000", "121748.542500", "121749.330000", "121750.117500", "121750.907500", "121751.695000", "121752.482500", "121753.270000", "121754.060000", "121754.847500", "121755.635000", "121756.422500", "121757.212500", "121758.000000", "121758.787500", "121759.575000", "121800.365000", "121801.152500", "121801.940000", "121802.730000", "121803.517500", "121804.305000", "121805.092500", "121805.882500", "121806.670000", "121807.457500", "121808.245000", "121809.035000", "121809.822500", "121810.610000", "121811.397500", "121812.187500", "121812.975000", "121813.762500", "121814.550000", "121815.340000", "121816.127500", "121816.915000", "121817.705000", "121818.492500", "121819.280000", "121820.067500", "121820.857500", "121821.645000", "121822.432500", "121823.220000", "121824.010000", "121824.797500", "121825.585000", "121826.372500", "121827.162500", "121827.950000", "121828.737500", "121829.525000", "121830.315000", "121831.102500", "121831.890000", "121832.677500", "121833.467500", "121834.255000", "121835.042500", "121835.832500", "121836.620000", "121837.407500", "121838.195000", "121838.985000", "121839.772500", "121840.560000", "121841.347500", "121842.137500", "121842.925000", "121843.712500", "121844.500000", "121845.290000", "121846.077500", "121846.865000", "121847.652500", "121848.442500", "121849.230000", "121850.017500", "121850.805000", "121851.595000", "121852.382500", "121853.170000", "121853.960000", "121854.747500", "121855.535000", "121856.322500", "121857.112500", "121857.900000", "121858.687500", "121859.475000", "121900.265000", "121901.052500", "121901.840000", "121902.627500", "121903.417500", "121904.205000", "121904.992500", "121905.780000", "121906.570000", "121907.357500", "121908.145000", "121908.932500", "121909.722500", "121910.510000", "121911.297500", "121912.087500", "121912.875000", "121913.662500", "121914.450000", "121915.240000", "121916.027500", "121916.815000", "121917.602500", "121918.392500", "121919.180000", "121919.967500", "121920.755000", "121921.545000", "121922.332500", "121923.120000", "121923.907500", "121924.697500", "121925.485000", "121926.272500", "121927.060000", "121927.850000", "121928.637500", "121929.425000", "121930.215000", "121931.002500", "121931.790000", "121932.577500", "121933.367500", "121934.155000", "121934.942500", "121935.730000", "121936.520000", "121937.307500", "121938.095000", "121938.882500", "121939.672500", "121940.460000", "121941.247500", "121942.035000", "121942.825000"],
      "ContentTime": ["121236.546000", "121236.562000", "121236.562000", "121236.562000", "121236.562000", "121236.562000", "121236.562000", "121236.562000", "121236.562000", "121236.578000", "121236.578000", "121236.578000", "121236.578000", "121236.578000", "121236.578000", "121236.578000", "121236.593000", "121236.593000", "121236.593000", "121236.593000", "121236.593000", "121236.593000", "121236.593000", "121236.593000", "121236.609000", "121236.609000", "121236.609000", "121236.609000", "121236.609000", "121236.625000", "121236.625000", "121236.625000", "121236.625000", "121236.625000", "121236.625000", "121236.625000", "121256.515000", "121256.515000", "121256.531000", "121256.531000", "121256.531000", "121256.531000", "121256.531000", "121256.531000", "121256.531000", "121256.531000", "121256.546000", "121256.546000", "121256.546000", "121256.546000", "121256.546000", "121256.546000", "121256.546000", "121256.562000", "121256.562000", "121256.562000", "121256.562000", "121256.562000", "121256.562000", "121256.562000", "121256.562000", "121316.515000", "121316.515000", "121316.531000", "121316.531000", "121316.531000", "121316.531000", "121316.531000", "121316.531000", "121316.531000", "121316.546000", "121316.546000", "121316.546000", "121316.546000", "121316.546000", "121316.546000", "121316.546000", "121316.546000", "121316.562000", "121316.562000", "121316.562000", "121316.562000", "121316.562000", "121316.578000", "121316.578000", "121316.578000", "121316.578000", "121336.515000", "121336.515000", "121336.531000", "121336.531000", "121336.531000", "121336.531000", "121336.531000", "121336.531000", "121336.531000", "121336.546000", "121336.546000", "121336.546000", "121336.546000", "121336.546000", "121336.546000", "121336.546000", "121336.546000", "121336.562000", "121336.562000", "121336.562000", "121336.562000", "121336.562000", "121336.562000", "121336.562000", "121336.578000", "121356.515000", "121356.515000", "121356.531000", "121356.531000", "121356.531000", "121356.531000", "121356.531000", "121356.531000", "121356.531000", "121356.531000", "121356.546000", "121356.546000", "121356.546000", "121356.546000", "121356.546000", "121356.546000", "121356.546000", "121356.562000", "121356.562000", "121356.562000", "121356.562000", "121356.562000", "121356.562000", "121356.562000", "121356.578000", "121356.578000", "121416.515000", "121416.515000", "121416.531000", "121416.531000", "121416.531000", "121416.531000", "121416.531000", "121416.531000", "121416.531000", "121416.531000", "121416.546000", "121416.546000", "121416.546000", "121416.546000", "121416.546000", "121416.546000", "121416.546000", "121416.562000", "121416.562000", "121416.562000", "121416.562000", "121416.562000", "121416.562000", "121416.562000", "121416.562000", "121436.515000", "121436.515000", "121436.531000", "121436.531000", "121436.531000", "121436.562000", "121436.562000", "121436.562000", "121436.562000", "121436.562000", "121436.562000", "121436.562000", "121436.562000", "121436.578000", "121436.578000", "121436.578000", "121436.578000", "121436.578000", "121436.578000", "121436.578000", "121436.593000", "121436.593000", "121436.593000", "121436.593000", "121436.593000", "121456.515000", "121456.515000", "121456.531000", "121456.531000", "121456.531000", "121456.531000", "121456.531000", "121456.531000", "121456.531000", "121456.546000", "121456.546000", "121456.546000", "121456.546000", "121456.546000", "121456.546000", "121456.546000", "121456.562000", "121456.562000", "121456.562000", "121456.562000", "121456.562000", "121456.562000", "121456.562000", "121456.562000", "121456.578000", "121456.578000", "121516.515000", "121516.515000", "121516.531000", "121516.531000", "121516.531000", "121516.531000", "121516.531000", "121516.531000", "121516.531000", "121516.546000", "121516.546000", "121516.546000", "121516.546000", "121516.546000", "121516.546000", "121516.546000", "121516.562000", "121516.562000", "121516.562000", "121516.562000", "121516.562000", "121516.562000", "121516.562000", "121516.562000", "121516.578000", "121536.515000", "121536.515000", "121536.531000", "121536.531000", "121536.531000", "121536.531000", "121536.531000", "121536.531000", "121536.531000", "121536.546000", "121536.546000", "121536.546000", "121536.546000", "121536.562000", "121536.562000", "121536.562000", "121536.562000", "121536.562000", "121536.562000", "121536.562000", "121536.562000", "121536.578000", "121536.578000", "121536.578000", "121536.578000", "121536.578000", "121556.515000", "121556.515000", "121556.531000", "121556.531000", "121556.531000", "121556.531000", "121556.531000", "121556.531000", "121556.546000", "121556.546000", "121556.546000", "121556.546000", "121556.546000", "121556.546000", "121556.562000", "121556.562000", "121556.562000", "121556.562000", "121556.562000", "121556.562000", "121556.578000", "121556.578000", "121556.578000", "121556.578000", "121556.578000", "121616.515000", "121616.515000", "121616.531000", "121616.531000", "121616.531000", "121616.531000", "121616.531000", "121616.531000", "121616.531000", "121616.531000", "121616.546000", "121616.546000", "121616.546000", "121616.546000", "121616.546000", "121616.546000", "121616.546000", "121616.562000", "121616.562000", "121616.562000", "121616.562000", "121616.562000", "121616.562000", "121616.562000", "121616.562000", "121616.578000", "121636.515000", "121636.515000", "121636.531000", "121636.531000", "121636.531000", "121636.531000", "121636.531000", "121636.531000", "121636.531000", "121636.531000", "121636.546000", "121636.546000", "121636.546000", "121636.546000", "121636.546000", "121636.546000", "121636.546000", "121636.562000", "121636.562000", "121636.562000", "121636.562000", "121636.562000", "121636.562000", "121636.562000", "121636.578000", "121656.515000", "121656.515000", "121656.531000", "121656.531000", "121656.531000", "121656.531000", "121656.531000", "121656.531000", "121656.531000", "121656.546000", "121656.546000", "121656.546000", "121656.546000", "121656.546000", "121656.546000", "121656.546000", "121656.546000", "121656.562000", "121656.562000", "121656.562000", "121656.562000", "121656.562000", "121656.562000", "121656.562000", "121656.578000", "121656.578000", "121716.515000", "121716.515000", "121716.531000", "121716.531000", "121716.531000", "121716.531000", "121716.531000", "121716.531000", "121716.531000", "121716.531000", "121716.546000", "121716.546000", "121716.546000", "121716.546000", "121716.546000", "121716.546000", "121716.546000", "121716.562000", "121716.562000", "121716.562000", "121716.562000", "121716.562000", "121716.562000", "121716.562000", "121716.562000", "121736.515000", "121736.515000", "121736.531000", "121736.531000", "121736.531000", "121736.531000", "121736.531000", "121736.531000", "121736.531000", "121736.531000", "121736.546000", "121736.546000", "121736.546000", "121736.546000", "121736.546000", "121736.546000", "121736.546000", "121736.562000", "121736.562000", "121736.562000", "121736.562000", "121736.562000", "121736.562000", "121736.562000", "121736.562000", "121736.578000", "121756.515000", "121756.515000", "121756.531000", "121756.531000", "121756.531000", "121756.531000", "121756.531000", "121756.531000", "121756.531000", "121756.546000", "121756.546000", "121756.546000", "121756.546000", "121756.546000", "121756.546000", "121756.546000", "121756.546000", "121756.562000", "121756.562000", "121756.562000", "121756.562000", "121756.562000", "121756.578000", "121756.578000", "121756.578000", "121816.515000", "121816.515000", "121816.531000", "121816.531000", "121816.531000", "121816.531000", "121816.531000", "121816.531000", "121816.546000", "121816.546000", "121816.546000", "121816.546000", "121816.546000", "121816.546000", "121816.546000", "121816.546000", "121816.562000", "121816.562000", "121816.562000", "121816.562000", "121816.562000", "121816.562000", "121816.562000", "121816.578000", "121816.578000", "121816.578000", "121836.515000", "121836.515000", "121836.531000", "121836.531000", "121836.531000", "121836.531000", "121836.531000", "121836.531000", "121836.531000", "121836.531000", "121836.546000", "121836.546000", "121836.546000", "121836.546000", "121836.546000", "121836.546000", "121836.562000", "121836.562000", "121836.562000", "121836.562000", "121836.562000", "121836.562000", "121836.562000", "121836.562000", "121836.578000", "121856.515000", "121856.515000", "121856.531000", "121856.531000", "121856.531000", "121856.531000", "121856.531000", "121856.531000", "121856.531000", "121856.546000", "121856.546000", "121856.546000", "121856.546000", "121856.546000", "121856.546000", "121856.546000", "121856.546000", "121856.562000", "121856.562000", "121856.562000", "121856.562000", "121856.562000", "121856.562000", "121856.562000", "121856.578000", "121856.578000", "121916.515000", "121916.515000", "121916.531000", "121916.531000", "121916.531000", "121916.531000", "121916.531000", "121916.531000", "121916.531000", "121916.531000", "121916.546000", "121916.546000", "121916.546000", "121916.546000", "121916.546000", "121916.546000", "121916.546000", "121916.562000", "121916.562000", "121916.562000", "121916.562000", "121916.562000", "121916.578000", "121916.578000", "121916.578000", "121936.515000", "121936.515000", "121936.531000", "121936.531000", "121936.531000", "121936.531000", "121936.531000", "121936.531000", "121936.531000", "121936.546000", "121936.546000", "121936.546000", "121936.546000", "121936.546000", "121936.546000", "121936.546000", "121936.546000", "121936.562000", "121936.562000", "121936.562000", "121936.562000", "121936.578000", "121936.578000", "121936.578000", "121936.578000", "121936.578000", "121944.359000", "121944.359000", "121944.359000", "121944.359000", "121944.359000", "121944.359000", "121944.375000", "121944.375000", "121944.375000", "121944.375000"],
