{
  "AcquisitionMatrixPE": 104,
  "AcquisitionNumber": 1,
  "AcquisitionTime": "11:38:57.725000",
  "BandwidthPerPixelPhaseEncode": 13.935,
  "BaseResolution": 104,
  "CoilString": "C:HEA;HEP",
  "ConversionSoftware": "dcm2niix",
  "ConversionSoftwareVersion": "v1.0.20210317",
  "DerivedVendorReportedEchoSpacing": 0.000690017,
  "DeviceSerialNumber": "35450",
  "DwellTime": 2.5e-06,
  "EchoTime": 0.0348,
  "EffectiveEchoSpacing": 0.000690017,
  "FlipAngle": 55,
  "ImageComments": "Unaliased MB8/PE3 (remote)",
  "ImageOrientationPatientDICOM": [0.999946, -0.00187463, -0.0102168, 5.2022e-08, 0.983581, -0.180466],
  "ImageType": [
    "ORIGINAL",
    "PRIMARY",
    "M",
    "MB",
    "ND",
    "MOSAIC"
],
  "ImagingFrequency": 123.235,
  "InPlanePhaseEncodingDirectionDICOM": "COL",
  "InstitutionAddress": "Univeristy Ave. 197,Newark,North East,US,07102-1814",
  "InstitutionName": "RUBIC",
  "InstitutionalDepartmentName": "Department",
  "MRAcquisitionType": "2D",
  "MagneticFieldStrength": 3,
  "Manufacturer": "Siemens",
  "ManufacturersModelName": "TrioTim",
  "Modality": "MR",
  "MultibandAccelerationFactor": 8,
  "PartialFourier": 0.875,
  "PatientPosition": "HFS",
  "PercentPhaseFOV": 100,
  "PercentSampling": 100,
  "PhaseEncodingDirection": "j-",
  "PhaseEncodingSteps": 91,
  "PhaseResolution": 1,
  "PixelBandwidth": 1923,
  "ProcedureStepDescription": "Cole^Michael",
  "ProtocolName": "cmrr_mbep2d_bold_2mm_MB8_Task_8x",
  "PulseSequenceDetails": "%CustomerSeq%\\cmrr_mbep2d_bold",
  "ReceiveCoilName": "32Ch_Head",
  "ReconMatrixPE": 104,
  "RepetitionTime": 0.785,
  "SAR": 0.118457,
  "ScanOptions": "PFP\\FS",
  "ScanningSequence": "EP",
  "SequenceName": "epfid2d1_104",
  "SequenceVariant": "SK\\SS",
  "SeriesDescription": "cmrr_mbep2d_bold_2mm_MB8_Task_8x",
  "SeriesNumber": 15,
  "ShimSetting": [2077, -368, -7257, 443, 248, -667, -97, -7],
  "SliceThickness": 2,
  "SliceTiming": [0, 0.4375, 0.0875, 0.525, 0.175, 0.6125, 0.2625, 0.7, 0.35, 0, 0.4375, 0.0875, 0.525, 0.175, 0.6125, 0.2625, 0.7, 0.35, 0, 0.4375, 0.0875, 0.525, 0.175, 0.6125, 0.2625, 0.7, 0.35, 0, 0.4375, 0.0875, 0.525, 0.175, 0.6125, 0.2625, 0.7, 0.35, 0, 0.4375, 0.0875, 0.525, 0.175, 0.6125, 0.2625, 0.7, 0.35, 0, 0.4375, 0.0875, 0.525, 0.175, 0.6125, 0.2625, 0.7, 0.35, 0, 0.4375, 0.0875, 0.525, 0.175, 0.6125, 0.2625, 0.7, 0.35, 0, 0.4375, 0.0875, 0.525, 0.175, 0.6125, 0.2625, 0.7, 0.35],
  "SoftwareVersions": "syngo MR B19",
  "SpacingBetweenSlices": 2,
  "StationName": "MRC35450",
  "TaskName": "cpro",
  "TotalReadoutTime": 0.0710717,
  "TxRefAmp": 317.333,
  "dcmmeta_affine": [
    [-1.9998921155929565, 1.0404392014606856e-07, -0.020774783566594124, 105.44805908203125],
    [0.003749253461137414, 1.9671622514724731, -0.36091339588165283, -74.31863403320312],
    [-0.020433668047189713, 0.360932856798172, 1.967056155204773, -110.6610336303711],
    [0.0, 0.0, 0.0, 1.0]
],
  "dcmmeta_reorient_transform": [
    [0.0, -1.0, 0.0, 103.0],
    [1.0, 0.0, 0.0, 0.0],
    [0.0, 0.0, 1.0, 0.0],
    [0.0, 0.0, 0.0, 1.0]
],
  "dcmmeta_shape": [104, 104, 72, 581],
  "dcmmeta_slice_dim": 2,
  "dcmmeta_version": 0.6,
  "global": {
    "const": {
      "AcquisitionMatrix": [104, 0, 0, 104],
      "AngioFlag": "N",
      "BitsAllocated": 16,
      "BitsStored": 12,
      "Columns": 936,
      "EchoNumbers": 1,
      "EchoTime": 34.8,
      "EchoTrainLength": 1,
      "FlipAngle": 55.0,
      "HighBit": 11,
      "ImageOrientationPatient": [0.99994604958683, -0.0018746267239, -0.0102168336747, 5.2021961e-08, 0.98358114475792, -0.1804664281153],
      "ImagePositionPatient": [-937.40322637591, -945.078905723, 85.163523513928],
      "ImageType": [
        "ORIGINAL",
        "PRIMARY",
        "M",
        "MB",
        "ND",
        "MOSAIC"
],
      "ImagedNucleus": "1H",
      "ImagingFrequency": 123.234518,
      "InPlanePhaseEncodingDirection": "COL",
      "MRAcquisitionType": "2D",
      "MagneticFieldStrength": 3.0,
      "Manufacturer": "SIEMENS",
      "ManufacturerModelName": "TrioTim",
      "Modality": "MR",
      "NumberOfAverages": 1.0,
      "NumberOfPhaseEncodingSteps": 91,
      "PercentPhaseFieldOfView": 100.0,
      "PercentSampling": 100.0,
      "PerformedProcedureStepStartTime": "101512.937000",
      "PhotometricInterpretation": "MONOCHROME2",
      "PixelBandwidth": 1923.0,
      "PixelRepresentation": 0,
      "PixelSpacing": [2.0, 2.0],
      "ProtocolName": "cmrr_mbep2d_bold_2mm_MB8_Task_8x",
      "RepetitionTime": 785.0,
      "Rows": 936,
      "SAR": 0.11845703414073,
      "SamplesPerPixel": 1,
      "ScanOptions": [
        "PFP",
        "FS"
],
      "ScanningSequence": "EP",
      "SequenceName": "epfid2d1_104",
      "SequenceVariant": [
        "SK",
        "SS"
],
      "SeriesDescription": "cmrr_mbep2d_bold_2mm_MB8_Task_8x",
      "SeriesNumber": 15,
      "SeriesTime": "113916.921000",
      "SliceLocation": -96.522270513934,
      "SliceThickness": 2.0,
      "SmallestImagePixelValue": 0,
      "SoftwareVersions": "syngo MR B19",
      "SpacingBetweenSlices": 2.0000000063378,
      "SpecificCharacterSet": "ISO_IR 100",
      "StudyID": "1",
      "StudyTime": "101512.890000",
      "TransmitCoilName": "Body",
      "VariableFlipAngleFlag": "N",
      "WindowCenterWidthExplanation": "Algo1",
      "dBdt": 0.0},
    "slices": {}
  },
  "time": {
    "samples": {
      "AcquisitionNumber": [1, 2, 3, 4, 5, 6, 7, 8, 9, 10, 11, 12, 13, 14, 15, 16, 17, 18, 19, 20, 21, 22, 23, 24, 25, 26, 27, 28, 29, 30, 31, 32, 33, 34, 35, 36, 37, 38, 39, 40, 41, 42, 43, 44, 45, 46, 47, 48, 49, 50, 51, 52, 53, 54, 55, 56, 57, 58, 59, 60, 61, 62, 63, 64, 65, 66, 67, 68, 69, 70, 71, 72, 73, 74, 75, 76, 77, 78, 79, 80, 81, 82, 83, 84, 85, 86, 87, 88, 89, 90, 91, 92, 93, 94, 95, 96, 97, 98, 99, 100, 101, 102, 103, 104, 105, 106, 107, 108, 109, 110, 111, 112, 113, 114, 115, 116, 117, 118, 119, 120, 121, 122, 123, 124, 125, 126, 127, 128, 129, 130, 131, 132, 133, 134, 135, 136, 137, 138, 139, 140, 141, 142, 143, 144, 145, 146, 147, 148, 149, 150, 151, 152, 153, 154, 155, 156, 157, 158, 159, 160, 161, 162, 163, 164, 165, 166, 167, 168, 169, 170, 171, 172, 173, 174, 175, 176, 177, 178, 179, 180, 181, 182, 183, 184, 185, 186, 187, 188, 189, 190, 191, 192, 193, 194, 195, 196, 197, 198, 199, 200, 201, 202, 203, 204, 205, 206, 207, 208, 209, 210, 211, 212, 213, 214, 215, 216, 217, 218, 219, 220, 221, 222, 223, 224, 225, 226, 227, 228, 229, 230, 231, 232, 233, 234, 235, 236, 237, 238, 239, 240, 241, 242, 243, 244, 245, 246, 247, 248, 249, 250, 251, 252, 253, 254, 255, 256, 257, 258, 259, 260, 261, 262, 263, 264, 265, 266, 267, 268, 269, 270, 271, 272, 273, 274, 275, 276, 277, 278, 279, 280, 281, 282, 283, 284, 285, 286, 287, 288, 289, 290, 291, 292, 293, 294, 295, 296, 297, 298, 299, 300, 301, 302, 303, 304, 305, 306, 307, 308, 309, 310, 311, 312, 313, 314, 315, 316, 317, 318, 319, 320, 321, 322, 323, 324, 325, 326, 327, 328, 329, 330, 331, 332, 333, 334, 335, 336, 337, 338, 339, 340, 341, 342, 343, 344, 345, 346, 347, 348, 349, 350, 351, 352, 353, 354, 355, 356, 357, 358, 359, 360, 361, 362, 363, 364, 365, 366, 367, 368, 369, 370, 371, 372, 373, 374, 375, 376, 377, 378, 379, 380, 381, 382, 383, 384, 385, 386, 387, 388, 389, 390, 391, 392, 393, 394, 395, 396, 397, 398, 399, 400, 401, 402, 403, 404, 405, 406, 407, 408, 409, 410, 411, 412, 413, 414, 415, 416, 417, 418, 419, 420, 421, 422, 423, 424, 425, 426, 427, 428, 429, 430, 431, 432, 433, 434, 435, 436, 437, 438, 439, 440, 441, 442, 443, 444, 445, 446, 447, 448, 449, 450, 451, 452, 453, 454, 455, 456, 457, 458, 459, 460, 461, 462, 463, 464, 465, 466, 467, 468, 469, 470, 471, 472, 473, 474, 475, 476, 477, 478, 479, 480, 481, 482, 483, 484, 485, 486, 487, 488, 489, 490, 491, 492, 493, 494, 495, 496, 497, 498, 499, 500, 501, 502, 503, 504, 505, 506, 507, 508, 509, 510, 511, 512, 513, 514, 515, 516, 517, 518, 519, 520, 521, 522, 523, 524, 525, 526, 527, 528, 529, 530, 531, 532, 533, 534, 535, 536, 537, 538, 539, 540, 541, 542, 543, 544, 545, 546, 547, 548, 549, 550, 551, 552, 553, 554, 555, 556, 557, 558, 559, 560, 561, 562, 563, 564, 565, 566, 567, 568, 569, 570, 571, 572, 573, 574, 575, 576, 577, 578, 579, 580, 581],
      "AcquisitionTime": ["113857.725000", "113858.512500", "113859.302500", "113900.090000", "113900.877500", "113901.667500", "113902.455000", "113903.242500", "113904.030000", "113904.820000", "113905.607500", "113906.395000", "113907.182500", "113907.972500", "113908.760000", "113909.547500", "113910.335000", "113911.125000", "113911.912500", "113912.700000", "113913.487500", "113914.277500", "113915.065000", "113915.852500", "113916.640000", "113917.430000", "113918.217500", "113919.005000", "113919.795000", "113920.582500", "113921.370000", "113922.157500", "113922.947500", "113923.735000", "113924.522500", "113925.310000", "113926.100000", "113926.887500", "113927.675000", "113928.462500", "113929.252500", "113930.040000", "113930.827500", "113931.615000", "113932.405000", "113933.192500", "113933.980000", "113934.767500", "113935.557500", "113936.345000", "113937.132500", "113937.922500", "113938.710000", "113939.497500", "113940.285000", "113941.075000", "113941.862500", "113942.650000", "113943.437500", "113944.227500", "113945.015000", "113945.802500", "113946.590000", "113947.380000", "113948.167500", "113948.955000", "113949.742500", "113950.532500", "113951.320000", "113952.107500", "113952.895000", "113953.685000", "113954.472500", "113955.260000", "113956.050000", "113956.837500", "113957.625000", "113958.412500", "113959.202500", "113959.990000", "114000.777500", "114001.565000", "114002.355000", "114003.142500", "114003.930000", "114004.717500", "114005.507500", "114006.295000", "114007.082500", "114007.870000", "114008.660000", "114009.447500", "114010.235000", "114011.022500", "114011.812500", "114012.600000", "114013.387500", "114014.177500", "114014.965000", "114015.752500", "114016.540000", "114017.330000", "114018.117500", "114018.905000", "114019.692500", "114020.482500", "114021.270000", "114022.057500", "114022.845000", "114023.635000", "114024.422500", "114025.210000", "114025.997500", "114026.787500", "114027.575000", "114028.362500", "114029.150000", "114029.940000", "114030.727500", "114031.515000", "114032.305000", "114033.092500", "114033.880000", "114034.667500", "114035.457500", "114036.245000", "114037.032500", "114037.820000", "114038.610000", "114039.397500", "114040.185000", "114040.972500", "114041.762500", "114042.550000", "114043.337500", "114044.125000", "114044.915000", "114045.702500", "114046.490000", "114047.277500", "114048.067500", "114048.855000", "114049.642500", "114050.432500", "114051.220000", "114052.007500", "114052.795000", "114053.585000", "114054.372500", "114055.160000", "114055.947500", "114056.737500", "114057.525000", "114058.312500", "114059.100000", "114059.890000", "114100.677500", "114101.465000", "114102.252500", "114103.042500", "114103.830000", "114104.617500", "114105.407500", "114106.195000", "114106.982500", "114107.770000", "114108.560000", "114109.347500", "114110.135000", "114110.922500", "114111.712500", "114112.500000", "114113.287500", "114114.075000", "114114.865000", "114115.652500", "114116.440000", "114117.227500", "114118.017500", "114118.805000", "114119.592500", "114120.380000", "114121.170000", "114121.957500", "114122.745000", "114123.535000", "114124.322500", "114125.110000", "114125.897500", "114126.687500", "114127.475000", "114128.262500", "114129.050000", "114129.840000", "114130.627500", "114131.415000", "114132.202500", "114132.992500", "114133.780000", "114134.567500", "114135.355000", "114136.145000", "114136.932500", "114137.720000", "114138.507500", "114139.297500", "114140.085000", "114140.872500", "114141.662500", "114142.450000", "114143.237500", "114144.025000", "114144.815000", "114145.602500", "114146.390000", "114147.177500", "114147.967500", "114148.755000", "114149.542500", "114150.330000", "114151.120000", "114151.907500", "114152.695000", "114153.482500", "114154.272500", "114155.060000", "114155.847500", "114156.635000", "114157.425000", "114158.212500", "114159.000000", "114159.790000", "114200.577500", "114201.365000", "114202.152500", "114202.942500", "114203.730000", "114204.517500", "114205.305000", "114206.095000", "114206.882500", "114207.670000", "114208.457500", "114209.247500", "114210.035000", "114210.822500", "114211.610000", "114212.400000", "114213.187500", "114213.975000", "114214.762500", "114215.552500", "114216.340000", "114217.127500", "114217.917500", "114218.705000", "114219.492500", "114220.280000", "114221.070000", "114221.857500", "114222.645000", "114223.432500", "114224.222500", "114225.010000", "114225.797500", "114226.585000", "114227.375000", "114228.162500", "114228.950000", "114229.737500", "114230.527500", "114231.315000", "114232.102500", "114232.890000", "114233.680000", "114234.467500", "114235.255000", "114236.045000", "114236.832500", "114237.620000", "114238.407500", "114239.197500", "114239.985000", "114240.772500", "114241.560000", "114242.350000", "114243.137500", "114243.925000", "114244.712500", "114245.502500", "114246.290000", "114247.077500", "114247.865000", "114248.655000", "114249.442500", "114250.230000", "114251.017500", "114251.807500", "114252.595000", "114253.382500", "114254.172500", "114254.960000", "114255.747500", "114256.535000", "114257.325000", "114258.112500", "114258.900000", "114259.687500", "114300.477500", "114301.265000", "114302.052500", "114302.840000", "114303.630000", "114304.417500", "114305.205000", "114305.992500", "114306.782500", "114307.570000", "114308.357500", "114309.145000", "114309.935000", "114310.722500", "114311.510000", "114312.300000", "114313.087500", "114313.875000", "114314.662500", "114315.452500", "114316.240000", "114317.027500", "114317.815000", "114318.605000", "114319.392500", "114320.180000", "114320.967500", "114321.757500", "114322.545000", "114323.332500", "114324.120000", "114324.910000", "114325.697500", "114326.485000", "114327.272500", "114328.062500", "114328.850000", "114329.637500", "114330.427500", "114331.215000", "114332.002500", "114332.790000", "114333.580000", "114334.367500", "114335.155000", "114335.942500", "114336.732500", "114337.520000", "114338.307500", "114339.095000", "114339.885000", "114340.672500", "114341.460000", "114342.247500", "114343.037500", "114343.825000", "114344.612500", "114345.400000", "114346.190000", "114346.977500", "114347.765000", "114348.555000", "114349.342500", "114350.130000", "114350.917500", "114351.707500", "114352.495000", "114353.282500", "114354.070000", "114354.860000", "114355.647500", "114356.435000", "114357.222500", "114358.012500", "114358.800000", "114359.587500", "114400.375000", "114401.165000", "114401.952500", "114402.740000", "114403.527500", "114404.317500", "114405.105000", "114405.892500", "114406.682500", "114407.470000", "114408.257500", "114409.045000", "114409.835000", "114410.622500", "114411.410000", "114412.197500", "114412.987500", "114413.775000", "114414.562500", "114415.350000", "114416.140000", "114416.927500", "114417.715000", "114418.502500", "114419.292500", "114420.080000", "114420.867500", "114421.657500", "114422.445000", "114423.232500", "114424.020000", "114424.810000", "114425.597500", "114426.385000", "114427.172500", "114427.962500", "114428.750000", "114429.537500", "114430.325000", "114431.115000", "114431.902500", "114432.690000", "114433.477500", "114434.267500", "114435.055000", "114435.842500", "114436.630000", "114437.420000", "114438.207500", "114438.995000", "114439.785000", "114440.572500", "114441.360000", "114442.147500", "114442.937500", "114443.725000", "114444.512500", "114445.300000", "114446.090000", "114446.877500", "114447.665000", "114448.452500", "114449.242500", "114450.030000", "114450.817500", "114451.605000", "114452.395000", "114453.182500", "114453.970000", "114454.757500", "114455.547500", "114456.335000", "114457.122500", "114457.912500", "114458.700000", "114459.487500", "114500.275000", "114501.065000", "114501.852500", "114502.640000", "114503.427500", "114504.217500", "114505.005000", "114505.792500", "114506.580000", "114507.370000", "114508.157500", "114508.945000", "114509.732500", "114510.522500", "114511.310000", "114512.097500", "114512.885000", "114513.675000", "114514.462500", "114515.250000", "114516.040000", "114516.827500", "114517.615000", "114518.402500", "114519.192500", "114519.980000", "114520.767500", "114521.555000", "114522.345000", "114523.132500", "114523.920000", "114524.707500", "114525.497500", "114526.285000", "114527.072500", "114527.860000", "114528.650000", "114529.437500", "114530.225000", "114531.012500", "114531.802500", "114532.590000", "114533.377500", "114534.167500", "114534.955000", "114535.742500", "114536.530000", "114537.320000", "114538.107500", "114538.895000", "114539.682500", "114540.472500", "114541.260000", "114542.047500", "114542.835000", "114543.625000", "114544.412500", "114545.200000", "114545.987500", "114546.777500", "114547.565000", "114548.352500", "114549.140000", "114549.930000", "114550.717500", "114551.505000", "114552.295000", "114553.082500", "114553.870000", "114554.657500", "114555.447500", "114556.235000", "114557.022500", "114557.810000", "114558.600000", "114559.387500", "114600.175000", "114600.962500", "114601.752500", "114602.540000", "114603.327500", "114604.115000", "114604.905000", "114605.692500", "114606.480000", "114607.267500", "114608.057500", "114608.845000", "114609.632500", "114610.422500", "114611.210000", "114611.997500", "114612.785000", "114613.575000", "114614.362500", "114615.150000", "114615.937500", "114616.727500", "114617.515000", "114618.302500", "114619.090000", "114619.880000", "114620.667500", "114621.455000", "114622.242500", "114623.032500", "114623.820000", "114624.607500", "114625.395000", "114626.185000", "114626.972500", "114627.760000", "114628.550000", "114629.337500", "114630.125000", "114630.912500", "114631.702500", "114632.490000", "114633.277500", "114634.065000", "114634.855000"],
      "ContentTime": ["113916.921000", "113916.921000", "113916.921000", "113916.921000", "113916.937000", "113916.937000", "113916.937000", "113916.937000", "113916.937000", "113916.937000", "113916.937000", "113916.937000", "113916.953000", "113916.953000", "113916.953000", "113916.953000", "113916.953000", "113916.953000", "113916.953000", "113916.953000", "113916.968000", "113936.890000", "113936.890000", "113936.906000", "113936.906000", "113936.906000", "113936.906000", "113936.906000", "113936.906000", "113936.906000", "113936.906000", "113936.921000", "113936.921000", "113936.921000", "113936.921000", "113936.921000", "113936.921000", "113936.921000", "113936.937000", "113936.937000", "113936.937000", "113936.937000", "113936.937000", "113936.937000", "113936.937000", "113936.937000", "113956.890000", "113956.890000", "113956.906000", "113956.906000", "113956.906000", "113956.906000", "113956.906000", "113956.906000", "113956.906000", "113956.906000", "113956.921000", "113956.921000", "113956.921000", "113956.921000", "113956.921000", "113956.921000", "113956.921000", "113956.937000", "113956.937000", "113956.937000", "113956.937000", "113956.937000", "113956.937000", "113956.937000", "113956.953000", "113956.953000", "114016.890000", "114016.890000", "114016.906000", "114016.906000", "114016.906000", "114016.906000", "114016.906000", "114016.906000", "114016.906000", "114016.921000", "114016.921000", "114016.921000", "114016.921000", "114016.921000", "114016.921000", "114016.921000", "114016.937000", "114016.937000", "114016.937000", "114016.937000", "114016.937000", "114016.937000", "114016.937000", "114016.953000", "114016.953000", "114036.890000", "114036.890000", "114036.906000", "114036.906000", "114036.906000", "114036.906000", "114036.906000", "114036.906000", "114036.906000", "114036.906000", "114036.921000", "114036.921000", "114036.921000", "114036.921000", "114036.921000", "114036.921000", "114036.921000", "114036.937000", "114036.937000", "114036.937000", "114036.937000", "114036.937000", "114036.937000", "114036.953000", "114036.953000", "114036.953000", "114056.890000", "114056.890000", "114056.906000", "114056.906000", "114056.906000", "114056.906000", "114056.906000", "114056.906000", "114056.921000", "114056.921000", "114056.921000", "114056.921000", "114056.921000", "114056.921000", "114056.921000", "114056.921000", "114056.937000", "114056.937000", "114056.937000", "114056.937000", "114056.937000", "114056.937000", "114056.953000", "114056.953000", "114056.953000", "114116.890000", "114116.890000", "114116.906000", "114116.906000", "114116.906000", "114116.906000", "114116.906000", "114116.906000", "114116.906000", "114116.906000", "114116.921000", "114116.921000", "114116.921000", "114116.921000", "114116.921000", "114116.937000", "114116.937000", "114116.937000", "114116.937000", "114116.937000", "114116.937000", "114116.937000", "114116.937000", "114116.953000", "114116.953000", "114116.953000", "114136.890000", "114136.890000", "114136.906000", "114136.906000", "114136.906000", "114136.906000", "114136.906000", "114136.906000", "114136.906000", "114136.906000", "114136.921000", "114136.921000", "114136.921000", "114136.921000", "114136.921000", "114136.937000", "114136.937000", "114136.937000", "114136.937000", "114136.937000", "114136.937000", "114136.937000", "114136.937000", "114136.953000", "114136.953000", "114156.890000", "114156.890000", "114156.906000", "114156.906000", "114156.906000", "114156.906000", "114156.906000", "114156.906000", "114156.906000", "114156.921000", "114156.921000", "114156.921000", "114156.921000", "114156.921000", "114156.921000", "114156.921000", "114156.921000", "114156.937000", "114156.937000", "114156.937000", "114156.937000", "114156.937000", "114156.953000", "114156.953000", "114156.953000", "114156.953000", "114216.890000", "114216.890000", "114216.906000", "114216.906000", "114216.906000", "114216.906000", "114216.906000", "114216.906000", "114216.906000", "114216.906000", "114216.921000", "114216.921000", "114216.921000", "114216.921000", "114216.921000", "114216.921000", "114216.921000", "114216.937000", "114216.937000", "114216.937000", "114216.937000", "114216.937000", "114216.937000", "114216.937000", "114216.937000", "114236.890000", "114236.890000", "114236.906000", "114236.906000", "114236.906000", "114236.906000", "114236.906000", "114236.906000", "114236.906000", "114236.906000", "114236.921000", "114236.921000", "114236.921000", "114236.921000", "114236.921000", "114236.921000", "114236.921000", "114236.937000", "114236.937000", "114236.937000", "114236.937000", "114236.937000", "114236.937000", "114236.937000", "114236.937000", "114236.953000", "114256.890000", "114256.906000", "114256.906000", "114256.906000", "114256.906000", "114256.906000", "114256.906000", "114256.906000", "114256.906000", "114256.921000", "114256.921000", "114256.921000", "114256.921000", "114256.921000", "114256.921000", "114256.921000", "114256.937000", "114256.937000", "114256.937000", "114256.937000", "114256.937000", "114256.937000", "114256.937000", "114256.953000", "114256.953000", "114316.890000", "114316.890000", "114316.906000", "114316.906000", "114316.906000", "114316.906000", "114316.906000", "114316.906000", "114316.906000", "114316.906000", "114316.921000", "114316.921000", "114316.921000", "114316.921000", "114316.921000", "114316.937000", "114316.937000", "114316.937000", "114316.937000", "114316.937000", "114316.937000", "114316.937000", "114316.937000", "114316.953000", "114316.953000", "114316.953000", "114336.890000", "114336.890000", "114336.906000", "114336.906000", "114336.906000", "114336.906000", "114336.906000", "114336.906000", "114336.906000", "114336.921000", "114336.921000", "114336.921000", "114336.921000", "114336.921000", "114336.921000", "114336.937000", "114336.937000", "114336.937000", "114336.937000", "114336.937000", "114336.937000", "114336.937000", "114336.937000", "114336.953000", "114336.953000", "114356.890000", "114356.890000", "114356.906000", "114356.906000", "114356.906000", "114356.906000", "114356.906000", "114356.906000", "114356.906000", "114356.906000", "114356.921000", "114356.921000", "114356.921000", "114356.921000", "114356.921000", "114356.921000", "114356.921000", "114356.937000", "114356.937000", "114356.937000", "114356.937000", "114356.937000", "114356.937000", "114356.937000", "114356.937000", "114356.953000", "114416.890000", "114416.890000", "114416.906000", "114416.906000", "114416.906000", "114416.906000", "114416.906000", "114416.906000", "114416.906000", "114416.906000", "114416.921000", "114416.921000", "114416.921000", "114416.921000", "114416.921000", "114416.921000", "114416.921000", "114416.937000", "114416.937000", "114416.937000", "114416.937000", "114416.953000", "114416.953000", "114416.953000", "114416.953000", "114436.890000", "114436.890000", "114436.906000", "114436.906000", "114436.906000", "114436.906000", "114436.906000", "114436.906000", "114436.906000", "114436.921000", "114436.921000", "114436.921000", "114436.921000", "114436.921000", "114436.921000", "114436.921000", "114436.937000", "114436.937000", "114436.937000", "114436.937000", "114436.937000", "114436.937000", "114436.937000", "114436.937000", "114436.953000", "114456.890000", "114456.890000", "114456.906000", "114456.906000", "114456.906000", "114456.906000", "114456.906000", "114456.906000", "114456.906000", "114456.906000", "114456.921000", "114456.921000", "114456.921000", "114456.921000", "114456.921000", "114456.921000", "114456.921000", "114456.937000", "114456.937000", "114456.937000", "114456.937000", "114456.937000", "114456.953000", "114456.953000", "114456.953000", "114456.953000", "114516.890000", "114516.890000", "114516.906000", "114516.906000", "114516.906000", "114516.906000", "114516.906000", "114516.906000", "114516.906000", "114516.921000", "114516.921000", "114516.921000", "114516.921000", "114516.921000", "114516.921000", "114516.921000", "114516.937000", "114516.937000", "114516.937000", "114516.937000", "114516.937000", "114516.953000", "114516.953000", "114516.953000", "114516.953000", "114536.890000", "114536.890000", "114536.906000", "114536.906000", "114536.906000", "114536.906000", "114536.906000", "114536.906000", "114536.906000", "114536.906000", "114536.921000", "114536.921000", "114536.921000", "114536.921000", "114536.921000", "114536.921000", "114536.921000", "114536.937000", "114536.937000", "114536.937000", "114536.937000", "114536.937000", "114536.937000", "114536.937000", "114536.953000", "114536.953000", "114556.890000", "114556.890000", "114556.906000", "114556.906000", "114556.906000", "114556.906000", "114556.906000", "114556.906000", "114556.906000", "114556.921000", "114556.921000", "114556.921000", "114556.921000", "114556.921000", "114556.921000", "114556.921000", "114556.921000", "114556.937000", "114556.937000", "114556.937000", "114556.937000", "114556.937000", "114556.937000", "114556.953000", "114556.953000", "114616.890000", "114616.890000", "114616.906000", "114616.906000", "114616.906000", "114616.906000", "114616.906000", "114616.906000", "114616.906000", "114616.906000", "114616.921000", "114616.921000", "114616.921000", "114616.921000", "114616.921000", "114616.921000", "114616.921000", "114616.937000", "114616.937000", "114616.937000", "114616.937000", "114616.937000", "114616.937000", "114616.937000", "114616.937000", "114616.953000", "114636.234000", "114636.234000", "114636.250000", "114636.250000", "114636.250000", "114636.250000", "114636.250000", "114636.250000", "114636.250000", "114636.265000", "114636.265000", "114636.265000", "114636.265000", "114636.265000", "114636.265000", "114636.265000", "114636.265000", "114636.281000", "114636.281000", "114636.281000", "114636.281000", "114636.281000", "114636.281000", "114636.281000", "114636.281000"],
