{
  "AcquisitionMatrixPE": 104,
  "AcquisitionNumber": 1,
  "AcquisitionTime": "12:20:13.690000",
  "BandwidthPerPixelPhaseEncode": 13.935,
  "BaseResolution": 104,
  "CoilString": "C:HEA;HEP",
  "ConversionSoftware": "dcm2niix",
  "ConversionSoftwareVersion": "v1.0.20210317",
  "DerivedVendorReportedEchoSpacing": 0.000690017,
  "DeviceSerialNumber": "35450",
  "DwellTime": 2.5e-06,
  "EchoTime": 0.0348,
  "EffectiveEchoSpacing": 0.000690017,
  "FlipAngle": 55,
  "ImageComments": "Unaliased MB8/PE3 (remote)",
  "ImageOrientationPatientDICOM": [0.999946, -0.00187463, -0.0102168, 5.2022e-08, 0.983581, -0.180466],
  "ImageType": [
    "ORIGINAL",
    "PRIMARY",
    "M",
    "MB",
    "ND",
    "MOSAIC"
],
  "ImagingFrequency": 123.235,
  "InPlanePhaseEncodingDirectionDICOM": "COL",
  "InstitutionAddress": "Univeristy Ave. 197,Newark,North East,US,07102-1814",
  "InstitutionName": "RUBIC",
  "InstitutionalDepartmentName": "Department",
  "MRAcquisitionType": "2D",
  "MagneticFieldStrength": 3,
  "Manufacturer": "Siemens",
  "ManufacturersModelName": "TrioTim",
  "Modality": "MR",
  "MultibandAccelerationFactor": 8,
  "PartialFourier": 0.875,
  "PatientPosition": "HFS",
  "PercentPhaseFOV": 100,
  "PercentSampling": 100,
  "PhaseEncodingDirection": "j-",
  "PhaseEncodingSteps": 91,
  "PhaseResolution": 1,
  "PixelBandwidth": 1923,
  "ProcedureStepDescription": "Cole^Michael",
  "ProtocolName": "cmrr_mbep2d_bold_2mm_MB8_Task_8x",
  "PulseSequenceDetails": "%CustomerSeq%\\cmrr_mbep2d_bold",
  "ReceiveCoilName": "32Ch_Head",
  "ReconMatrixPE": 104,
  "RepetitionTime": 0.785,
  "SAR": 0.118457,
  "ScanOptions": "PFP\\FS",
  "ScanningSequence": "EP",
  "SequenceName": "epfid2d1_104",
  "SequenceVariant": "SK\\SS",
  "SeriesDescription": "cmrr_mbep2d_bold_2mm_MB8_Task_8x",
  "SeriesNumber": 25,
  "ShimSetting": [2077, -368, -7257, 443, 248, -667, -97, -7],
  "SliceThickness": 2,
  "SliceTiming": [0, 0.4375, 0.0875, 0.525, 0.175, 0.6125, 0.2625, 0.7, 0.35, 0, 0.4375, 0.0875, 0.525, 0.175, 0.6125, 0.2625, 0.7, 0.35, 0, 0.4375, 0.0875, 0.525, 0.175, 0.6125, 0.2625, 0.7, 0.35, 0, 0.4375, 0.0875, 0.525, 0.175, 0.6125, 0.2625, 0.7, 0.35, 0, 0.4375, 0.0875, 0.525, 0.175, 0.6125, 0.2625, 0.7, 0.35, 0, 0.4375, 0.0875, 0.525, 0.175, 0.6125, 0.2625, 0.7, 0.35, 0, 0.4375, 0.0875, 0.525, 0.175, 0.6125, 0.2625, 0.7, 0.35, 0, 0.4375, 0.0875, 0.525, 0.175, 0.6125, 0.2625, 0.7, 0.35],
  "SoftwareVersions": "syngo MR B19",
  "SpacingBetweenSlices": 2,
  "StationName": "MRC35450",
  "TaskName": "cpro",
  "TotalReadoutTime": 0.0710717,
  "TxRefAmp": 317.333,
  "dcmmeta_affine": [
    [-1.9998921155929565, 1.0404392014606856e-07, -0.020774783566594124, 105.44805908203125],
    [0.003749253461137414, 1.9671622514724731, -0.36091339588165283, -74.31863403320312],
    [-0.020433668047189713, 0.360932856798172, 1.967056155204773, -110.6610336303711],
    [0.0, 0.0, 0.0, 1.0]
],
  "dcmmeta_reorient_transform": [
    [0.0, -1.0, 0.0, 103.0],
    [1.0, 0.0, 0.0, 0.0],
    [0.0, 0.0, 1.0, 0.0],
    [0.0, 0.0, 0.0, 1.0]
],
  "dcmmeta_shape": [104, 104, 72, 581],
  "dcmmeta_slice_dim": 2,
  "dcmmeta_version": 0.6,
  "global": {
    "const": {
      "AcquisitionMatrix": [104, 0, 0, 104],
      "AngioFlag": "N",
      "BitsAllocated": 16,
      "BitsStored": 12,
      "Columns": 936,
      "EchoNumbers": 1,
      "EchoTime": 34.8,
      "EchoTrainLength": 1,
      "FlipAngle": 55.0,
      "HighBit": 11,
      "ImageOrientationPatient": [0.99994604958683, -0.0018746267239, -0.0102168336747, 5.2021961e-08, 0.98358114475792, -0.1804664281153],
      "ImagePositionPatient": [-937.40322637591, -945.078905723, 85.163523513928],
      "ImageType": [
        "ORIGINAL",
        "PRIMARY",
        "M",
        "MB",
        "ND",
        "MOSAIC"
],
      "ImagedNucleus": "1H",
      "ImagingFrequency": 123.234518,
      "InPlanePhaseEncodingDirection": "COL",
      "MRAcquisitionType": "2D",
      "MagneticFieldStrength": 3.0,
      "Manufacturer": "SIEMENS",
      "ManufacturerModelName": "TrioTim",
      "Modality": "MR",
      "NumberOfAverages": 1.0,
      "NumberOfPhaseEncodingSteps": 91,
      "PercentPhaseFieldOfView": 100.0,
      "PercentSampling": 100.0,
      "PerformedProcedureStepStartTime": "101512.937000",
      "PhotometricInterpretation": "MONOCHROME2",
      "PixelBandwidth": 1923.0,
      "PixelRepresentation": 0,
      "PixelSpacing": [2.0, 2.0],
      "ProtocolName": "cmrr_mbep2d_bold_2mm_MB8_Task_8x",
      "RepetitionTime": 785.0,
      "Rows": 936,
      "SAR": 0.11845703414073,
      "SamplesPerPixel": 1,
      "ScanOptions": [
        "PFP",
        "FS"
],
      "ScanningSequence": "EP",
      "SequenceName": "epfid2d1_104",
      "SequenceVariant": [
        "SK",
        "SS"
],
      "SeriesDescription": "cmrr_mbep2d_bold_2mm_MB8_Task_8x",
      "SeriesNumber": 25,
      "SeriesTime": "122036.531000",
      "SliceLocation": -96.522270513934,
      "SliceThickness": 2.0,
      "SmallestImagePixelValue": 0,
      "SoftwareVersions": "syngo MR B19",
      "SpacingBetweenSlices": 2.0000000063378,
      "SpecificCharacterSet": "ISO_IR 100",
      "StudyID": "1",
      "StudyTime": "101512.890000",
      "TransmitCoilName": "Body",
      "VariableFlipAngleFlag": "N",
      "WindowCenterWidthExplanation": "Algo1",
      "dBdt": 0.0},
    "slices": {}
  },
  "time": {
    "samples": {
      "AcquisitionNumber": [1, 2, 3, 4, 5, 6, 7, 8, 9, 10, 11, 12, 13, 14, 15, 16, 17, 18, 19, 20, 21, 22, 23, 24, 25, 26, 27, 28, 29, 30, 31, 32, 33, 34, 35, 36, 37, 38, 39, 40, 41, 42, 43, 44, 45, 46, 47, 48, 49, 50, 51, 52, 53, 54, 55, 56, 57, 58, 59, 60, 61, 62, 63, 64, 65, 66, 67, 68, 69, 70, 71, 72, 73, 74, 75, 76, 77, 78, 79, 80, 81, 82, 83, 84, 85, 86, 87, 88, 89, 90, 91, 92, 93, 94, 95, 96, 97, 98, 99, 100, 101, 102, 103, 104, 105, 106, 107, 108, 109, 110, 111, 112, 113, 114, 115, 116, 117, 118, 119, 120, 121, 122, 123, 124, 125, 126, 127, 128, 129, 130, 131, 132, 133, 134, 135, 136, 137, 138, 139, 140, 141, 142, 143, 144, 145, 146, 147, 148, 149, 150, 151, 152, 153, 154, 155, 156, 157, 158, 159, 160, 161, 162, 163, 164, 165, 166, 167, 168, 169, 170, 171, 172, 173, 174, 175, 176, 177, 178, 179, 180, 181, 182, 183, 184, 185, 186, 187, 188, 189, 190, 191, 192, 193, 194, 195, 196, 197, 198, 199, 200, 201, 202, 203, 204, 205, 206, 207, 208, 209, 210, 211, 212, 213, 214, 215, 216, 217, 218, 219, 220, 221, 222, 223, 224, 225, 226, 227, 228, 229, 230, 231, 232, 233, 234, 235, 236, 237, 238, 239, 240, 241, 242, 243, 244, 245, 246, 247, 248, 249, 250, 251, 252, 253, 254, 255, 256, 257, 258, 259, 260, 261, 262, 263, 264, 265, 266, 267, 268, 269, 270, 271, 272, 273, 274, 275, 276, 277, 278, 279, 280, 281, 282, 283, 284, 285, 286, 287, 288, 289, 290, 291, 292, 293, 294, 295, 296, 297, 298, 299, 300, 301, 302, 303, 304, 305, 306, 307, 308, 309, 310, 311, 312, 313, 314, 315, 316, 317, 318, 319, 320, 321, 322, 323, 324, 325, 326, 327, 328, 329, 330, 331, 332, 333, 334, 335, 336, 337, 338, 339, 340, 341, 342, 343, 344, 345, 346, 347, 348, 349, 350, 351, 352, 353, 354, 355, 356, 357, 358, 359, 360, 361, 362, 363, 364, 365, 366, 367, 368, 369, 370, 371, 372, 373, 374, 375, 376, 377, 378, 379, 380, 381, 382, 383, 384, 385, 386, 387, 388, 389, 390, 391, 392, 393, 394, 395, 396, 397, 398, 399, 400, 401, 402, 403, 404, 405, 406, 407, 408, 409, 410, 411, 412, 413, 414, 415, 416, 417, 418, 419, 420, 421, 422, 423, 424, 425, 426, 427, 428, 429, 430, 431, 432, 433, 434, 435, 436, 437, 438, 439, 440, 441, 442, 443, 444, 445, 446, 447, 448, 449, 450, 451, 452, 453, 454, 455, 456, 457, 458, 459, 460, 461, 462, 463, 464, 465, 466, 467, 468, 469, 470, 471, 472, 473, 474, 475, 476, 477, 478, 479, 480, 481, 482, 483, 484, 485, 486, 487, 488, 489, 490, 491, 492, 493, 494, 495, 496, 497, 498, 499, 500, 501, 502, 503, 504, 505, 506, 507, 508, 509, 510, 511, 512, 513, 514, 515, 516, 517, 518, 519, 520, 521, 522, 523, 524, 525, 526, 527, 528, 529, 530, 531, 532, 533, 534, 535, 536, 537, 538, 539, 540, 541, 542, 543, 544, 545, 546, 547, 548, 549, 550, 551, 552, 553, 554, 555, 556, 557, 558, 559, 560, 561, 562, 563, 564, 565, 566, 567, 568, 569, 570, 571, 572, 573, 574, 575, 576, 577, 578, 579, 580, 581],
      "AcquisitionTime": ["122013.690000", "122014.477500", "122015.267500", "122016.055000", "122016.842500", "122017.630000", "122018.420000", "122019.207500", "122019.995000", "122020.782500", "122021.572500", "122022.360000", "122023.147500", "122023.935000", "122024.725000", "122025.512500", "122026.300000", "122027.090000", "122027.877500", "122028.665000", "122029.452500", "122030.242500", "122031.030000", "122031.817500", "122032.605000", "122033.395000", "122034.182500", "122034.970000", "122035.757500", "122036.547500", "122037.335000", "122038.122500", "122038.910000", "122039.700000", "122040.487500", "122041.275000", "122042.062500", "122042.852500", "122043.640000", "122044.427500", "122045.217500", "122046.005000", "122046.792500", "122047.580000", "122048.370000", "122049.157500", "122049.945000", "122050.732500", "122051.522500", "122052.310000", "122053.097500", "122053.885000", "122054.675000", "122055.462500", "122056.250000", "122057.037500", "122057.827500", "122058.615000", "122059.402500", "122100.190000", "122100.980000", "122101.767500", "122102.555000", "122103.345000", "122104.132500", "122104.920000", "122105.707500", "122106.497500", "122107.285000", "122108.072500", "122108.860000", "122109.650000", "122110.437500", "122111.225000", "122112.012500", "122112.802500", "122113.590000", "122114.377500", "122115.165000", "122115.955000", "122116.742500", "122117.530000", "122118.317500", "122119.107500", "122119.895000", "122120.682500", "122121.472500", "122122.260000", "122123.047500", "122123.835000", "122124.625000", "122125.412500", "122126.200000", "122126.987500", "122127.777500", "122128.565000", "122129.352500", "122130.140000", "122130.930000", "122131.717500", "122132.505000", "122133.292500", "122134.082500", "122134.870000", "122135.657500", "122136.445000", "122137.235000", "122138.022500", "122138.810000", "122139.600000", "122140.387500", "122141.175000", "122141.962500", "122142.752500", "122143.540000", "122144.327500", "122145.115000", "122145.905000", "122146.692500", "122147.480000", "122148.267500", "122149.057500", "122149.845000", "122150.632500", "122151.420000", "122152.210000", "122152.997500", "122153.785000", "122154.572500", "122155.362500", "122156.150000", "122156.937500", "122157.727500", "122158.515000", "122159.302500", "122200.090000", "122200.880000", "122201.667500", "122202.455000", "122203.242500", "122204.032500", "122204.820000", "122205.607500", "122206.395000", "122207.185000", "122207.972500", "122208.760000", "122209.547500", "122210.337500", "122211.125000", "122211.912500", "122212.700000", "122213.490000", "122214.277500", "122215.065000", "122215.855000", "122216.642500", "122217.430000", "122218.217500", "122219.007500", "122219.795000", "122220.582500", "122221.370000", "122222.160000", "122222.947500", "122223.735000", "122224.522500", "122225.312500", "122226.100000", "122226.887500", "122227.675000", "122228.465000", "122229.252500", "122230.040000", "122230.830000", "122231.617500", "122232.405000", "122233.192500", "122233.982500", "122234.770000", "122235.557500", "122236.345000", "122237.135000", "122237.922500", "122238.710000", "122239.497500", "122240.287500", "122241.075000", "122241.862500", "122242.650000", "122243.440000", "122244.227500", "122245.015000", "122245.802500", "122246.592500", "122247.380000", "122248.167500", "122248.957500", "122249.745000", "122250.532500", "122251.320000", "122252.110000", "122252.897500", "122253.685000", "122254.472500", "122255.262500", "122256.050000", "122256.837500", "122257.625000", "122258.415000", "122259.202500", "122259.990000", "122300.777500", "122301.567500", "122302.355000", "122303.142500", "122303.930000", "122304.720000", "122305.507500", "122306.295000", "122307.085000", "122307.872500", "122308.660000", "122309.447500", "122310.237500", "122311.025000", "122311.812500", "122312.600000", "122313.390000", "122314.177500", "122314.965000", "122315.752500", "122316.542500", "122317.330000", "122318.117500", "122318.905000", "122319.695000", "122320.482500", "122321.270000", "122322.057500", "122322.847500", "122323.635000", "122324.422500", "122325.212500", "122326.000000", "122326.787500", "122327.575000", "122328.365000", "122329.152500", "122329.940000", "122330.727500", "122331.517500", "122332.305000", "122333.092500", "122333.880000", "122334.670000", "122335.457500", "122336.245000", "122337.032500", "122337.822500", "122338.610000", "122339.397500", "122340.185000", "122340.975000", "122341.762500", "122342.550000", "122343.340000", "122344.127500", "122344.915000", "122345.702500", "122346.492500", "122347.280000", "122348.067500", "122348.855000", "122349.645000", "122350.432500", "122351.220000", "122352.007500", "122352.797500", "122353.585000", "122354.372500", "122355.160000", "122355.950000", "122356.737500", "122357.525000", "122358.312500", "122359.102500", "122359.890000", "122400.677500", "122401.467500", "122402.255000", "122403.042500", "122403.830000", "122404.620000", "122405.407500", "122406.195000", "122406.982500", "122407.772500", "122408.560000", "122409.347500", "122410.135000", "122410.925000", "122411.712500", "122412.500000", "122413.287500", "122414.077500", "122414.865000", "122415.652500", "122416.440000", "122417.230000", "122418.017500", "122418.805000", "122419.595000", "122420.382500", "122421.170000", "122421.957500", "122422.747500", "122423.535000", "122424.322500", "122425.110000", "122425.900000", "122426.687500", "122427.475000", "122428.262500", "122429.052500", "122429.840000", "122430.627500", "122431.415000", "122432.205000", "122432.992500", "122433.780000", "122434.567500", "122435.357500", "122436.145000", "122436.932500", "122437.722500", "122438.510000", "122439.297500", "122440.085000", "122440.875000", "122441.662500", "122442.450000", "122443.237500", "122444.027500", "122444.815000", "122445.602500", "122446.390000", "122447.180000", "122447.967500", "122448.755000", "122449.542500", "122450.332500", "122451.120000", "122451.907500", "122452.695000", "122453.485000", "122454.272500", "122455.060000", "122455.850000", "122456.637500", "122457.425000", "122458.212500", "122459.002500", "122459.790000", "122500.577500", "122501.365000", "122502.155000", "122502.942500", "122503.730000", "122504.517500", "122505.307500", "122506.095000", "122506.882500", "122507.670000", "122508.460000", "122509.247500", "122510.035000", "122510.822500", "122511.612500", "122512.400000", "122513.187500", "122513.977500", "122514.765000", "122515.552500", "122516.340000", "122517.130000", "122517.917500", "122518.705000", "122519.492500", "122520.282500", "122521.070000", "122521.857500", "122522.645000", "122523.435000", "122524.222500", "122525.010000", "122525.797500", "122526.587500", "122527.375000", "122528.162500", "122528.950000", "122529.740000", "122530.527500", "122531.315000", "122532.105000", "122532.892500", "122533.680000", "122534.467500", "122535.257500", "122536.045000", "122536.832500", "122537.620000", "122538.410000", "122539.197500", "122539.985000", "122540.772500", "122541.562500", "122542.350000", "122543.137500", "122543.925000", "122544.715000", "122545.502500", "122546.290000", "122547.080000", "122547.867500", "122548.655000", "122549.442500", "122550.232500", "122551.020000", "122551.807500", "122552.595000", "122553.385000", "122554.172500", "122554.960000", "122555.747500", "122556.537500", "122557.325000", "122558.112500", "122558.900000", "122559.690000", "122600.477500", "122601.265000", "122602.052500", "122602.842500", "122603.630000", "122604.417500", "122605.207500", "122605.995000", "122606.782500", "122607.570000", "122608.360000", "122609.147500", "122609.935000", "122610.722500", "122611.512500", "122612.300000", "122613.087500", "122613.875000", "122614.665000", "122615.452500", "122616.240000", "122617.027500", "122617.817500", "122618.605000", "122619.392500", "122620.180000", "122620.970000", "122621.757500", "122622.545000", "122623.335000", "122624.122500", "122624.910000", "122625.697500", "122626.487500", "122627.275000", "122628.062500", "122628.850000", "122629.640000", "122630.427500", "122631.215000", "122632.002500", "122632.792500", "122633.580000", "122634.367500", "122635.155000", "122635.945000", "122636.732500", "122637.520000", "122638.307500", "122639.097500", "122639.885000", "122640.672500", "122641.462500", "122642.250000", "122643.037500", "122643.825000", "122644.615000", "122645.402500", "122646.190000", "122646.977500", "122647.767500", "122648.555000", "122649.342500", "122650.130000", "122650.920000", "122651.707500", "122652.495000", "122653.282500", "122654.072500", "122654.860000", "122655.647500", "122656.435000", "122657.225000", "122658.012500", "122658.800000", "122659.590000", "122700.377500", "122701.165000", "122701.952500", "122702.742500", "122703.530000", "122704.317500", "122705.105000", "122705.895000", "122706.682500", "122707.470000", "122708.257500", "122709.047500", "122709.835000", "122710.622500", "122711.410000", "122712.200000", "122712.987500", "122713.775000", "122714.562500", "122715.352500", "122716.140000", "122716.927500", "122717.717500", "122718.505000", "122719.292500", "122720.080000", "122720.870000", "122721.657500", "122722.445000", "122723.232500", "122724.022500", "122724.810000", "122725.597500", "122726.385000", "122727.175000", "122727.962500", "122728.750000", "122729.537500", "122730.327500", "122731.115000", "122731.902500", "122732.690000", "122733.480000", "122734.267500", "122735.055000", "122735.845000", "122736.632500", "122737.420000", "122738.207500", "122738.997500", "122739.785000", "122740.572500", "122741.360000", "122742.150000", "122742.937500", "122743.725000", "122744.512500", "122745.302500", "122746.090000", "122746.877500", "122747.665000", "122748.455000", "122749.242500", "122750.030000", "122750.817500"],
      "ContentTime": ["122036.531000", "122036.531000", "122036.531000", "122036.531000", "122036.531000", "122036.531000", "122036.546000", "122036.546000", "122036.546000", "122036.546000", "122036.546000", "122036.546000", "122036.546000", "122036.546000", "122036.562000", "122036.562000", "122036.562000", "122036.562000", "122036.562000", "122036.562000", "122036.562000", "122036.578000", "122036.578000", "122036.578000", "122036.578000", "122056.500000", "122056.500000", "122056.515000", "122056.515000", "122056.515000", "122056.515000", "122056.515000", "122056.515000", "122056.515000", "122056.531000", "122056.531000", "122056.531000", "122056.531000", "122056.531000", "122056.531000", "122056.531000", "122056.531000", "122056.546000", "122056.546000", "122056.546000", "122056.546000", "122056.546000", "122056.546000", "122056.546000", "122056.562000", "122056.562000", "122116.500000", "122116.500000", "122116.515000", "122116.515000", "122116.515000", "122116.515000", "122116.515000", "122116.515000", "122116.515000", "122116.515000", "122116.531000", "122116.531000", "122116.531000", "122116.531000", "122116.531000", "122116.531000", "122116.531000", "122116.546000", "122116.546000", "122116.546000", "122116.546000", "122116.546000", "122116.546000", "122116.546000", "122116.562000", "122136.500000", "122136.500000", "122136.515000", "122136.515000", "122136.515000", "122136.515000", "122136.515000", "122136.515000", "122136.531000", "122136.531000", "122136.531000", "122136.531000", "122136.531000", "122136.531000", "122136.531000", "122136.546000", "122136.546000", "122136.546000", "122136.546000", "122136.546000", "122136.546000", "122136.546000", "122136.546000", "122136.562000", "122136.562000", "122156.500000", "122156.500000", "122156.515000", "122156.515000", "122156.515000", "122156.515000", "122156.515000", "122156.515000", "122156.515000", "122156.515000", "122156.531000", "122156.531000", "122156.531000", "122156.531000", "122156.531000", "122156.531000", "122156.531000", "122156.546000", "122156.546000", "122156.546000", "122156.546000", "122156.546000", "122156.546000", "122156.546000", "122156.546000", "122156.562000", "122216.500000", "122216.500000", "122216.515000", "122216.515000", "122216.515000", "122216.515000", "122216.515000", "122216.515000", "122216.531000", "122216.531000", "122216.531000", "122216.531000", "122216.531000", "122216.546000", "122216.546000", "122216.546000", "122216.546000", "122216.546000", "122216.546000", "122216.546000", "122216.546000", "122216.562000", "122216.562000", "122216.562000", "122216.562000", "122236.500000", "122236.500000", "122236.515000", "122236.515000", "122236.515000", "122236.515000", "122236.515000", "122236.515000", "122236.515000", "122236.531000", "122236.531000", "122236.531000", "122236.531000", "122236.531000", "122236.531000", "122236.546000", "122236.546000", "122236.546000", "122236.546000", "122236.546000", "122236.546000", "122236.546000", "122236.562000", "122236.562000", "122236.562000", "122236.562000", "122256.500000", "122256.500000", "122256.515000", "122256.515000", "122256.515000", "122256.515000", "122256.515000", "122256.515000", "122256.515000", "122256.531000", "122256.531000", "122256.531000", "122256.531000", "122256.531000", "122256.546000", "122256.546000", "122256.546000", "122256.546000", "122256.546000", "122256.546000", "122256.546000", "122256.562000", "122256.562000", "122256.562000", "122256.562000", "122316.500000", "122316.500000", "122316.515000", "122316.515000", "122316.515000", "122316.515000", "122316.515000", "122316.515000", "122316.515000", "122316.515000", "122316.531000", "122316.531000", "122316.531000", "122316.531000", "122316.531000", "122316.531000", "122316.531000", "122316.546000", "122316.546000", "122316.546000", "122316.546000", "122316.546000", "122316.546000", "122316.546000", "122316.546000", "122316.562000", "122336.500000", "122336.500000", "122336.515000", "122336.515000", "122336.515000", "122336.515000", "122336.515000", "122336.515000", "122336.515000", "122336.515000", "122336.531000", "122336.531000", "122336.531000", "122336.531000", "122336.531000", "122336.546000", "122336.546000", "122336.546000", "122336.546000", "122336.546000", "122336.546000", "122336.546000", "122336.546000", "122336.562000", "122336.562000", "122356.500000", "122356.500000", "122356.515000", "122356.515000", "122356.515000", "122356.515000", "122356.515000", "122356.515000", "122356.515000", "122356.531000", "122356.531000", "122356.531000", "122356.531000", "122356.531000", "122356.531000", "122356.531000", "122356.546000", "122356.546000", "122356.546000", "122356.546000", "122356.546000", "122356.546000", "122356.546000", "122356.546000", "122356.562000", "122356.562000", "122416.515000", "122416.515000", "122416.515000", "122416.515000", "122416.515000", "122416.515000", "122416.515000", "122416.515000", "122416.531000", "122416.531000", "122416.531000", "122416.531000", "122416.531000", "122416.531000", "122416.531000", "122416.546000", "122416.546000", "122416.546000", "122416.546000", "122416.546000", "122416.546000", "122416.546000", "122416.562000", "122416.562000", "122416.562000", "122436.500000", "122436.500000", "122436.515000", "122436.515000", "122436.515000", "122436.515000", "122436.515000", "122436.515000", "122436.515000", "122436.515000", "122436.531000", "122436.531000", "122436.531000", "122436.531000", "122436.531000", "122436.531000", "122436.531000", "122436.546000", "122436.546000", "122436.546000", "122436.546000", "122436.546000", "122436.546000", "122436.546000", "122436.562000", "122436.562000", "122456.500000", "122456.500000", "122456.515000", "122456.515000", "122456.515000", "122456.515000", "122456.515000", "122456.531000", "122456.531000", "122456.531000", "122456.531000", "122456.531000", "122456.531000", "122456.531000", "122456.546000", "122456.546000", "122456.546000", "122456.546000", "122456.546000", "122456.546000", "122456.546000", "122456.546000", "122456.562000", "122456.562000", "122456.562000", "122516.500000", "122516.500000", "122516.515000", "122516.515000", "122516.515000", "122516.515000", "122516.515000", "122516.515000", "122516.531000", "122516.531000", "122516.531000", "122516.531000", "122516.531000", "122516.531000", "122516.531000", "122516.546000", "122516.546000", "122516.546000", "122516.546000", "122516.546000", "122516.546000", "122516.546000", "122516.562000", "122516.562000", "122516.562000", "122516.562000", "122536.500000", "122536.500000", "122536.515000", "122536.515000", "122536.515000", "122536.515000", "122536.515000", "122536.515000", "122536.515000", "122536.531000", "122536.531000", "122536.531000", "122536.531000", "122536.531000", "122536.531000", "122536.531000", "122536.546000", "122536.546000", "122536.546000", "122536.546000", "122536.546000", "122536.546000", "122536.546000", "122536.546000", "122536.562000", "122556.500000", "122556.500000", "122556.515000", "122556.515000", "122556.515000", "122556.515000", "122556.515000", "122556.515000", "122556.515000", "122556.531000", "122556.531000", "122556.531000", "122556.531000", "122556.531000", "122556.531000", "122556.531000", "122556.531000", "122556.546000", "122556.546000", "122556.546000", "122556.546000", "122556.546000", "122556.546000", "122556.562000", "122556.562000", "122556.562000", "122616.500000", "122616.500000", "122616.515000", "122616.515000", "122616.515000", "122616.515000", "122616.515000", "122616.515000", "122616.515000", "122616.515000", "122616.531000", "122616.531000", "122616.531000", "122616.531000", "122616.546000", "122616.546000", "122616.546000", "122616.546000", "122616.546000", "122616.562000", "122616.562000", "122616.562000", "122616.562000", "122616.562000", "122616.562000", "122636.500000", "122636.500000", "122636.515000", "122636.515000", "122636.515000", "122636.515000", "122636.515000", "122636.515000", "122636.531000", "122636.531000", "122636.531000", "122636.531000", "122636.531000", "122636.531000", "122636.546000", "122636.546000", "122636.546000", "122636.546000", "122636.546000", "122636.546000", "122636.546000", "122636.562000", "122636.562000", "122636.562000", "122636.562000", "122636.562000", "122656.500000", "122656.500000", "122656.515000", "122656.515000", "122656.515000", "122656.515000", "122656.515000", "122656.531000", "122656.531000", "122656.531000", "122656.531000", "122656.531000", "122656.531000", "122656.531000", "122656.531000", "122656.546000", "122656.546000", "122656.546000", "122656.546000", "122656.546000", "122656.546000", "122656.546000", "122656.562000", "122656.562000", "122656.562000", "122716.500000", "122716.500000", "122716.515000", "122716.515000", "122716.515000", "122716.515000", "122716.515000", "122716.515000", "122716.515000", "122716.515000", "122716.531000", "122716.531000", "122716.531000", "122716.531000", "122716.531000", "122716.531000", "122716.546000", "122716.546000", "122716.546000", "122716.546000", "122716.546000", "122716.546000", "122716.562000", "122716.562000", "122716.562000", "122716.562000", "122736.500000", "122736.500000", "122736.515000", "122736.515000", "122736.515000", "122736.515000", "122736.515000", "122736.515000", "122736.515000", "122736.531000", "122736.531000", "122736.531000", "122736.531000", "122736.531000", "122736.531000", "122736.531000", "122736.531000", "122736.546000", "122736.546000", "122736.546000", "122736.546000", "122736.546000", "122736.562000", "122736.562000", "122736.562000", "122752.531000", "122752.531000", "122752.531000", "122752.531000", "122752.531000", "122752.531000", "122752.531000", "122752.531000", "122752.546000", "122752.546000", "122752.546000", "122752.546000", "122752.546000", "122752.562000", "122752.562000", "122752.562000", "122752.562000", "122752.562000", "122752.562000", "122752.562000", "122752.578000"],
