{
  "AcquisitionMatrixPE": 104,
  "AcquisitionNumber": 1,
  "AcquisitionTime": "12:28:50.722500",
  "BandwidthPerPixelPhaseEncode": 13.935,
  "BaseResolution": 104,
  "CoilString": "C:HEA;HEP",
  "ConversionSoftware": "dcm2niix",
  "ConversionSoftwareVersion": "v1.0.20210317",
  "DerivedVendorReportedEchoSpacing": 0.000690017,
  "DeviceSerialNumber": "35450",
  "DwellTime": 2.5e-06,
  "EchoTime": 0.0348,
  "EffectiveEchoSpacing": 0.000690017,
  "FlipAngle": 55,
  "ImageComments": "Unaliased MB8/PE3 (remote)",
  "ImageOrientationPatientDICOM": [0.999946, -0.00187463, -0.0102168, 5.2022e-08, 0.983581, -0.180466],
  "ImageType": [
    "ORIGINAL",
    "PRIMARY",
    "M",
    "MB",
    "ND",
    "MOSAIC"
],
  "ImagingFrequency": 123.235,
  "InPlanePhaseEncodingDirectionDICOM": "COL",
  "InstitutionAddress": "Univeristy Ave. 197,Newark,North East,US,07102-1814",
  "InstitutionName": "RUBIC",
  "InstitutionalDepartmentName": "Department",
  "MRAcquisitionType": "2D",
  "MagneticFieldStrength": 3,
  "Manufacturer": "Siemens",
  "ManufacturersModelName": "TrioTim",
  "Modality": "MR",
  "MultibandAccelerationFactor": 8,
  "PartialFourier": 0.875,
  "PatientPosition": "HFS",
  "PercentPhaseFOV": 100,
  "PercentSampling": 100,
  "PhaseEncodingDirection": "j-",
  "PhaseEncodingSteps": 91,
  "PhaseResolution": 1,
  "PixelBandwidth": 1923,
  "ProcedureStepDescription": "Cole^Michael",
  "ProtocolName": "cmrr_mbep2d_bold_2mm_MB8_Task_8x",
  "PulseSequenceDetails": "%CustomerSeq%\\cmrr_mbep2d_bold",
  "ReceiveCoilName": "32Ch_Head",
  "ReconMatrixPE": 104,
  "RepetitionTime": 0.785,
  "SAR": 0.118457,
  "ScanOptions": "PFP\\FS",
  "ScanningSequence": "EP",
  "SequenceName": "epfid2d1_104",
  "SequenceVariant": "SK\\SS",
  "SeriesDescription": "cmrr_mbep2d_bold_2mm_MB8_Task_8x",
  "SeriesNumber": 27,
  "ShimSetting": [2077, -368, -7257, 443, 248, -667, -97, -7],
  "SliceThickness": 2,
  "SliceTiming": [0, 0.4375, 0.0875, 0.525, 0.175, 0.6125, 0.2625, 0.7, 0.35, 0, 0.4375, 0.0875, 0.525, 0.175, 0.6125, 0.2625, 0.7, 0.35, 0, 0.4375, 0.0875, 0.525, 0.175, 0.6125, 0.2625, 0.7, 0.35, 0, 0.4375, 0.0875, 0.525, 0.175, 0.6125, 0.2625, 0.7, 0.35, 0, 0.4375, 0.0875, 0.525, 0.175, 0.6125, 0.2625, 0.7, 0.35, 0, 0.4375, 0.0875, 0.525, 0.175, 0.6125, 0.2625, 0.7, 0.35, 0, 0.4375, 0.0875, 0.525, 0.175, 0.6125, 0.2625, 0.7, 0.35, 0, 0.4375, 0.0875, 0.525, 0.175, 0.6125, 0.2625, 0.7, 0.35],
  "SoftwareVersions": "syngo MR B19",
  "SpacingBetweenSlices": 2,
  "StationName": "MRC35450",
  "TaskName": "cpro",
  "TotalReadoutTime": 0.0710717,
  "TxRefAmp": 317.333,
  "dcmmeta_affine": [
    [-1.9998921155929565, 1.0404392014606856e-07, -0.020774783566594124, 105.44805908203125],
    [0.003749253461137414, 1.9671622514724731, -0.36091339588165283, -74.31863403320312],
    [-0.020433668047189713, 0.360932856798172, 1.967056155204773, -110.6610336303711],
    [0.0, 0.0, 0.0, 1.0]
],
  "dcmmeta_reorient_transform": [
    [0.0, -1.0, 0.0, 103.0],
    [1.0, 0.0, 0.0, 0.0],
    [0.0, 0.0, 1.0, 0.0],
    [0.0, 0.0, 0.0, 1.0]
],
  "dcmmeta_shape": [104, 104, 72, 581],
  "dcmmeta_slice_dim": 2,
  "dcmmeta_version": 0.6,
  "global": {
    "const": {
      "AcquisitionMatrix": [104, 0, 0, 104],
      "AngioFlag": "N",
      "BitsAllocated": 16,
      "BitsStored": 12,
      "Columns": 936,
      "EchoNumbers": 1,
      "EchoTime": 34.8,
      "EchoTrainLength": 1,
      "FlipAngle": 55.0,
      "HighBit": 11,
      "ImageOrientationPatient": [0.99994604958683, -0.0018746267239, -0.0102168336747, 5.2021961e-08, 0.98358114475792, -0.1804664281153],
      "ImagePositionPatient": [-937.40322637591, -945.078905723, 85.163523513928],
      "ImageType": [
        "ORIGINAL",
        "PRIMARY",
        "M",
        "MB",
        "ND",
        "MOSAIC"
],
      "ImagedNucleus": "1H",
      "ImagingFrequency": 123.234518,
      "InPlanePhaseEncodingDirection": "COL",
      "MRAcquisitionType": "2D",
      "MagneticFieldStrength": 3.0,
      "Manufacturer": "SIEMENS",
      "ManufacturerModelName": "TrioTim",
      "Modality": "MR",
      "NumberOfAverages": 1.0,
      "NumberOfPhaseEncodingSteps": 91,
      "PercentPhaseFieldOfView": 100.0,
      "PercentSampling": 100.0,
      "PerformedProcedureStepStartTime": "101512.937000",
      "PhotometricInterpretation": "MONOCHROME2",
      "PixelBandwidth": 1923.0,
      "PixelRepresentation": 0,
      "PixelSpacing": [2.0, 2.0],
      "ProtocolName": "cmrr_mbep2d_bold_2mm_MB8_Task_8x",
      "RepetitionTime": 785.0,
      "Rows": 936,
      "SAR": 0.11845703414073,
      "SamplesPerPixel": 1,
      "ScanOptions": [
        "PFP",
        "FS"
],
      "ScanningSequence": "EP",
      "SequenceName": "epfid2d1_104",
      "SequenceVariant": [
        "SK",
        "SS"
],
      "SeriesDescription": "cmrr_mbep2d_bold_2mm_MB8_Task_8x",
      "SeriesNumber": 27,
      "SeriesTime": "122916.921000",
      "SliceLocation": -96.522270513934,
      "SliceThickness": 2.0,
      "SmallestImagePixelValue": 0,
      "SoftwareVersions": "syngo MR B19",
      "SpacingBetweenSlices": 2.0000000063378,
      "SpecificCharacterSet": "ISO_IR 100",
      "StudyID": "1",
      "StudyTime": "101512.890000",
      "TransmitCoilName": "Body",
      "VariableFlipAngleFlag": "N",
      "WindowCenterWidthExplanation": "Algo1",
      "dBdt": 0.0},
    "slices": {}
  },
  "time": {
    "samples": {
      "AcquisitionNumber": [1, 2, 3, 4, 5, 6, 7, 8, 9, 10, 11, 12, 13, 14, 15, 16, 17, 18, 19, 20, 21, 22, 23, 24, 25, 26, 27, 28, 29, 30, 31, 32, 33, 34, 35, 36, 37, 38, 39, 40, 41, 42, 43, 44, 45, 46, 47, 48, 49, 50, 51, 52, 53, 54, 55, 56, 57, 58, 59, 60, 61, 62, 63, 64, 65, 66, 67, 68, 69, 70, 71, 72, 73, 74, 75, 76, 77, 78, 79, 80, 81, 82, 83, 84, 85, 86, 87, 88, 89, 90, 91, 92, 93, 94, 95, 96, 97, 98, 99, 100, 101, 102, 103, 104, 105, 106, 107, 108, 109, 110, 111, 112, 113, 114, 115, 116, 117, 118, 119, 120, 121, 122, 123, 124, 125, 126, 127, 128, 129, 130, 131, 132, 133, 134, 135, 136, 137, 138, 139, 140, 141, 142, 143, 144, 145, 146, 147, 148, 149, 150, 151, 152, 153, 154, 155, 156, 157, 158, 159, 160, 161, 162, 163, 164, 165, 166, 167, 168, 169, 170, 171, 172, 173, 174, 175, 176, 177, 178, 179, 180, 181, 182, 183, 184, 185, 186, 187, 188, 189, 190, 191, 192, 193, 194, 195, 196, 197, 198, 199, 200, 201, 202, 203, 204, 205, 206, 207, 208, 209, 210, 211, 212, 213, 214, 215, 216, 217, 218, 219, 220, 221, 222, 223, 224, 225, 226, 227, 228, 229, 230, 231, 232, 233, 234, 235, 236, 237, 238, 239, 240, 241, 242, 243, 244, 245, 246, 247, 248, 249, 250, 251, 252, 253, 254, 255, 256, 257, 258, 259, 260, 261, 262, 263, 264, 265, 266, 267, 268, 269, 270, 271, 272, 273, 274, 275, 276, 277, 278, 279, 280, 281, 282, 283, 284, 285, 286, 287, 288, 289, 290, 291, 292, 293, 294, 295, 296, 297, 298, 299, 300, 301, 302, 303, 304, 305, 306, 307, 308, 309, 310, 311, 312, 313, 314, 315, 316, 317, 318, 319, 320, 321, 322, 323, 324, 325, 326, 327, 328, 329, 330, 331, 332, 333, 334, 335, 336, 337, 338, 339, 340, 341, 342, 343, 344, 345, 346, 347, 348, 349, 350, 351, 352, 353, 354, 355, 356, 357, 358, 359, 360, 361, 362, 363, 364, 365, 366, 367, 368, 369, 370, 371, 372, 373, 374, 375, 376, 377, 378, 379, 380, 381, 382, 383, 384, 385, 386, 387, 388, 389, 390, 391, 392, 393, 394, 395, 396, 397, 398, 399, 400, 401, 402, 403, 404, 405, 406, 407, 408, 409, 410, 411, 412, 413, 414, 415, 416, 417, 418, 419, 420, 421, 422, 423, 424, 425, 426, 427, 428, 429, 430, 431, 432, 433, 434, 435, 436, 437, 438, 439, 440, 441, 442, 443, 444, 445, 446, 447, 448, 449, 450, 451, 452, 453, 454, 455, 456, 457, 458, 459, 460, 461, 462, 463, 464, 465, 466, 467, 468, 469, 470, 471, 472, 473, 474, 475, 476, 477, 478, 479, 480, 481, 482, 483, 484, 485, 486, 487, 488, 489, 490, 491, 492, 493, 494, 495, 496, 497, 498, 499, 500, 501, 502, 503, 504, 505, 506, 507, 508, 509, 510, 511, 512, 513, 514, 515, 516, 517, 518, 519, 520, 521, 522, 523, 524, 525, 526, 527, 528, 529, 530, 531, 532, 533, 534, 535, 536, 537, 538, 539, 540, 541, 542, 543, 544, 545, 546, 547, 548, 549, 550, 551, 552, 553, 554, 555, 556, 557, 558, 559, 560, 561, 562, 563, 564, 565, 566, 567, 568, 569, 570, 571, 572, 573, 574, 575, 576, 577, 578, 579, 580, 581],
      "AcquisitionTime": ["122850.722500", "122851.510000", "122852.297500", "122853.087500", "122853.875000", "122854.662500", "122855.450000", "122856.240000", "122857.027500", "122857.815000", "122858.605000", "122859.392500", "122900.180000", "122900.967500", "122901.757500", "122902.545000", "122903.332500", "122904.120000", "122904.910000", "122905.697500", "122906.485000", "122907.272500", "122908.062500", "122908.850000", "122909.637500", "122910.425000", "122911.215000", "122912.002500", "122912.790000", "122913.577500", "122914.367500", "122915.155000", "122915.942500", "122916.732500", "122917.520000", "122918.307500", "122919.095000", "122919.885000", "122920.672500", "122921.460000", "122922.247500", "122923.037500", "122923.825000", "122924.612500", "122925.400000", "122926.190000", "122926.977500", "122927.765000", "122928.552500", "122929.342500", "122930.130000", "122930.917500", "122931.705000", "122932.495000", "122933.282500", "122934.070000", "122934.860000", "122935.647500", "122936.435000", "122937.222500", "122938.012500", "122938.800000", "122939.587500", "122940.375000", "122941.165000", "122941.952500", "122942.740000", "122943.527500", "122944.317500", "122945.105000", "122945.892500", "122946.680000", "122947.470000", "122948.257500", "122949.045000", "122949.832500", "122950.622500", "122951.410000", "122952.197500", "122952.987500", "122953.775000", "122954.562500", "122955.350000", "122956.140000", "122956.927500", "122957.715000", "122958.502500", "122959.292500", "123000.080000", "123000.867500", "123001.655000", "123002.445000", "123003.232500", "123004.020000", "123004.807500", "123005.597500", "123006.385000", "123007.172500", "123007.960000", "123008.750000", "123009.537500", "123010.325000", "123011.115000", "123011.902500", "123012.690000", "123013.477500", "123014.267500", "123015.055000", "123015.842500", "123016.630000", "123017.420000", "123018.207500", "123018.995000", "123019.782500", "123020.572500", "123021.360000", "123022.147500", "123022.935000", "123023.725000", "123024.512500", "123025.300000", "123026.087500", "123026.877500", "123027.665000", "123028.452500", "123029.242500", "123030.030000", "123030.817500", "123031.605000", "123032.395000", "123033.182500", "123033.970000", "123034.757500", "123035.547500", "123036.335000", "123037.122500", "123037.910000", "123038.700000", "123039.487500", "123040.275000", "123041.062500", "123041.852500", "123042.640000", "123043.427500", "123044.215000", "123045.005000", "123045.792500", "123046.580000", "123047.370000", "123048.157500", "123048.945000", "123049.732500", "123050.522500", "123051.310000", "123052.097500", "123052.885000", "123053.675000", "123054.462500", "123055.250000", "123056.037500", "123056.827500", "123057.615000", "123058.402500", "123059.190000", "123059.980000", "123100.767500", "123101.555000", "123102.342500", "123103.132500", "123103.920000", "123104.707500", "123105.497500", "123106.285000", "123107.072500", "123107.860000", "123108.650000", "123109.437500", "123110.225000", "123111.012500", "123111.802500", "123112.590000", "123113.377500", "123114.165000", "123114.955000", "123115.742500", "123116.530000", "123117.317500", "123118.107500", "123118.895000", "123119.682500", "123120.470000", "123121.260000", "123122.047500", "123122.835000", "123123.625000", "123124.412500", "123125.200000", "123125.987500", "123126.777500", "123127.565000", "123128.352500", "123129.140000", "123129.930000", "123130.717500", "123131.505000", "123132.292500", "123133.082500", "123133.870000", "123134.657500", "123135.445000", "123136.235000", "123137.022500", "123137.810000", "123138.597500", "123139.387500", "123140.175000", "123140.962500", "123141.752500", "123142.540000", "123143.327500", "123144.115000", "123144.905000", "123145.692500", "123146.480000", "123147.267500", "123148.057500", "123148.845000", "123149.632500", "123150.420000", "123151.210000", "123151.997500", "123152.785000", "123153.572500", "123154.362500", "123155.150000", "123155.937500", "123156.727500", "123157.515000", "123158.302500", "123159.090000", "123159.880000", "123200.667500", "123201.455000", "123202.242500", "123203.032500", "123203.820000", "123204.607500", "123205.395000", "123206.185000", "123206.972500", "123207.760000", "123208.547500", "123209.337500", "123210.125000", "123210.912500", "123211.700000", "123212.490000", "123213.277500", "123214.065000", "123214.855000", "123215.642500", "123216.430000", "123217.217500", "123218.007500", "123218.795000", "123219.582500", "123220.370000", "123221.160000", "123221.947500", "123222.735000", "123223.522500", "123224.312500", "123225.100000", "123225.887500", "123226.675000", "123227.465000", "123228.252500", "123229.040000", "123229.827500", "123230.617500", "123231.405000", "123232.192500", "123232.982500", "123233.770000", "123234.557500", "123235.345000", "123236.135000", "123236.922500", "123237.710000", "123238.497500", "123239.287500", "123240.075000", "123240.862500", "123241.650000", "123242.440000", "123243.227500", "123244.015000", "123244.802500", "123245.592500", "123246.380000", "123247.167500", "123247.955000", "123248.745000", "123249.532500", "123250.320000", "123251.110000", "123251.897500", "123252.685000", "123253.472500", "123254.262500", "123255.050000", "123255.837500", "123256.625000", "123257.415000", "123258.202500", "123258.990000", "123259.777500", "123300.567500", "123301.355000", "123302.142500", "123302.930000", "123303.720000", "123304.507500", "123305.295000", "123306.082500", "123306.872500", "123307.660000", "123308.447500", "123309.237500", "123310.025000", "123310.812500", "123311.600000", "123312.390000", "123313.177500", "123313.965000", "123314.752500", "123315.542500", "123316.330000", "123317.117500", "123317.905000", "123318.695000", "123319.482500", "123320.270000", "123321.057500", "123321.847500", "123322.635000", "123323.422500", "123324.210000", "123325.000000", "123325.787500", "123326.575000", "123327.365000", "123328.152500", "123328.940000", "123329.727500", "123330.517500", "123331.305000", "123332.092500", "123332.880000", "123333.670000", "123334.457500", "123335.245000", "123336.032500", "123336.822500", "123337.610000", "123338.397500", "123339.185000", "123339.975000", "123340.762500", "123341.550000", "123342.337500", "123343.127500", "123343.915000", "123344.702500", "123345.492500", "123346.280000", "123347.067500", "123347.855000", "123348.645000", "123349.432500", "123350.220000", "123351.007500", "123351.797500", "123352.585000", "123353.372500", "123354.160000", "123354.950000", "123355.737500", "123356.525000", "123357.312500", "123358.102500", "123358.890000", "123359.677500", "123400.465000", "123401.255000", "123402.042500", "123402.830000", "123403.620000", "123404.407500", "123405.195000", "123405.982500", "123406.772500", "123407.560000", "123408.347500", "123409.135000", "123409.925000", "123410.712500", "123411.500000", "123412.287500", "123413.077500", "123413.865000", "123414.652500", "123415.440000", "123416.230000", "123417.017500", "123417.805000", "123418.592500", "123419.382500", "123420.170000", "123420.957500", "123421.747500", "123422.535000", "123423.322500", "123424.110000", "123424.900000", "123425.687500", "123426.475000", "123427.262500", "123428.052500", "123428.840000", "123429.627500", "123430.415000", "123431.205000", "123431.992500", "123432.780000", "123433.567500", "123434.357500", "123435.145000", "123435.932500", "123436.720000", "123437.510000", "123438.297500", "123439.085000", "123439.875000", "123440.662500", "123441.450000", "123442.237500", "123443.027500", "123443.815000", "123444.602500", "123445.390000", "123446.180000", "123446.967500", "123447.755000", "123448.542500", "123449.332500", "123450.120000", "123450.907500", "123451.695000", "123452.485000", "123453.272500", "123454.060000", "123454.847500", "123455.637500", "123456.425000", "123457.212500", "123458.002500", "123458.790000", "123459.577500", "123500.365000", "123501.155000", "123501.942500", "123502.730000", "123503.517500", "123504.307500", "123505.095000", "123505.882500", "123506.670000", "123507.460000", "123508.247500", "123509.035000", "123509.822500", "123510.612500", "123511.400000", "123512.187500", "123512.977500", "123513.765000", "123514.552500", "123515.340000", "123516.130000", "123516.917500", "123517.705000", "123518.492500", "123519.282500", "123520.070000", "123520.857500", "123521.645000", "123522.435000", "123523.222500", "123524.010000", "123524.797500", "123525.587500", "123526.375000", "123527.162500", "123527.950000", "123528.740000", "123529.527500", "123530.315000", "123531.105000", "123531.892500", "123532.680000", "123533.467500", "123534.257500", "123535.045000", "123535.832500", "123536.620000", "123537.410000", "123538.197500", "123538.985000", "123539.772500", "123540.562500", "123541.350000", "123542.137500", "123542.925000", "123543.715000", "123544.502500", "123545.290000", "123546.077500", "123546.867500", "123547.655000", "123548.442500", "123549.232500", "123550.020000", "123550.807500", "123551.595000", "123552.385000", "123553.172500", "123553.960000", "123554.747500", "123555.537500", "123556.325000", "123557.112500", "123557.900000", "123558.690000", "123559.477500", "123600.265000", "123601.052500", "123601.842500", "123602.630000", "123603.417500", "123604.205000", "123604.995000", "123605.782500", "123606.570000", "123607.360000", "123608.147500", "123608.935000", "123609.722500", "123610.512500", "123611.300000", "123612.087500", "123612.875000", "123613.665000", "123614.452500", "123615.240000", "123616.027500", "123616.817500", "123617.605000", "123618.392500", "123619.180000", "123619.970000", "123620.757500", "123621.545000", "123622.332500", "123623.122500", "123623.910000", "123624.697500", "123625.487500", "123626.275000", "123627.062500", "123627.850000"],
      "ContentTime": ["122916.921000", "122916.921000", "122916.921000", "122916.921000", "122916.937000", "122916.937000", "122916.937000", "122916.937000", "122916.937000", "122916.937000", "122916.937000", "122916.953000", "122916.953000", "122916.953000", "122916.953000", "122916.953000", "122916.953000", "122916.953000", "122916.953000", "122916.968000", "122916.968000", "122916.968000", "122916.968000", "122916.968000", "122916.968000", "122916.968000", "122916.968000", "122916.984000", "122916.984000", "122936.890000", "122936.890000", "122936.906000", "122936.906000", "122936.906000", "122936.906000", "122936.906000", "122936.906000", "122936.921000", "122936.921000", "122936.921000", "122936.921000", "122936.921000", "122936.921000", "122936.937000", "122936.937000", "122936.937000", "122936.937000", "122936.937000", "122936.953000", "122936.953000", "122936.953000", "122936.953000", "122936.953000", "122936.968000", "122936.968000", "122956.890000", "122956.890000", "122956.906000", "122956.906000", "122956.906000", "122956.906000", "122956.906000", "122956.906000", "122956.921000", "122956.921000", "122956.921000", "122956.921000", "122956.921000", "122956.937000", "122956.937000", "122956.937000", "122956.937000", "122956.937000", "122956.937000", "122956.937000", "122956.937000", "122956.953000", "122956.953000", "122956.953000", "122956.953000", "123016.890000", "123016.890000", "123016.906000", "123016.906000", "123016.906000", "123016.906000", "123016.906000", "123016.906000", "123016.906000", "123016.906000", "123016.921000", "123016.921000", "123016.921000", "123016.921000", "123016.921000", "123016.921000", "123016.921000", "123016.937000", "123016.937000", "123016.937000", "123016.937000", "123016.937000", "123016.937000", "123016.937000", "123016.937000", "123016.953000", "123036.890000", "123036.890000", "123036.906000", "123036.906000", "123036.906000", "123036.906000", "123036.906000", "123036.906000", "123036.906000", "123036.906000", "123036.921000", "123036.921000", "123036.921000", "123036.921000", "123036.921000", "123036.921000", "123036.921000", "123036.937000", "123036.937000", "123036.937000", "123036.937000", "123036.937000", "123036.937000", "123036.937000", "123036.937000", "123056.890000", "123056.890000", "123056.906000", "123056.906000", "123056.906000", "123056.906000", "123056.921000", "123056.921000", "123056.937000", "123056.937000", "123056.937000", "123056.937000", "123056.937000", "123056.937000", "123056.937000", "123056.953000", "123056.953000", "123056.953000", "123056.953000", "123056.953000", "123056.953000", "123056.968000", "123056.968000", "123056.968000", "123056.968000", "123116.890000", "123116.890000", "123116.906000", "123116.906000", "123116.906000", "123116.906000", "123116.906000", "123116.906000", "123116.906000", "123116.906000", "123116.921000", "123116.921000", "123116.921000", "123116.921000", "123116.921000", "123116.921000", "123116.921000", "123116.937000", "123116.937000", "123116.937000", "123116.937000", "123116.937000", "123116.937000", "123116.937000", "123116.953000", "123116.953000", "123136.890000", "123136.890000", "123136.906000", "123136.906000", "123136.906000", "123136.906000", "123136.906000", "123136.906000", "123136.906000", "123136.906000", "123136.921000", "123136.921000", "123136.921000", "123136.921000", "123136.921000", "123136.921000", "123136.921000", "123136.937000", "123136.937000", "123136.937000", "123136.937000", "123136.937000", "123136.937000", "123136.953000", "123136.953000", "123156.890000", "123156.890000", "123156.906000", "123156.906000", "123156.906000", "123156.906000", "123156.906000", "123156.906000", "123156.906000", "123156.921000", "123156.921000", "123156.921000", "123156.921000", "123156.921000", "123156.921000", "123156.921000", "123156.921000", "123156.937000", "123156.937000", "123156.937000", "123156.937000", "123156.937000", "123156.937000", "123156.937000", "123156.937000", "123156.953000", "123216.890000", "123216.890000", "123216.906000", "123216.906000", "123216.906000", "123216.906000", "123216.906000", "123216.906000", "123216.906000", "123216.921000", "123216.921000", "123216.921000", "123216.921000", "123216.921000", "123216.921000", "123216.921000", "123216.937000", "123216.937000", "123216.937000", "123216.937000", "123216.937000", "123216.937000", "123216.937000", "123216.953000", "123216.953000", "123236.890000", "123236.890000", "123236.906000", "123236.906000", "123236.906000", "123236.906000", "123236.906000", "123236.906000", "123236.906000", "123236.906000", "123236.921000", "123236.921000", "123236.921000", "123236.921000", "123236.921000", "123236.921000", "123236.921000", "123236.937000", "123236.937000", "123236.937000", "123236.937000", "123236.937000", "123236.937000", "123236.937000", "123236.953000", "123236.953000", "123256.890000", "123256.890000", "123256.906000", "123256.906000", "123256.906000", "123256.906000", "123256.906000", "123256.906000", "123256.906000", "123256.906000", "123256.921000", "123256.921000", "123256.921000", "123256.921000", "123256.921000", "123256.921000", "123256.921000", "123256.921000", "123256.937000", "123256.937000", "123256.937000", "123256.937000", "123256.937000", "123256.937000", "123256.953000", "123316.890000", "123316.890000", "123316.906000", "123316.906000", "123316.906000", "123316.906000", "123316.906000", "123316.906000", "123316.906000", "123316.906000", "123316.921000", "123316.921000", "123316.921000", "123316.921000", "123316.921000", "123316.921000", "123316.921000", "123316.937000", "123316.937000", "123316.937000", "123316.937000", "123316.937000", "123316.937000", "123316.953000", "123316.953000", "123316.953000", "123336.890000", "123336.890000", "123336.906000", "123336.906000", "123336.906000", "123336.906000", "123336.906000", "123336.906000", "123336.906000", "123336.906000", "123336.921000", "123336.921000", "123336.921000", "123336.921000", "123336.921000", "123336.921000", "123336.937000", "123336.937000", "123336.937000", "123336.937000", "123336.937000", "123336.937000", "123336.937000", "123336.953000", "123336.953000", "123356.890000", "123356.890000", "123356.906000", "123356.906000", "123356.906000", "123356.906000", "123356.906000", "123356.906000", "123356.906000", "123356.906000", "123356.921000", "123356.921000", "123356.921000", "123356.921000", "123356.921000", "123356.921000", "123356.921000", "123356.937000", "123356.937000", "123356.937000", "123356.937000", "123356.937000", "123356.937000", "123356.953000", "123356.953000", "123356.953000", "123416.890000", "123416.890000", "123416.906000", "123416.906000", "123416.906000", "123416.906000", "123416.906000", "123416.906000", "123416.906000", "123416.906000", "123416.921000", "123416.921000", "123416.921000", "123416.921000", "123416.921000", "123416.921000", "123416.921000", "123416.937000", "123416.937000", "123416.937000", "123416.937000", "123416.937000", "123416.937000", "123416.937000", "123416.937000", "123436.890000", "123436.890000", "123436.906000", "123436.906000", "123436.906000", "123436.906000", "123436.906000", "123436.921000", "123436.921000", "123436.921000", "123436.921000", "123436.921000", "123436.921000", "123436.921000", "123436.921000", "123436.937000", "123436.937000", "123436.937000", "123436.937000", "123436.937000", "123436.937000", "123436.937000", "123436.953000", "123436.953000", "123436.953000", "123436.953000", "123456.890000", "123456.890000", "123456.906000", "123456.906000", "123456.906000", "123456.906000", "123456.906000", "123456.906000", "123456.906000", "123456.906000", "123456.921000", "123456.921000", "123456.921000", "123456.921000", "123456.921000", "123456.921000", "123456.937000", "123456.937000", "123456.937000", "123456.937000", "123456.937000", "123456.937000", "123456.937000", "123456.937000", "123456.953000", "123516.890000", "123516.890000", "123516.906000", "123516.906000", "123516.906000", "123516.906000", "123516.906000", "123516.906000", "123516.906000", "123516.906000", "123516.921000", "123516.921000", "123516.921000", "123516.921000", "123516.921000", "123516.921000", "123516.921000", "123516.937000", "123516.937000", "123516.937000", "123516.937000", "123516.937000", "123516.937000", "123516.937000", "123516.937000", "123516.953000", "123536.890000", "123536.890000", "123536.906000", "123536.906000", "123536.906000", "123536.906000", "123536.906000", "123536.906000", "123536.906000", "123536.906000", "123536.921000", "123536.921000", "123536.921000", "123536.921000", "123536.921000", "123536.921000", "123536.921000", "123536.937000", "123536.937000", "123536.937000", "123536.937000", "123536.937000", "123536.937000", "123536.937000", "123536.953000", "123556.890000", "123556.890000", "123556.906000", "123556.906000", "123556.906000", "123556.906000", "123556.906000", "123556.906000", "123556.906000", "123556.906000", "123556.921000", "123556.921000", "123556.921000", "123556.921000", "123556.921000", "123556.921000", "123556.921000", "123556.937000", "123556.937000", "123556.937000", "123556.937000", "123556.937000", "123556.937000", "123556.937000", "123556.937000", "123556.953000", "123616.890000", "123616.890000", "123616.906000", "123616.906000", "123616.906000", "123616.906000", "123616.906000", "123616.906000", "123616.921000", "123616.921000", "123616.921000", "123616.921000", "123616.921000", "123616.921000", "123616.921000", "123616.921000", "123616.937000", "123616.937000", "123616.937000", "123616.937000", "123616.937000", "123616.937000", "123616.937000", "123616.953000", "123616.968000", "123629.828000", "123629.828000", "123629.828000", "123629.843000", "123629.843000", "123629.843000", "123629.843000", "123629.843000", "123629.843000", "123629.843000", "123629.859000", "123629.859000", "123629.859000", "123629.859000", "123629.859000", "123629.859000", "123629.859000"],
