{
  "AcquisitionMatrixPE": 104,
  "AcquisitionNumber": 1,
  "AcquisitionTime": "11:06:46.487500",
  "BandwidthPerPixelPhaseEncode": 13.935,
  "BaseResolution": 104,
  "CoilString": "C:HEA;HEP",
  "ConversionSoftware": "dcm2niix",
  "ConversionSoftwareVersion": "v1.0.20210317",
  "DerivedVendorReportedEchoSpacing": 0.000690017,
  "DeviceSerialNumber": "35450",
  "DwellTime": 2.5e-06,
  "EchoTime": 0.0348,
  "EffectiveEchoSpacing": 0.000690017,
  "FlipAngle": 55,
  "ImageComments": "Unaliased MB8/PE3 (remote)",
  "ImageOrientationPatientDICOM": [0.999946, -0.00187463, -0.0102168, 5.2022e-08, 0.983581, -0.180466],
  "ImageType": [
    "ORIGINAL",
    "PRIMARY",
    "M",
    "MB",
    "ND",
    "MOSAIC"
],
  "ImagingFrequency": 123.234,
  "InPlanePhaseEncodingDirectionDICOM": "COL",
  "InstitutionAddress": "Univeristy Ave. 197,Newark,North East,US,07102-1814",
  "InstitutionName": "RUBIC",
  "InstitutionalDepartmentName": "Department",
  "MRAcquisitionType": "2D",
  "MagneticFieldStrength": 3,
  "Manufacturer": "Siemens",
  "ManufacturersModelName": "TrioTim",
  "Modality": "MR",
  "MultibandAccelerationFactor": 8,
  "PartialFourier": 0.875,
  "PatientPosition": "HFS",
  "PercentPhaseFOV": 100,
  "PercentSampling": 100,
  "PhaseEncodingDirection": "j-",
  "PhaseEncodingSteps": 91,
  "PhaseResolution": 1,
  "PixelBandwidth": 1923,
  "ProcedureStepDescription": "Cole^Michael",
  "ProtocolName": "cmrr_mbep2d_bold_2mm_MB8_Rest",
  "PulseSequenceDetails": "%CustomerSeq%\\cmrr_mbep2d_bold",
  "ReceiveCoilName": "32Ch_Head",
  "ReconMatrixPE": 104,
  "RepetitionTime": 0.785,
  "SAR": 0.116335,
  "ScanOptions": "PFP\\FS",
  "ScanningSequence": "EP",
  "SequenceName": "epfid2d1_104",
  "SequenceVariant": "SK\\SS",
  "SeriesDescription": "cmrr_mbep2d_bold_2mm_MB8_Rest",
  "SeriesNumber": 9,
  "ShimSetting": [2077, -368, -7257, 443, 248, -667, -97, -7],
  "SliceThickness": 2,
  "SliceTiming": [0, 0.4375, 0.0875, 0.525, 0.175, 0.6125, 0.2625, 0.7, 0.35, 0, 0.4375, 0.0875, 0.525, 0.175, 0.6125, 0.2625, 0.7, 0.35, 0, 0.4375, 0.0875, 0.525, 0.175, 0.6125, 0.2625, 0.7, 0.35, 0, 0.4375, 0.0875, 0.525, 0.175, 0.6125, 0.2625, 0.7, 0.35, 0, 0.4375, 0.0875, 0.525, 0.175, 0.6125, 0.2625, 0.7, 0.35, 0, 0.4375, 0.0875, 0.525, 0.175, 0.6125, 0.2625, 0.7, 0.35, 0, 0.4375, 0.0875, 0.525, 0.175, 0.6125, 0.2625, 0.7, 0.35, 0, 0.4375, 0.0875, 0.525, 0.175, 0.6125, 0.2625, 0.7, 0.35],
  "SoftwareVersions": "syngo MR B19",
  "SpacingBetweenSlices": 2,
  "StationName": "MRC35450",
  "TaskName": "rest",
  "TotalReadoutTime": 0.0710717,
  "TxRefAmp": 317.333,
  "dcmmeta_affine": [
    [-1.9998921155929565, 1.0404392014606856e-07, -0.020774783566594124, 105.44805908203125],
    [0.003749253461137414, 1.9671622514724731, -0.36091339588165283, -74.31863403320312],
    [-0.020433668047189713, 0.360932856798172, 1.967056155204773, -110.6610336303711],
    [0.0, 0.0, 0.0, 1.0]
],
  "dcmmeta_reorient_transform": [
    [0.0, -1.0, 0.0, 103.0],
    [1.0, 0.0, 0.0, 0.0],
    [0.0, 0.0, 1.0, 0.0],
    [0.0, 0.0, 0.0, 1.0]
],
  "dcmmeta_shape": [104, 104, 72, 1070],
  "dcmmeta_slice_dim": 2,
  "dcmmeta_version": 0.6,
  "global": {
    "const": {
      "AcquisitionMatrix": [104, 0, 0, 104],
      "AngioFlag": "N",
      "BitsAllocated": 16,
      "BitsStored": 12,
      "Columns": 936,
      "EchoNumbers": 1,
      "EchoTime": 34.8,
      "EchoTrainLength": 1,
      "FlipAngle": 55.0,
      "HighBit": 11,
      "ImageOrientationPatient": [0.99994604958683, -0.0018746267239, -0.0102168336747, 5.2021961e-08, 0.98358114475792, -0.1804664281153],
      "ImagePositionPatient": [-937.40322637591, -945.078905723, 85.163523513928],
      "ImageType": [
        "ORIGINAL",
        "PRIMARY",
        "M",
        "MB",
        "ND",
        "MOSAIC"
],
      "ImagedNucleus": "1H",
      "ImagingFrequency": 123.234458,
      "InPlanePhaseEncodingDirection": "COL",
      "MRAcquisitionType": "2D",
      "MagneticFieldStrength": 3.0,
      "Manufacturer": "SIEMENS",
      "ManufacturerModelName": "TrioTim",
      "Modality": "MR",
      "NumberOfAverages": 1.0,
      "NumberOfPhaseEncodingSteps": 91,
      "PercentPhaseFieldOfView": 100.0,
      "PercentSampling": 100.0,
      "PerformedProcedureStepStartTime": "101512.937000",
      "PhotometricInterpretation": "MONOCHROME2",
      "PixelBandwidth": 1923.0,
      "PixelRepresentation": 0,
      "PixelSpacing": [2.0, 2.0],
      "ProtocolName": "cmrr_mbep2d_bold_2mm_MB8_Rest",
      "RepetitionTime": 785.0,
      "Rows": 936,
      "SAR": 0.11633503176433,
      "SamplesPerPixel": 1,
      "ScanOptions": [
        "PFP",
        "FS"
],
      "ScanningSequence": "EP",
      "SequenceName": "epfid2d1_104",
      "SequenceVariant": [
        "SK",
        "SS"
],
      "SeriesDescription": "cmrr_mbep2d_bold_2mm_MB8_Rest",
      "SeriesNumber": 9,
      "SeriesTime": "110716.921000",
      "SliceLocation": -96.522270513934,
      "SliceThickness": 2.0,
      "SmallestImagePixelValue": 0,
      "SoftwareVersions": "syngo MR B19",
      "SpacingBetweenSlices": 2.0000000063378,
      "SpecificCharacterSet": "ISO_IR 100",
      "StudyID": "1",
      "StudyTime": "101512.890000",
      "TransmitCoilName": "Body",
      "VariableFlipAngleFlag": "N",
      "WindowCenterWidthExplanation": "Algo1",
      "dBdt": 0.0},
    "slices": {}
  },
  "time": {
    "samples": {
      "AcquisitionNumber": [1, 2, 3, 4, 5, 6, 7, 8, 9, 10, 11, 12, 13, 14, 15, 16, 17, 18, 19, 20, 21, 22, 23, 24, 25, 26, 27, 28, 29, 30, 31, 32, 33, 34, 35, 36, 37, 38, 39, 40, 41, 42, 43, 44, 45, 46, 47, 48, 49, 50, 51, 52, 53, 54, 55, 56, 57, 58, 59, 60, 61, 62, 63, 64, 65, 66, 67, 68, 69, 70, 71, 72, 73, 74, 75, 76, 77, 78, 79, 80, 81, 82, 83, 84, 85, 86, 87, 88, 89, 90, 91, 92, 93, 94, 95, 96, 97, 98, 99, 100, 101, 102, 103, 104, 105, 106, 107, 108, 109, 110, 111, 112, 113, 114, 115, 116, 117, 118, 119, 120, 121, 122, 123, 124, 125, 126, 127, 128, 129, 130, 131, 132, 133, 134, 135, 136, 137, 138, 139, 140, 141, 142, 143, 144, 145, 146, 147, 148, 149, 150, 151, 152, 153, 154, 155, 156, 157, 158, 159, 160, 161, 162, 163, 164, 165, 166, 167, 168, 169, 170, 171, 172, 173, 174, 175, 176, 177, 178, 179, 180, 181, 182, 183, 184, 185, 186, 187, 188, 189, 190, 191, 192, 193, 194, 195, 196, 197, 198, 199, 200, 201, 202, 203, 204, 205, 206, 207, 208, 209, 210, 211, 212, 213, 214, 215, 216, 217, 218, 219, 220, 221, 222, 223, 224, 225, 226, 227, 228, 229, 230, 231, 232, 233, 234, 235, 236, 237, 238, 239, 240, 241, 242, 243, 244, 245, 246, 247, 248, 249, 250, 251, 252, 253, 254, 255, 256, 257, 258, 259, 260, 261, 262, 263, 264, 265, 266, 267, 268, 269, 270, 271, 272, 273, 274, 275, 276, 277, 278, 279, 280, 281, 282, 283, 284, 285, 286, 287, 288, 289, 290, 291, 292, 293, 294, 295, 296, 297, 298, 299, 300, 301, 302, 303, 304, 305, 306, 307, 308, 309, 310, 311, 312, 313, 314, 315, 316, 317, 318, 319, 320, 321, 322, 323, 324, 325, 326, 327, 328, 329, 330, 331, 332, 333, 334, 335, 336, 337, 338, 339, 340, 341, 342, 343, 344, 345, 346, 347, 348, 349, 350, 351, 352, 353, 354, 355, 356, 357, 358, 359, 360, 361, 362, 363, 364, 365, 366, 367, 368, 369, 370, 371, 372, 373, 374, 375, 376, 377, 378, 379, 380, 381, 382, 383, 384, 385, 386, 387, 388, 389, 390, 391, 392, 393, 394, 395, 396, 397, 398, 399, 400, 401, 402, 403, 404, 405, 406, 407, 408, 409, 410, 411, 412, 413, 414, 415, 416, 417, 418, 419, 420, 421, 422, 423, 424, 425, 426, 427, 428, 429, 430, 431, 432, 433, 434, 435, 436, 437, 438, 439, 440, 441, 442, 443, 444, 445, 446, 447, 448, 449, 450, 451, 452, 453, 454, 455, 456, 457, 458, 459, 460, 461, 462, 463, 464, 465, 466, 467, 468, 469, 470, 471, 472, 473, 474, 475, 476, 477, 478, 479, 480, 481, 482, 483, 484, 485, 486, 487, 488, 489, 490, 491, 492, 493, 494, 495, 496, 497, 498, 499, 500, 501, 502, 503, 504, 505, 506, 507, 508, 509, 510, 511, 512, 513, 514, 515, 516, 517, 518, 519, 520, 521, 522, 523, 524, 525, 526, 527, 528, 529, 530, 531, 532, 533, 534, 535, 536, 537, 538, 539, 540, 541, 542, 543, 544, 545, 546, 547, 548, 549, 550, 551, 552, 553, 554, 555, 556, 557, 558, 559, 560, 561, 562, 563, 564, 565, 566, 567, 568, 569, 570, 571, 572, 573, 574, 575, 576, 577, 578, 579, 580, 581, 582, 583, 584, 585, 586, 587, 588, 589, 590, 591, 592, 593, 594, 595, 596, 597, 598, 599, 600, 601, 602, 603, 604, 605, 606, 607, 608, 609, 610, 611, 612, 613, 614, 615, 616, 617, 618, 619, 620, 621, 622, 623, 624, 625, 626, 627, 628, 629, 630, 631, 632, 633, 634, 635, 636, 637, 638, 639, 640, 641, 642, 643, 644, 645, 646, 647, 648, 649, 650, 651, 652, 653, 654, 655, 656, 657, 658, 659, 660, 661, 662, 663, 664, 665, 666, 667, 668, 669, 670, 671, 672, 673, 674, 675, 676, 677, 678, 679, 680, 681, 682, 683, 684, 685, 686, 687, 688, 689, 690, 691, 692, 693, 694, 695, 696, 697, 698, 699, 700, 701, 702, 703, 704, 705, 706, 707, 708, 709, 710, 711, 712, 713, 714, 715, 716, 717, 718, 719, 720, 721, 722, 723, 724, 725, 726, 727, 728, 729, 730, 731, 732, 733, 734, 735, 736, 737, 738, 739, 740, 741, 742, 743, 744, 745, 746, 747, 748, 749, 750, 751, 752, 753, 754, 755, 756, 757, 758, 759, 760, 761, 762, 763, 764, 765, 766, 767, 768, 769, 770, 771, 772, 773, 774, 775, 776, 777, 778, 779, 780, 781, 782, 783, 784, 785, 786, 787, 788, 789, 790, 791, 792, 793, 794, 795, 796, 797, 798, 799, 800, 801, 802, 803, 804, 805, 806, 807, 808, 809, 810, 811, 812, 813, 814, 815, 816, 817, 818, 819, 820, 821, 822, 823, 824, 825, 826, 827, 828, 829, 830, 831, 832, 833, 834, 835, 836, 837, 838, 839, 840, 841, 842, 843, 844, 845, 846, 847, 848, 849, 850, 851, 852, 853, 854, 855, 856, 857, 858, 859, 860, 861, 862, 863, 864, 865, 866, 867, 868, 869, 870, 871, 872, 873, 874, 875, 876, 877, 878, 879, 880, 881, 882, 883, 884, 885, 886, 887, 888, 889, 890, 891, 892, 893, 894, 895, 896, 897, 898, 899, 900, 901, 902, 903, 904, 905, 906, 907, 908, 909, 910, 911, 912, 913, 914, 915, 916, 917, 918, 919, 920, 921, 922, 923, 924, 925, 926, 927, 928, 929, 930, 931, 932, 933, 934, 935, 936, 937, 938, 939, 940, 941, 942, 943, 944, 945, 946, 947, 948, 949, 950, 951, 952, 953, 954, 955, 956, 957, 958, 959, 960, 961, 962, 963, 964, 965, 966, 967, 968, 969, 970, 971, 972, 973, 974, 975, 976, 977, 978, 979, 980, 981, 982, 983, 984, 985, 986, 987, 988, 989, 990, 991, 992, 993, 994, 995, 996, 997, 998, 999, 1000, 1001, 1002, 1003, 1004, 1005, 1006, 1007, 1008, 1009, 1010, 1011, 1012, 1013, 1014, 1015, 1016, 1017, 1018, 1019, 1020, 1021, 1022, 1023, 1024, 1025, 1026, 1027, 1028, 1029, 1030, 1031, 1032, 1033, 1034, 1035, 1036, 1037, 1038, 1039, 1040, 1041, 1042, 1043, 1044, 1045, 1046, 1047, 1048, 1049, 1050, 1051, 1052, 1053, 1054, 1055, 1056, 1057, 1058, 1059, 1060, 1061, 1062, 1063, 1064, 1065, 1066, 1067, 1068, 1069, 1070],
      "AcquisitionTime": ["110646.487500", "110647.275000", "110648.062500", "110648.852500", "110649.640000", "110650.427500", "110651.215000", "110652.005000", "110652.792500", "110653.580000", "110654.367500", "110655.157500", "110655.945000", "110656.732500", "110657.520000", "110658.310000", "110659.097500", "110659.885000", "110700.672500", "110701.462500", "110702.250000", "110703.037500", "110703.827500", "110704.615000", "110705.402500", "110706.190000", "110706.980000", "110707.767500", "110708.555000", "110709.342500", "110710.132500", "110710.920000", "110711.707500", "110712.495000", "110713.285000", "110714.072500", "110714.860000", "110715.647500", "110716.437500", "110717.225000", "110718.012500", "110718.800000", "110719.590000", "110720.377500", "110721.165000", "110721.955000", "110722.742500", "110723.530000", "110724.317500", "110725.107500", "110725.895000", "110726.682500", "110727.470000", "110728.260000", "110729.047500", "110729.835000", "110730.622500", "110731.412500", "110732.200000", "110732.987500", "110733.775000", "110734.565000", "110735.352500", "110736.140000", "110736.927500", "110737.717500", "110738.505000", "110739.292500", "110740.082500", "110740.870000", "110741.657500", "110742.445000", "110743.235000", "110744.022500", "110744.810000", "110745.597500", "110746.387500", "110747.175000", "110747.962500", "110748.750000", "110749.540000", "110750.327500", "110751.115000", "110751.902500", "110752.692500", "110753.480000", "110754.267500", "110755.055000", "110755.845000", "110756.632500", "110757.420000", "110758.210000", "110758.997500", "110759.785000", "110800.572500", "110801.362500", "110802.150000", "110802.937500", "110803.725000", "110804.515000", "110805.302500", "110806.090000", "110806.877500", "110807.667500", "110808.455000", "110809.242500", "110810.030000", "110810.820000", "110811.607500", "110812.395000", "110813.182500", "110813.972500", "110814.760000", "110815.547500", "110816.337500", "110817.125000", "110817.912500", "110818.700000", "110819.490000", "110820.277500", "110821.065000", "110821.852500", "110822.642500", "110823.430000", "110824.217500", "110825.005000", "110825.795000", "110826.582500", "110827.370000", "110828.157500", "110828.947500", "110829.735000", "110830.522500", "110831.310000", "110832.100000", "110832.887500", "110833.675000", "110834.465000", "110835.252500", "110836.040000", "110836.827500", "110837.617500", "110838.405000", "110839.192500", "110839.980000", "110840.770000", "110841.557500", "110842.345000", "110843.132500", "110843.922500", "110844.710000", "110845.497500", "110846.285000", "110847.075000", "110847.862500", "110848.650000", "110849.437500", "110850.227500", "110851.015000", "110851.802500", "110852.592500", "110853.380000", "110854.167500", "110854.955000", "110855.745000", "110856.532500", "110857.320000", "110858.107500", "110858.897500", "110859.685000", "110900.472500", "110901.260000", "110902.050000", "110902.837500", "110903.625000", "110904.412500", "110905.202500", "110905.990000", "110906.777500", "110907.565000", "110908.355000", "110909.142500", "110909.930000", "110910.720000", "110911.507500", "110912.295000", "110913.082500", "110913.872500", "110914.660000", "110915.447500", "110916.235000", "110917.025000", "110917.812500", "110918.600000", "110919.387500", "110920.177500", "110920.965000", "110921.752500", "110922.540000", "110923.330000", "110924.117500", "110924.905000", "110925.695000", "110926.482500", "110927.270000", "110928.057500", "110928.847500", "110929.635000", "110930.422500", "110931.210000", "110932.000000", "110932.787500", "110933.575000", "110934.362500", "110935.152500", "110935.940000", "110936.727500", "110937.515000", "110938.305000", "110939.092500", "110939.880000", "110940.667500", "110941.457500", "110942.245000", "110943.032500", "110943.822500", "110944.610000", "110945.397500", "110946.185000", "110946.975000", "110947.762500", "110948.550000", "110949.337500", "110950.127500", "110950.915000", "110951.702500", "110952.490000", "110953.280000", "110954.067500", "110954.855000", "110955.642500", "110956.432500", "110957.220000", "110958.007500", "110958.795000", "110959.585000", "111000.372500", "111001.160000", "111001.950000", "111002.737500", "111003.525000", "111004.312500", "111005.102500", "111005.890000", "111006.677500", "111007.465000", "111008.255000", "111009.042500", "111009.830000", "111010.617500", "111011.407500", "111012.195000", "111012.982500", "111013.770000", "111014.560000", "111015.347500", "111016.135000", "111016.922500", "111017.712500", "111018.500000", "111019.287500", "111020.077500", "111020.865000", "111021.652500", "111022.440000", "111023.230000", "111024.017500", "111024.805000", "111025.592500", "111026.382500", "111027.170000", "111027.957500", "111028.745000", "111029.535000", "111030.322500", "111031.110000", "111031.897500", "111032.687500", "111033.475000", "111034.262500", "111035.050000", "111035.840000", "111036.627500", "111037.415000", "111038.205000", "111038.992500", "111039.780000", "111040.567500", "111041.357500", "111042.145000", "111042.932500", "111043.720000", "111044.510000", "111045.297500", "111046.085000", "111046.872500", "111047.662500", "111048.450000", "111049.237500", "111050.025000", "111050.815000", "111051.602500", "111052.390000", "111053.177500", "111053.967500", "111054.755000", "111055.542500", "111056.332500", "111057.120000", "111057.907500", "111058.695000", "111059.485000", "111100.272500", "111101.060000", "111101.847500", "111102.637500", "111103.425000", "111104.212500", "111105.000000", "111105.790000", "111106.577500", "111107.365000", "111108.152500", "111108.942500", "111109.730000", "111110.517500", "111111.305000", "111112.095000", "111112.882500", "111113.670000", "111114.460000", "111115.247500", "111116.035000", "111116.822500", "111117.612500", "111118.400000", "111119.187500", "111119.975000", "111120.765000", "111121.552500", "111122.340000", "111123.127500", "111123.917500", "111124.705000", "111125.492500", "111126.280000", "111127.070000", "111127.857500", "111128.645000", "111129.432500", "111130.222500", "111131.010000", "111131.797500", "111132.587500", "111133.375000", "111134.162500", "111134.950000", "111135.740000", "111136.527500", "111137.315000", "111138.102500", "111138.892500", "111139.680000", "111140.467500", "111141.255000", "111142.045000", "111142.832500", "111143.620000", "111144.407500", "111145.197500", "111145.985000", "111146.772500", "111147.560000", "111148.350000", "111149.137500", "111149.925000", "111150.715000", "111151.502500", "111152.290000", "111153.077500", "111153.867500", "111154.655000", "111155.442500", "111156.230000", "111157.020000", "111157.807500", "111158.595000", "111159.382500", "111200.172500", "111200.960000", "111201.747500", "111202.535000", "111203.325000", "111204.112500", "111204.900000", "111205.687500", "111206.477500", "111207.265000", "111208.052500", "111208.842500", "111209.630000", "111210.417500", "111211.205000", "111211.995000", "111212.782500", "111213.570000", "111214.357500", "111215.147500", "111215.935000", "111216.722500", "111217.510000", "111218.300000", "111219.087500", "111219.875000", "111220.662500", "111221.452500", "111222.240000", "111223.027500", "111223.815000", "111224.605000", "111225.392500", "111226.180000", "111226.970000", "111227.757500", "111228.545000", "111229.332500", "111230.122500", "111230.910000", "111231.697500", "111232.485000", "111233.275000", "111234.062500", "111234.850000", "111235.637500", "111236.427500", "111237.215000", "111238.002500", "111238.790000", "111239.580000", "111240.367500", "111241.155000", "111241.945000", "111242.732500", "111243.520000", "111244.307500", "111245.097500", "111245.885000", "111246.672500", "111247.460000", "111248.250000", "111249.037500", "111249.825000", "111250.612500", "111251.402500", "111252.190000", "111252.977500", "111253.765000", "111254.555000", "111255.342500", "111256.130000", "111256.917500", "111257.707500", "111258.495000", "111259.282500", "111300.072500", "111300.860000", "111301.647500", "111302.435000", "111303.225000", "111304.012500", "111304.800000", "111305.587500", "111306.377500", "111307.165000", "111307.952500", "111308.740000", "111309.530000", "111310.317500", "111311.105000", "111311.892500", "111312.682500", "111313.470000", "111314.257500", "111315.045000", "111315.835000", "111316.622500", "111317.410000", "111318.200000", "111318.987500", "111319.775000", "111320.562500", "111321.352500", "111322.140000", "111322.927500", "111323.715000", "111324.505000", "111325.292500", "111326.080000", "111326.867500", "111327.657500", "111328.445000", "111329.232500", "111330.020000", "111330.810000", "111331.597500", "111332.385000", "111333.172500", "111333.962500", "111334.750000", "111335.537500", "111336.327500", "111337.115000", "111337.902500", "111338.690000", "111339.480000", "111340.267500", "111341.055000", "111341.842500", "111342.632500", "111343.420000", "111344.207500", "111344.995000", "111345.785000", "111346.572500", "111347.360000", "111348.147500", "111348.937500", "111349.725000", "111350.512500", "111351.300000", "111352.090000", "111352.877500", "111353.665000", "111354.455000", "111355.242500", "111356.030000", "111356.817500", "111357.607500", "111358.395000", "111359.182500", "111359.970000", "111400.760000", "111401.547500", "111402.335000", "111403.122500", "111403.912500", "111404.700000", "111405.487500", "111406.275000", "111407.065000", "111407.852500", "111408.640000", "111409.427500", "111410.217500", "111411.005000", "111411.792500", "111412.582500", "111413.370000", "111414.157500", "111414.945000", "111415.735000", "111416.522500", "111417.310000", "111418.097500", "111418.887500", "111419.675000", "111420.462500", "111421.250000", "111422.040000", "111422.827500", "111423.615000", "111424.402500", "111425.192500", "111425.980000", "111426.767500", "111427.555000", "111428.345000", "111429.132500", "111429.920000", "111430.710000", "111431.497500", "111432.285000", "111433.072500", "111433.862500", "111434.650000", "111435.437500", "111436.225000", "111437.015000", "111437.802500", "111438.590000", "111439.377500", "111440.167500", "111440.955000", "111441.742500", "111442.530000", "111443.320000", "111444.107500", "111444.895000", "111445.682500", "111446.472500", "111447.260000", "111448.047500", "111448.837500", "111449.625000", "111450.412500", "111451.200000", "111451.990000", "111452.777500", "111453.565000", "111454.352500", "111455.142500", "111455.930000", "111456.717500", "111457.505000", "111458.295000", "111459.082500", "111459.870000", "111500.657500", "111501.447500", "111502.235000", "111503.022500", "111503.810000", "111504.600000", "111505.387500", "111506.175000", "111506.965000", "111507.752500", "111508.540000", "111509.327500", "111510.117500", "111510.905000", "111511.692500", "111512.480000", "111513.270000", "111514.057500", "111514.845000", "111515.632500", "111516.422500", "111517.210000", "111517.997500", "111518.785000", "111519.575000", "111520.362500", "111521.150000", "111521.937500", "111522.727500", "111523.515000", "111524.302500", "111525.092500", "111525.880000", "111526.667500", "111527.455000", "111528.245000", "111529.032500", "111529.820000", "111530.607500", "111531.397500", "111532.185000", "111532.972500", "111533.760000", "111534.550000", "111535.337500", "111536.125000", "111536.912500", "111537.702500", "111538.490000", "111539.277500", "111540.065000", "111540.855000", "111541.642500", "111542.430000", "111543.220000", "111544.007500", "111544.795000", "111545.582500", "111546.372500", "111547.160000", "111547.947500", "111548.735000", "111549.525000", "111550.312500", "111551.100000", "111551.887500", "111552.677500", "111553.465000", "111554.252500", "111555.040000", "111555.830000", "111556.617500", "111557.405000", "111558.195000", "111558.982500", "111559.770000", "111600.557500", "111601.347500", "111602.135000", "111602.922500", "111603.710000", "111604.500000", "111605.287500", "111606.075000", "111606.862500", "111607.652500", "111608.440000", "111609.227500", "111610.015000", "111610.805000", "111611.592500", "111612.380000", "111613.167500", "111613.957500", "111614.745000", "111615.532500", "111616.322500", "111617.110000", "111617.897500", "111618.685000", "111619.475000", "111620.262500", "111621.050000", "111621.837500", "111622.627500", "111623.415000", "111624.202500", "111624.990000", "111625.780000", "111626.567500", "111627.355000", "111628.142500", "111628.932500", "111629.720000", "111630.507500", "111631.295000", "111632.085000", "111632.872500", "111633.660000", "111634.450000", "111635.237500", "111636.025000", "111636.812500", "111637.602500", "111638.390000", "111639.177500", "111639.965000", "111640.755000", "111641.542500", "111642.330000", "111643.117500", "111643.907500", "111644.695000", "111645.482500", "111646.270000", "111647.060000", "111647.847500", "111648.635000", "111649.422500", "111650.212500", "111651.000000", "111651.787500", "111652.577500", "111653.365000", "111654.152500", "111654.940000", "111655.730000", "111656.517500", "111657.305000", "111658.092500", "111658.882500", "111659.670000", "111700.457500", "111701.245000", "111702.035000", "111702.822500", "111703.610000", "111704.397500", "111705.187500", "111705.975000", "111706.762500", "111707.550000", "111708.340000", "111709.127500", "111709.915000", "111710.705000", "111711.492500", "111712.280000", "111713.067500", "111713.857500", "111714.645000", "111715.432500", "111716.220000", "111717.010000", "111717.797500", "111718.585000", "111719.372500", "111720.162500", "111720.950000", "111721.737500", "111722.525000", "111723.315000", "111724.102500", "111724.890000", "111725.677500", "111726.467500", "111727.255000", "111728.042500", "111728.832500", "111729.620000", "111730.407500", "111731.195000", "111731.985000", "111732.772500", "111733.560000", "111734.347500", "111735.137500", "111735.925000", "111736.712500", "111737.500000", "111738.290000", "111739.077500", "111739.865000", "111740.652500", "111741.442500", "111742.230000", "111743.017500", "111743.805000", "111744.595000", "111745.382500", "111746.170000", "111746.960000", "111747.747500", "111748.535000", "111749.322500", "111750.112500", "111750.900000", "111751.687500", "111752.475000", "111753.265000", "111754.052500", "111754.840000", "111755.627500", "111756.417500", "111757.205000", "111757.992500", "111758.780000", "111759.570000", "111800.357500", "111801.145000", "111801.932500", "111802.722500", "111803.510000", "111804.297500", "111805.087500", "111805.875000", "111806.662500", "111807.450000", "111808.240000", "111809.027500", "111809.815000", "111810.602500", "111811.392500", "111812.180000", "111812.967500", "111813.755000", "111814.545000", "111815.332500", "111816.120000", "111816.907500", "111817.697500", "111818.485000", "111819.272500", "111820.060000", "111820.850000", "111821.637500", "111822.425000", "111823.215000", "111824.002500", "111824.790000", "111825.577500", "111826.367500", "111827.155000", "111827.942500", "111828.730000", "111829.520000", "111830.307500", "111831.095000", "111831.882500", "111832.672500", "111833.460000", "111834.247500", "111835.035000", "111835.825000", "111836.612500", "111837.400000", "111838.187500", "111838.977500", "111839.765000", "111840.552500", "111841.342500", "111842.130000", "111842.917500", "111843.705000", "111844.495000", "111845.282500", "111846.070000", "111846.857500", "111847.647500", "111848.435000", "111849.222500", "111850.010000", "111850.800000", "111851.587500", "111852.375000", "111853.162500", "111853.952500", "111854.740000", "111855.527500", "111856.315000", "111857.105000", "111857.892500", "111858.680000", "111859.470000", "111900.257500", "111901.045000", "111901.832500", "111902.622500", "111903.410000", "111904.197500", "111904.985000", "111905.775000", "111906.562500", "111907.350000", "111908.137500", "111908.927500", "111909.715000", "111910.502500", "111911.290000", "111912.080000", "111912.867500", "111913.655000", "111914.445000", "111915.232500", "111916.020000", "111916.807500", "111917.597500", "111918.385000", "111919.172500", "111919.960000", "111920.750000", "111921.537500", "111922.325000", "111923.112500", "111923.902500", "111924.690000", "111925.477500", "111926.265000", "111927.055000", "111927.842500", "111928.630000", "111929.417500", "111930.207500", "111930.995000", "111931.782500", "111932.572500", "111933.360000", "111934.147500", "111934.935000", "111935.725000", "111936.512500", "111937.300000", "111938.087500", "111938.877500", "111939.665000", "111940.452500", "111941.240000", "111942.030000", "111942.817500", "111943.605000", "111944.392500", "111945.182500", "111945.970000", "111946.757500", "111947.545000", "111948.335000", "111949.122500", "111949.910000", "111950.700000", "111951.487500", "111952.275000", "111953.062500", "111953.852500", "111954.640000", "111955.427500", "111956.215000", "111957.005000", "111957.792500", "111958.580000", "111959.367500", "112000.157500", "112000.945000", "112001.732500", "112002.520000", "112003.310000", "112004.097500", "112004.885000", "112005.672500", "112006.462500", "112007.250000", "112008.037500", "112008.827500", "112009.615000", "112010.402500", "112011.190000", "112011.980000", "112012.767500", "112013.555000", "112014.342500", "112015.132500", "112015.920000", "112016.707500", "112017.495000", "112018.285000", "112019.072500", "112019.860000", "112020.647500", "112021.437500", "112022.225000", "112023.012500", "112023.800000", "112024.590000", "112025.377500", "112026.165000", "112026.955000", "112027.742500", "112028.530000", "112029.317500", "112030.107500", "112030.895000", "112031.682500", "112032.470000", "112033.260000", "112034.047500", "112034.835000", "112035.622500", "112036.412500", "112037.200000", "112037.987500", "112038.775000", "112039.565000", "112040.352500", "112041.140000", "112041.927500", "112042.717500", "112043.505000", "112044.292500", "112045.082500", "112045.870000", "112046.657500", "112047.445000", "112048.235000", "112049.022500"],
