{
  "AcquisitionMatrixPE": 104,
  "AcquisitionNumber": 1,
  "AcquisitionTime": "15:30:40.722500",
  "BandwidthPerPixelPhaseEncode": 13.935,
  "BaseResolution": 104,
  "CoilString": "C:HEA;HEP",
  "ConversionSoftware": "dcm2niix",
  "ConversionSoftwareVersion": "v1.0.20210317",
  "DerivedVendorReportedEchoSpacing": 0.000690017,
  "DeviceSerialNumber": "35450",
  "DwellTime": 2.5e-06,
  "EchoTime": 0.0348,
  "EffectiveEchoSpacing": 0.000690017,
  "FlipAngle": 55,
  "ImageComments": "Unaliased MB8/PE3 (remote)",
  "ImageOrientationPatientDICOM": [1, 6.87957e-06, 6.86899e-05, -2.39643e-08, 0.995057, -0.0993101],
  "ImageType": [
    "ORIGINAL",
    "PRIMARY",
    "M",
    "MB",
    "ND",
    "MOSAIC"
],
  "ImagingFrequency": 123.234,
  "InPlanePhaseEncodingDirectionDICOM": "COL",
  "InstitutionAddress": "Univeristy Ave. 197,Newark,North East,US,07102-1814",
  "InstitutionName": "RUBIC",
  "InstitutionalDepartmentName": "Department",
  "MRAcquisitionType": "2D",
  "MagneticFieldStrength": 3,
  "Manufacturer": "Siemens",
  "ManufacturersModelName": "TrioTim",
  "Modality": "MR",
  "MultibandAccelerationFactor": 8,
  "PartialFourier": 0.875,
  "PatientPosition": "HFS",
  "PercentPhaseFOV": 100,
  "PercentSampling": 100,
  "PhaseEncodingDirection": "j-",
  "PhaseEncodingSteps": 91,
  "PhaseResolution": 1,
  "PixelBandwidth": 1923,
  "ProcedureStepDescription": "Cole^Michael",
  "ProtocolName": "cmrr_mbep2d_bold_2mm_MB8_Task_8x",
  "PulseSequenceDetails": "%CustomerSeq%\\cmrr_mbep2d_bold",
  "ReceiveCoilName": "32Ch_Head",
  "ReconMatrixPE": 104,
  "RepetitionTime": 0.785,
  "SAR": 0.123774,
  "ScanOptions": "PFP\\FS",
  "ScanningSequence": "EP",
  "SequenceName": "epfid2d1_104",
  "SequenceVariant": "SK\\SS",
  "SeriesDescription": "cmrr_mbep2d_bold_2mm_MB8_Task_8x",
  "SeriesNumber": 15,
  "ShimSetting": [2093, -461, -7266, 490, -125, -298, 239, 100],
  "SliceThickness": 2,
  "SliceTiming": [0, 0.44, 0.0875, 0.5275, 0.1775, 0.615, 0.265, 0.7025, 0.3525, 0, 0.44, 0.0875, 0.5275, 0.1775, 0.615, 0.265, 0.7025, 0.3525, 0, 0.44, 0.0875, 0.5275, 0.1775, 0.615, 0.265, 0.7025, 0.3525, 0, 0.44, 0.0875, 0.5275, 0.1775, 0.615, 0.265, 0.7025, 0.3525, 0, 0.44, 0.0875, 0.5275, 0.1775, 0.615, 0.265, 0.7025, 0.3525, 0, 0.44, 0.0875, 0.5275, 0.1775, 0.615, 0.265, 0.7025, 0.3525, 0, 0.44, 0.0875, 0.5275, 0.1775, 0.615, 0.265, 0.7025, 0.3525, 0, 0.44, 0.0875, 0.5275, 0.1775, 0.615, 0.265, 0.7025, 0.3525],
  "SoftwareVersions": "syngo MR B19",
  "SpacingBetweenSlices": 2,
  "StationName": "MRC35450",
  "TaskName": "cpro",
  "TotalReadoutTime": 0.0710717,
  "TxRefAmp": 320.014,
  "dcmmeta_affine": [
    [-2.0, -4.792867258629485e-08, 0.00013806707283947617, 99.77368927001953],
    [-1.3759142348135356e-05, 1.9901130199432373, -0.19862014055252075, -84.11650085449219],
    [0.0001373797858832404, 0.19862014055252075, 1.9901131391525269, -96.22532653808594],
    [0.0, 0.0, 0.0, 1.0]
],
  "dcmmeta_reorient_transform": [
    [0.0, -1.0, 0.0, 103.0],
    [1.0, 0.0, 0.0, 0.0],
    [0.0, 0.0, 1.0, 0.0],
    [0.0, 0.0, 0.0, 1.0]
],
  "dcmmeta_shape": [104, 104, 72, 581],
  "dcmmeta_slice_dim": 2,
  "dcmmeta_version": 0.6,
  "global": {
    "const": {
      "AcquisitionMatrix": [104, 0, 0, 104],
      "AngioFlag": "N",
      "BitsAllocated": 16,
      "BitsStored": 12,
      "Columns": 936,
      "EchoNumbers": 1,
      "EchoTime": 34.8,
      "EchoTrainLength": 1,
      "FlipAngle": 55.0,
      "HighBit": 11,
      "ImageOrientationPatient": [0.99999999761719, 6.879571237e-06, 6.868989263e-05, -2.3964336e-08, 0.99505653616179, -0.0993100691858],
      "ImagePositionPatient": [-931.77366222491, -948.75790479457, 6.8013766361175],
      "ImageType": [
        "ORIGINAL",
        "PRIMARY",
        "M",
        "MB",
        "ND",
        "MOSAIC"
],
      "ImagedNucleus": "1H",
      "ImagingFrequency": 123.234439,
      "InPlanePhaseEncodingDirection": "COL",
      "MRAcquisitionType": "2D",
      "MagneticFieldStrength": 3.0,
      "Manufacturer": "SIEMENS",
      "ManufacturerModelName": "TrioTim",
      "Modality": "MR",
      "NumberOfAverages": 1.0,
      "NumberOfPhaseEncodingSteps": 91,
      "PercentPhaseFieldOfView": 100.0,
      "PercentSampling": 100.0,
      "PerformedProcedureStepStartTime": "140659.812000",
      "PhotometricInterpretation": "MONOCHROME2",
      "PixelBandwidth": 1923.0,
      "PixelRepresentation": 0,
      "PixelSpacing": [2.0, 2.0],
      "ProtocolName": "cmrr_mbep2d_bold_2mm_MB8_Task_8x",
      "RepetitionTime": 785.0,
      "Rows": 936,
      "SAR": 0.12377423685496,
      "SamplesPerPixel": 1,
      "ScanOptions": [
        "PFP",
        "FS"
],
      "ScanningSequence": "EP",
      "SequenceName": "epfid2d1_104",
      "SequenceVariant": [
        "SK",
        "SS"
],
      "SeriesDescription": "cmrr_mbep2d_bold_2mm_MB8_Task_8x",
      "SeriesNumber": 15,
      "SeriesTime": "153101.203000",
      "SliceLocation": -87.389135047254,
      "SliceThickness": 2.0,
      "SmallestImagePixelValue": 0,
      "SoftwareVersions": "syngo MR B19",
      "SpacingBetweenSlices": 2.0000000424943,
      "SpecificCharacterSet": "ISO_IR 100",
      "StudyID": "1",
      "StudyTime": "140659.781000",
      "TransmitCoilName": "Body",
      "VariableFlipAngleFlag": "N",
      "WindowCenterWidthExplanation": "Algo1",
      "dBdt": 0.0},
    "slices": {}
  },
  "time": {
    "samples": {
      "AcquisitionNumber": [1, 2, 3, 4, 5, 6, 7, 8, 9, 10, 11, 12, 13, 14, 15, 16, 17, 18, 19, 20, 21, 22, 23, 24, 25, 26, 27, 28, 29, 30, 31, 32, 33, 34, 35, 36, 37, 38, 39, 40, 41, 42, 43, 44, 45, 46, 47, 48, 49, 50, 51, 52, 53, 54, 55, 56, 57, 58, 59, 60, 61, 62, 63, 64, 65, 66, 67, 68, 69, 70, 71, 72, 73, 74, 75, 76, 77, 78, 79, 80, 81, 82, 83, 84, 85, 86, 87, 88, 89, 90, 91, 92, 93, 94, 95, 96, 97, 98, 99, 100, 101, 102, 103, 104, 105, 106, 107, 108, 109, 110, 111, 112, 113, 114, 115, 116, 117, 118, 119, 120, 121, 122, 123, 124, 125, 126, 127, 128, 129, 130, 131, 132, 133, 134, 135, 136, 137, 138, 139, 140, 141, 142, 143, 144, 145, 146, 147, 148, 149, 150, 151, 152, 153, 154, 155, 156, 157, 158, 159, 160, 161, 162, 163, 164, 165, 166, 167, 168, 169, 170, 171, 172, 173, 174, 175, 176, 177, 178, 179, 180, 181, 182, 183, 184, 185, 186, 187, 188, 189, 190, 191, 192, 193, 194, 195, 196, 197, 198, 199, 200, 201, 202, 203, 204, 205, 206, 207, 208, 209, 210, 211, 212, 213, 214, 215, 216, 217, 218, 219, 220, 221, 222, 223, 224, 225, 226, 227, 228, 229, 230, 231, 232, 233, 234, 235, 236, 237, 238, 239, 240, 241, 242, 243, 244, 245, 246, 247, 248, 249, 250, 251, 252, 253, 254, 255, 256, 257, 258, 259, 260, 261, 262, 263, 264, 265, 266, 267, 268, 269, 270, 271, 272, 273, 274, 275, 276, 277, 278, 279, 280, 281, 282, 283, 284, 285, 286, 287, 288, 289, 290, 291, 292, 293, 294, 295, 296, 297, 298, 299, 300, 301, 302, 303, 304, 305, 306, 307, 308, 309, 310, 311, 312, 313, 314, 315, 316, 317, 318, 319, 320, 321, 322, 323, 324, 325, 326, 327, 328, 329, 330, 331, 332, 333, 334, 335, 336, 337, 338, 339, 340, 341, 342, 343, 344, 345, 346, 347, 348, 349, 350, 351, 352, 353, 354, 355, 356, 357, 358, 359, 360, 361, 362, 363, 364, 365, 366, 367, 368, 369, 370, 371, 372, 373, 374, 375, 376, 377, 378, 379, 380, 381, 382, 383, 384, 385, 386, 387, 388, 389, 390, 391, 392, 393, 394, 395, 396, 397, 398, 399, 400, 401, 402, 403, 404, 405, 406, 407, 408, 409, 410, 411, 412, 413, 414, 415, 416, 417, 418, 419, 420, 421, 422, 423, 424, 425, 426, 427, 428, 429, 430, 431, 432, 433, 434, 435, 436, 437, 438, 439, 440, 441, 442, 443, 444, 445, 446, 447, 448, 449, 450, 451, 452, 453, 454, 455, 456, 457, 458, 459, 460, 461, 462, 463, 464, 465, 466, 467, 468, 469, 470, 471, 472, 473, 474, 475, 476, 477, 478, 479, 480, 481, 482, 483, 484, 485, 486, 487, 488, 489, 490, 491, 492, 493, 494, 495, 496, 497, 498, 499, 500, 501, 502, 503, 504, 505, 506, 507, 508, 509, 510, 511, 512, 513, 514, 515, 516, 517, 518, 519, 520, 521, 522, 523, 524, 525, 526, 527, 528, 529, 530, 531, 532, 533, 534, 535, 536, 537, 538, 539, 540, 541, 542, 543, 544, 545, 546, 547, 548, 549, 550, 551, 552, 553, 554, 555, 556, 557, 558, 559, 560, 561, 562, 563, 564, 565, 566, 567, 568, 569, 570, 571, 572, 573, 574, 575, 576, 577, 578, 579, 580, 581],
      "AcquisitionTime": ["153040.722500", "153041.512500", "153042.300000", "153043.087500", "153043.877500", "153044.665000", "153045.452500", "153046.240000", "153047.030000", "153047.817500", "153048.605000", "153049.392500", "153050.182500", "153050.970000", "153051.757500", "153052.545000", "153053.335000", "153054.122500", "153054.910000", "153055.697500", "153056.487500", "153057.275000", "153058.062500", "153058.850000", "153059.640000", "153100.427500", "153101.215000", "153102.005000", "153102.792500", "153103.580000", "153104.367500", "153105.157500", "153105.945000", "153106.732500", "153107.520000", "153108.310000", "153109.097500", "153109.885000", "153110.672500", "153111.462500", "153112.250000", "153113.037500", "153113.825000", "153114.615000", "153115.402500", "153116.190000", "153116.977500", "153117.767500", "153118.555000", "153119.342500", "153120.132500", "153120.920000", "153121.707500", "153122.495000", "153123.285000", "153124.072500", "153124.860000", "153125.647500", "153126.437500", "153127.225000", "153128.012500", "153128.800000", "153129.590000", "153130.377500", "153131.165000", "153131.952500", "153132.742500", "153133.530000", "153134.317500", "153135.105000", "153135.895000", "153136.682500", "153137.470000", "153138.260000", "153139.047500", "153139.835000", "153140.622500", "153141.412500", "153142.200000", "153142.987500", "153143.775000", "153144.565000", "153145.352500", "153146.140000", "153146.927500", "153147.717500", "153148.505000", "153149.292500", "153150.080000", "153150.870000", "153151.657500", "153152.445000", "153153.232500", "153154.022500", "153154.810000", "153155.597500", "153156.387500", "153157.175000", "153157.962500", "153158.750000", "153159.540000", "153200.327500", "153201.115000", "153201.902500", "153202.692500", "153203.480000", "153204.267500", "153205.055000", "153205.845000", "153206.632500", "153207.420000", "153208.207500", "153208.997500", "153209.785000", "153210.572500", "153211.362500", "153212.150000", "153212.937500", "153213.725000", "153214.515000", "153215.302500", "153216.090000", "153216.877500", "153217.667500", "153218.455000", "153219.242500", "153220.030000", "153220.820000", "153221.607500", "153222.395000", "153223.182500", "153223.972500", "153224.760000", "153225.547500", "153226.335000", "153227.125000", "153227.912500", "153228.700000", "153229.490000", "153230.277500", "153231.065000", "153231.852500", "153232.642500", "153233.430000", "153234.217500", "153235.005000", "153235.795000", "153236.582500", "153237.370000", "153238.157500", "153238.947500", "153239.735000", "153240.522500", "153241.310000", "153242.100000", "153242.887500", "153243.675000", "153244.462500", "153245.252500", "153246.040000", "153246.827500", "153247.617500", "153248.405000", "153249.192500", "153249.980000", "153250.770000", "153251.557500", "153252.345000", "153253.132500", "153253.922500", "153254.710000", "153255.497500", "153256.285000", "153257.075000", "153257.862500", "153258.650000", "153259.437500", "153300.227500", "153301.015000", "153301.802500", "153302.590000", "153303.380000", "153304.167500", "153304.955000", "153305.745000", "153306.532500", "153307.320000", "153308.107500", "153308.897500", "153309.685000", "153310.472500", "153311.260000", "153312.050000", "153312.837500", "153313.625000", "153314.412500", "153315.202500", "153315.990000", "153316.777500", "153317.565000", "153318.355000", "153319.142500", "153319.930000", "153320.717500", "153321.507500", "153322.295000", "153323.082500", "153323.872500", "153324.660000", "153325.447500", "153326.235000", "153327.025000", "153327.812500", "153328.600000", "153329.387500", "153330.177500", "153330.965000", "153331.752500", "153332.540000", "153333.330000", "153334.117500", "153334.905000", "153335.692500", "153336.482500", "153337.270000", "153338.057500", "153338.845000", "153339.635000", "153340.422500", "153341.210000", "153342.000000", "153342.787500", "153343.575000", "153344.362500", "153345.152500", "153345.940000", "153346.727500", "153347.515000", "153348.305000", "153349.092500", "153349.880000", "153350.667500", "153351.457500", "153352.245000", "153353.032500", "153353.820000", "153354.610000", "153355.397500", "153356.185000", "153356.972500", "153357.762500", "153358.550000", "153359.337500", "153400.127500", "153400.915000", "153401.702500", "153402.490000", "153403.280000", "153404.067500", "153404.855000", "153405.642500", "153406.432500", "153407.220000", "153408.007500", "153408.795000", "153409.585000", "153410.372500", "153411.160000", "153411.947500", "153412.737500", "153413.525000", "153414.312500", "153415.100000", "153415.890000", "153416.677500", "153417.465000", "153418.255000", "153419.042500", "153419.830000", "153420.617500", "153421.407500", "153422.195000", "153422.982500", "153423.770000", "153424.560000", "153425.347500", "153426.135000", "153426.922500", "153427.712500", "153428.500000", "153429.287500", "153430.075000", "153430.865000", "153431.652500", "153432.440000", "153433.227500", "153434.017500", "153434.805000", "153435.592500", "153436.382500", "153437.170000", "153437.957500", "153438.745000", "153439.535000", "153440.322500", "153441.110000", "153441.897500", "153442.687500", "153443.475000", "153444.262500", "153445.050000", "153445.840000", "153446.627500", "153447.415000", "153448.202500", "153448.992500", "153449.780000", "153450.567500", "153451.355000", "153452.145000", "153452.932500", "153453.720000", "153454.510000", "153455.297500", "153456.085000", "153456.872500", "153457.662500", "153458.450000", "153459.237500", "153500.025000", "153500.815000", "153501.602500", "153502.390000", "153503.177500", "153503.967500", "153504.755000", "153505.542500", "153506.330000", "153507.120000", "153507.907500", "153508.695000", "153509.482500", "153510.272500", "153511.060000", "153511.847500", "153512.637500", "153513.425000", "153514.212500", "153515.000000", "153515.790000", "153516.577500", "153517.365000", "153518.152500", "153518.942500", "153519.730000", "153520.517500", "153521.305000", "153522.095000", "153522.882500", "153523.670000", "153524.457500", "153525.247500", "153526.035000", "153526.822500", "153527.612500", "153528.400000", "153529.187500", "153529.975000", "153530.765000", "153531.552500", "153532.340000", "153533.127500", "153533.917500", "153534.705000", "153535.492500", "153536.280000", "153537.070000", "153537.857500", "153538.645000", "153539.432500", "153540.222500", "153541.010000", "153541.797500", "153542.585000", "153543.375000", "153544.162500", "153544.950000", "153545.740000", "153546.527500", "153547.315000", "153548.102500", "153548.892500", "153549.680000", "153550.467500", "153551.255000", "153552.045000", "153552.832500", "153553.620000", "153554.407500", "153555.197500", "153555.985000", "153556.772500", "153557.560000", "153558.350000", "153559.137500", "153559.925000", "153600.712500", "153601.502500", "153602.290000", "153603.077500", "153603.867500", "153604.655000", "153605.442500", "153606.230000", "153607.020000", "153607.807500", "153608.595000", "153609.382500", "153610.172500", "153610.960000", "153611.747500", "153612.535000", "153613.325000", "153614.112500", "153614.900000", "153615.687500", "153616.477500", "153617.265000", "153618.052500", "153618.840000", "153619.630000", "153620.417500", "153621.205000", "153621.995000", "153622.782500", "153623.570000", "153624.357500", "153625.147500", "153625.935000", "153626.722500", "153627.510000", "153628.300000", "153629.087500", "153629.875000", "153630.662500", "153631.452500", "153632.240000", "153633.027500", "153633.815000", "153634.605000", "153635.392500", "153636.180000", "153636.967500", "153637.757500", "153638.545000", "153639.332500", "153640.122500", "153640.910000", "153641.697500", "153642.485000", "153643.275000", "153644.062500", "153644.850000", "153645.637500", "153646.427500", "153647.215000", "153648.002500", "153648.790000", "153649.580000", "153650.367500", "153651.155000", "153651.942500", "153652.732500", "153653.520000", "153654.307500", "153655.095000", "153655.885000", "153656.672500", "153657.460000", "153658.250000", "153659.037500", "153659.825000", "153700.612500", "153701.402500", "153702.190000", "153702.977500", "153703.765000", "153704.555000", "153705.342500", "153706.130000", "153706.917500", "153707.707500", "153708.495000", "153709.282500", "153710.070000", "153710.860000", "153711.647500", "153712.435000", "153713.222500", "153714.012500", "153714.800000", "153715.587500", "153716.377500", "153717.165000", "153717.952500", "153718.740000", "153719.530000", "153720.317500", "153721.105000", "153721.892500", "153722.682500", "153723.470000", "153724.257500", "153725.045000", "153725.835000", "153726.622500", "153727.410000", "153728.197500", "153728.987500", "153729.775000", "153730.562500", "153731.350000", "153732.140000", "153732.927500", "153733.715000", "153734.505000", "153735.292500", "153736.080000", "153736.867500", "153737.657500", "153738.445000", "153739.232500", "153740.020000", "153740.810000", "153741.597500", "153742.385000", "153743.172500", "153743.962500", "153744.750000", "153745.537500", "153746.325000", "153747.115000", "153747.902500", "153748.690000", "153749.477500", "153750.267500", "153751.055000", "153751.842500", "153752.632500", "153753.420000", "153754.207500", "153754.995000", "153755.785000", "153756.572500", "153757.360000", "153758.147500", "153758.937500", "153759.725000", "153800.512500", "153801.300000", "153802.090000", "153802.877500", "153803.665000", "153804.452500", "153805.242500", "153806.030000", "153806.817500", "153807.605000", "153808.395000", "153809.182500", "153809.970000", "153810.760000", "153811.547500", "153812.335000", "153813.122500", "153813.912500", "153814.700000", "153815.487500", "153816.275000", "153817.065000", "153817.852500"],
      "ContentTime": ["153101.203000", "153101.218000", "153101.218000", "153101.218000", "153101.218000", "153101.218000", "153101.218000", "153101.218000", "153101.234000", "153101.234000", "153101.234000", "153101.234000", "153101.234000", "153101.234000", "153101.250000", "153101.250000", "153101.250000", "153101.250000", "153101.250000", "153101.250000", "153101.250000", "153101.265000", "153121.187000", "153121.187000", "153121.187000", "153121.187000", "153121.203000", "153121.203000", "153121.203000", "153121.203000", "153121.203000", "153121.203000", "153121.203000", "153121.218000", "153121.218000", "153121.218000", "153121.218000", "153121.234000", "153121.234000", "153121.234000", "153121.234000", "153121.234000", "153121.234000", "153121.234000", "153121.234000", "153121.250000", "153121.250000", "153121.250000", "153141.187000", "153141.187000", "153141.187000", "153141.187000", "153141.203000", "153141.203000", "153141.218000", "153141.218000", "153141.218000", "153141.218000", "153141.218000", "153141.234000", "153141.234000", "153141.234000", "153141.234000", "153141.234000", "153141.250000", "153141.250000", "153141.250000", "153141.250000", "153141.250000", "153141.250000", "153141.250000", "153141.265000", "153141.265000", "153201.187000", "153201.187000", "153201.187000", "153201.187000", "153201.203000", "153201.203000", "153201.203000", "153201.203000", "153201.203000", "153201.203000", "153201.203000", "153201.218000", "153201.218000", "153201.218000", "153201.218000", "153201.218000", "153201.218000", "153201.218000", "153201.234000", "153201.234000", "153201.234000", "153201.234000", "153201.250000", "153201.250000", "153201.250000", "153201.250000", "153221.187000", "153221.187000", "153221.187000", "153221.187000", "153221.203000", "153221.203000", "153221.203000", "153221.203000", "153221.203000", "153221.203000", "153221.203000", "153221.218000", "153221.218000", "153221.218000", "153221.218000", "153221.218000", "153221.218000", "153221.218000", "153221.234000", "153221.234000", "153221.234000", "153221.234000", "153221.234000", "153221.234000", "153221.250000", "153241.187000", "153241.187000", "153241.187000", "153241.187000", "153241.203000", "153241.203000", "153241.203000", "153241.203000", "153241.203000", "153241.203000", "153241.203000", "153241.218000", "153241.218000", "153241.218000", "153241.218000", "153241.218000", "153241.218000", "153241.218000", "153241.234000", "153241.234000", "153241.234000", "153241.250000", "153241.250000", "153241.250000", "153241.250000", "153241.250000", "153301.187000", "153301.187000", "153301.187000", "153301.187000", "153301.203000", "153301.203000", "153301.203000", "153301.203000", "153301.203000", "153301.203000", "153301.203000", "153301.218000", "153301.218000", "153301.218000", "153301.218000", "153301.218000", "153301.218000", "153301.234000", "153301.234000", "153301.234000", "153301.234000", "153301.234000", "153301.234000", "153301.234000", "153301.250000", "153321.187000", "153321.187000", "153321.187000", "153321.187000", "153321.203000", "153321.203000", "153321.203000", "153321.203000", "153321.203000", "153321.203000", "153321.203000", "153321.218000", "153321.218000", "153321.218000", "153321.218000", "153321.218000", "153321.218000", "153321.234000", "153321.234000", "153321.234000", "153321.234000", "153321.234000", "153321.234000", "153321.234000", "153321.250000", "153321.250000", "153341.187000", "153341.187000", "153341.187000", "153341.187000", "153341.203000", "153341.203000", "153341.203000", "153341.203000", "153341.203000", "153341.203000", "153341.203000", "153341.218000", "153341.218000", "153341.218000", "153341.218000", "153341.218000", "153341.218000", "153341.218000", "153341.234000", "153341.234000", "153341.234000", "153341.234000", "153341.234000", "153341.234000", "153341.234000", "153401.187000", "153401.187000", "153401.187000", "153401.187000", "153401.203000", "153401.203000", "153401.203000", "153401.203000", "153401.203000", "153401.203000", "153401.203000", "153401.218000", "153401.218000", "153401.218000", "153401.218000", "153401.218000", "153401.218000", "153401.218000", "153401.234000", "153401.234000", "153401.234000", "153401.234000", "153401.234000", "153401.250000", "153401.250000", "153421.187000", "153421.187000", "153421.187000", "153421.187000", "153421.203000", "153421.203000", "153421.203000", "153421.203000", "153421.203000", "153421.203000", "153421.203000", "153421.218000", "153421.218000", "153421.218000", "153421.218000", "153421.218000", "153421.218000", "153421.218000", "153421.234000", "153421.234000", "153421.234000", "153421.234000", "153421.234000", "153421.234000", "153421.234000", "153421.250000", "153441.187000", "153441.187000", "153441.187000", "153441.187000", "153441.203000", "153441.203000", "153441.203000", "153441.203000", "153441.203000", "153441.203000", "153441.203000", "153441.218000", "153441.218000", "153441.218000", "153441.218000", "153441.218000", "153441.218000", "153441.234000", "153441.234000", "153441.234000", "153441.234000", "153441.234000", "153441.234000", "153441.250000", "153441.250000", "153501.187000", "153501.187000", "153501.187000", "153501.187000", "153501.203000", "153501.203000", "153501.203000", "153501.203000", "153501.203000", "153501.218000", "153501.218000", "153501.218000", "153501.218000", "153501.218000", "153501.218000", "153501.218000", "153501.234000", "153501.234000", "153501.234000", "153501.234000", "153501.234000", "153501.234000", "153501.234000", "153501.250000", "153501.250000", "153501.250000", "153521.187000", "153521.187000", "153521.187000", "153521.187000", "153521.203000", "153521.203000", "153521.203000", "153521.203000", "153521.203000", "153521.203000", "153521.203000", "153521.218000", "153521.218000", "153521.218000", "153521.218000", "153521.218000", "153521.218000", "153521.218000", "153521.234000", "153521.234000", "153521.234000", "153521.234000", "153521.250000", "153521.250000", "153521.250000", "153541.187000", "153541.187000", "153541.187000", "153541.187000", "153541.203000", "153541.203000", "153541.203000", "153541.203000", "153541.203000", "153541.203000", "153541.203000", "153541.218000", "153541.218000", "153541.218000", "153541.218000", "153541.218000", "153541.218000", "153541.218000", "153541.234000", "153541.234000", "153541.234000", "153541.234000", "153541.234000", "153541.250000", "153541.250000", "153541.250000", "153601.187000", "153601.187000", "153601.187000", "153601.187000", "153601.203000", "153601.203000", "153601.203000", "153601.203000", "153601.203000", "153601.203000", "153601.203000", "153601.218000", "153601.218000", "153601.218000", "153601.218000", "153601.218000", "153601.218000", "153601.218000", "153601.234000", "153601.234000", "153601.234000", "153601.234000", "153601.234000", "153601.234000", "153601.234000", "153621.187000", "153621.187000", "153621.187000", "153621.187000", "153621.203000", "153621.203000", "153621.203000", "153621.203000", "153621.203000", "153621.203000", "153621.203000", "153621.218000", "153621.218000", "153621.218000", "153621.218000", "153621.218000", "153621.218000", "153621.218000", "153621.234000", "153621.234000", "153621.234000", "153621.234000", "153621.234000", "153621.234000", "153621.234000", "153621.250000", "153641.187000", "153641.187000", "153641.187000", "153641.187000", "153641.203000", "153641.203000", "153641.203000", "153641.203000", "153641.203000", "153641.203000", "153641.203000", "153641.218000", "153641.218000", "153641.218000", "153641.218000", "153641.218000", "153641.218000", "153641.218000", "153641.234000", "153641.234000", "153641.234000", "153641.234000", "153641.234000", "153641.234000", "153641.234000", "153701.187000", "153701.187000", "153701.187000", "153701.187000", "153701.203000", "153701.203000", "153701.203000", "153701.203000", "153701.203000", "153701.203000", "153701.203000", "153701.218000", "153701.218000", "153701.218000", "153701.218000", "153701.218000", "153701.218000", "153701.218000", "153701.234000", "153701.234000", "153701.234000", "153701.234000", "153701.234000", "153701.234000", "153701.234000", "153701.250000", "153721.187000", "153721.187000", "153721.187000", "153721.187000", "153721.203000", "153721.203000", "153721.203000", "153721.203000", "153721.203000", "153721.203000", "153721.203000", "153721.218000", "153721.218000", "153721.218000", "153721.218000", "153721.218000", "153721.218000", "153721.218000", "153721.234000", "153721.234000", "153721.234000", "153721.234000", "153721.234000", "153721.234000", "153721.234000", "153741.187000", "153741.187000", "153741.187000", "153741.203000", "153741.203000", "153741.203000", "153741.203000", "153741.203000", "153741.203000", "153741.218000", "153741.218000", "153741.218000", "153741.218000", "153741.218000", "153741.218000", "153741.218000", "153741.234000", "153741.234000", "153741.234000", "153741.234000", "153741.234000", "153741.234000", "153741.234000", "153741.250000", "153741.250000", "153741.250000", "153801.187000", "153801.187000", "153801.187000", "153801.187000", "153801.203000", "153801.203000", "153801.203000", "153801.203000", "153801.203000", "153801.203000", "153801.203000", "153801.218000", "153801.218000", "153801.218000", "153801.218000", "153801.218000", "153801.218000", "153801.234000", "153801.234000", "153801.234000", "153801.234000", "153801.234000", "153801.234000", "153801.234000", "153801.250000", "153819.578000", "153819.578000", "153819.578000", "153819.593000", "153819.593000", "153819.593000", "153819.593000", "153819.593000", "153819.609000", "153819.609000", "153819.609000", "153819.609000", "153819.609000", "153819.609000", "153819.609000", "153819.625000", "153819.625000", "153819.625000", "153819.625000", "153819.625000", "153819.625000", "153819.640000", "153819.640000", "153819.640000"],
      "DataSetTrailingPadding": [
