{
  "AcquisitionMatrixPE": 104,
  "AcquisitionNumber": 1,
  "AcquisitionTime": "14:59:8.332500",
  "BandwidthPerPixelPhaseEncode": 13.935,
  "BaseResolution": 104,
  "CoilString": "C:HEA;HEP",
  "ConversionSoftware": "dcm2niix",
  "ConversionSoftwareVersion": "v1.0.20210317",
  "DerivedVendorReportedEchoSpacing": 0.000690017,
  "DeviceSerialNumber": "35450",
  "DwellTime": 2.5e-06,
  "EchoTime": 0.0348,
  "EffectiveEchoSpacing": 0.000690017,
  "FlipAngle": 55,
  "ImageComments": "Unaliased MB8/PE3 (remote)",
  "ImageOrientationPatientDICOM": [1, 6.87957e-06, 6.86899e-05, -2.39643e-08, 0.995057, -0.0993101],
  "ImageType": [
    "ORIGINAL",
    "PRIMARY",
    "M",
    "MB",
    "ND",
    "MOSAIC"
],
  "ImagingFrequency": 123.234,
  "InPlanePhaseEncodingDirectionDICOM": "COL",
  "InstitutionAddress": "Univeristy Ave. 197,Newark,North East,US,07102-1814",
  "InstitutionName": "RUBIC",
  "InstitutionalDepartmentName": "Department",
  "MRAcquisitionType": "2D",
  "MagneticFieldStrength": 3,
  "Manufacturer": "Siemens",
  "ManufacturersModelName": "TrioTim",
  "Modality": "MR",
  "MultibandAccelerationFactor": 8,
  "PartialFourier": 0.875,
  "PatientPosition": "HFS",
  "PercentPhaseFOV": 100,
  "PercentSampling": 100,
  "PhaseEncodingDirection": "j-",
  "PhaseEncodingSteps": 91,
  "PhaseResolution": 1,
  "PixelBandwidth": 1923,
  "ProcedureStepDescription": "Cole^Michael",
  "ProtocolName": "cmrr_mbep2d_bold_2mm_MB8_Rest",
  "PulseSequenceDetails": "%CustomerSeq%\\cmrr_mbep2d_bold",
  "ReceiveCoilName": "32Ch_Head",
  "ReconMatrixPE": 104,
  "RepetitionTime": 0.785,
  "SAR": 0.121653,
  "ScanOptions": "PFP\\FS",
  "ScanningSequence": "EP",
  "SequenceName": "epfid2d1_104",
  "SequenceVariant": "SK\\SS",
  "SeriesDescription": "cmrr_mbep2d_bold_2mm_MB8_Rest",
  "SeriesNumber": 9,
  "ShimSetting": [2093, -461, -7266, 490, -125, -298, 239, 100],
  "SliceThickness": 2,
  "SliceTiming": [0, 0.4375, 0.0875, 0.525, 0.175, 0.6125, 0.2625, 0.7, 0.35, 0, 0.4375, 0.0875, 0.525, 0.175, 0.6125, 0.2625, 0.7, 0.35, 0, 0.4375, 0.0875, 0.525, 0.175, 0.6125, 0.2625, 0.7, 0.35, 0, 0.4375, 0.0875, 0.525, 0.175, 0.6125, 0.2625, 0.7, 0.35, 0, 0.4375, 0.0875, 0.525, 0.175, 0.6125, 0.2625, 0.7, 0.35, 0, 0.4375, 0.0875, 0.525, 0.175, 0.6125, 0.2625, 0.7, 0.35, 0, 0.4375, 0.0875, 0.525, 0.175, 0.6125, 0.2625, 0.7, 0.35, 0, 0.4375, 0.0875, 0.525, 0.175, 0.6125, 0.2625, 0.7, 0.35],
  "SoftwareVersions": "syngo MR B19",
  "SpacingBetweenSlices": 2,
  "StationName": "MRC35450",
  "TaskName": "rest",
  "TotalReadoutTime": 0.0710717,
  "TxRefAmp": 320.014,
  "dcmmeta_affine": [
    [-2.0, -4.792867258629485e-08, 0.00013806707283947617, 99.77368927001953],
    [-1.3759142348135356e-05, 1.9901130199432373, -0.19862014055252075, -84.11650085449219],
    [0.0001373797858832404, 0.19862014055252075, 1.9901131391525269, -96.22532653808594],
    [0.0, 0.0, 0.0, 1.0]
],
  "dcmmeta_reorient_transform": [
    [0.0, -1.0, 0.0, 103.0],
    [1.0, 0.0, 0.0, 0.0],
    [0.0, 0.0, 1.0, 0.0],
    [0.0, 0.0, 0.0, 1.0]
],
  "dcmmeta_shape": [104, 104, 72, 1070],
  "dcmmeta_slice_dim": 2,
  "dcmmeta_version": 0.6,
  "global": {
    "const": {
      "AcquisitionMatrix": [104, 0, 0, 104],
      "AngioFlag": "N",
      "BitsAllocated": 16,
      "BitsStored": 12,
      "Columns": 936,
      "EchoNumbers": 1,
      "EchoTime": 34.8,
      "EchoTrainLength": 1,
      "FlipAngle": 55.0,
      "HighBit": 11,
      "ImageOrientationPatient": [0.99999999761719, 6.879571237e-06, 6.868989263e-05, -2.3964336e-08, 0.99505653616179, -0.0993100691858],
      "ImagePositionPatient": [-931.77366222491, -948.75790479457, 6.8013766361175],
      "ImageType": [
        "ORIGINAL",
        "PRIMARY",
        "M",
        "MB",
        "ND",
        "MOSAIC"
],
      "ImagedNucleus": "1H",
      "ImagingFrequency": 123.23438,
      "InPlanePhaseEncodingDirection": "COL",
      "MRAcquisitionType": "2D",
      "MagneticFieldStrength": 3.0,
      "Manufacturer": "SIEMENS",
      "ManufacturerModelName": "TrioTim",
      "Modality": "MR",
      "NumberOfAverages": 1.0,
      "NumberOfPhaseEncodingSteps": 91,
      "PercentPhaseFieldOfView": 100.0,
      "PercentSampling": 100.0,
      "PerformedProcedureStepStartTime": "140659.812000",
      "PhotometricInterpretation": "MONOCHROME2",
      "PixelBandwidth": 1923.0,
      "PixelRepresentation": 0,
      "PixelSpacing": [2.0, 2.0],
      "ProtocolName": "cmrr_mbep2d_bold_2mm_MB8_Rest",
      "RepetitionTime": 785.0,
      "Rows": 936,
      "SAR": 0.12165275536026,
      "SamplesPerPixel": 1,
      "ScanOptions": [
        "PFP",
        "FS"
],
      "ScanningSequence": "EP",
      "SequenceName": "epfid2d1_104",
      "SequenceVariant": [
        "SK",
        "SS"
],
      "SeriesDescription": "cmrr_mbep2d_bold_2mm_MB8_Rest",
      "SeriesNumber": 9,
      "SeriesTime": "145941.218000",
      "SliceLocation": -87.389135047254,
      "SliceThickness": 2.0,
      "SmallestImagePixelValue": 0,
      "SoftwareVersions": "syngo MR B19",
      "SpacingBetweenSlices": 2.0000000424943,
      "SpecificCharacterSet": "ISO_IR 100",
      "StudyID": "1",
      "StudyTime": "140659.781000",
      "TransmitCoilName": "Body",
      "VariableFlipAngleFlag": "N",
      "WindowCenterWidthExplanation": "Algo1",
      "dBdt": 0.0},
    "slices": {}
  },
  "time": {
    "samples": {
      "AcquisitionNumber": [1, 2, 3, 4, 5, 6, 7, 8, 9, 10, 11, 12, 13, 14, 15, 16, 17, 18, 19, 20, 21, 22, 23, 24, 25, 26, 27, 28, 29, 30, 31, 32, 33, 34, 35, 36, 37, 38, 39, 40, 41, 42, 43, 44, 45, 46, 47, 48, 49, 50, 51, 52, 53, 54, 55, 56, 57, 58, 59, 60, 61, 62, 63, 64, 65, 66, 67, 68, 69, 70, 71, 72, 73, 74, 75, 76, 77, 78, 79, 80, 81, 82, 83, 84, 85, 86, 87, 88, 89, 90, 91, 92, 93, 94, 95, 96, 97, 98, 99, 100, 101, 102, 103, 104, 105, 106, 107, 108, 109, 110, 111, 112, 113, 114, 115, 116, 117, 118, 119, 120, 121, 122, 123, 124, 125, 126, 127, 128, 129, 130, 131, 132, 133, 134, 135, 136, 137, 138, 139, 140, 141, 142, 143, 144, 145, 146, 147, 148, 149, 150, 151, 152, 153, 154, 155, 156, 157, 158, 159, 160, 161, 162, 163, 164, 165, 166, 167, 168, 169, 170, 171, 172, 173, 174, 175, 176, 177, 178, 179, 180, 181, 182, 183, 184, 185, 186, 187, 188, 189, 190, 191, 192, 193, 194, 195, 196, 197, 198, 199, 200, 201, 202, 203, 204, 205, 206, 207, 208, 209, 210, 211, 212, 213, 214, 215, 216, 217, 218, 219, 220, 221, 222, 223, 224, 225, 226, 227, 228, 229, 230, 231, 232, 233, 234, 235, 236, 237, 238, 239, 240, 241, 242, 243, 244, 245, 246, 247, 248, 249, 250, 251, 252, 253, 254, 255, 256, 257, 258, 259, 260, 261, 262, 263, 264, 265, 266, 267, 268, 269, 270, 271, 272, 273, 274, 275, 276, 277, 278, 279, 280, 281, 282, 283, 284, 285, 286, 287, 288, 289, 290, 291, 292, 293, 294, 295, 296, 297, 298, 299, 300, 301, 302, 303, 304, 305, 306, 307, 308, 309, 310, 311, 312, 313, 314, 315, 316, 317, 318, 319, 320, 321, 322, 323, 324, 325, 326, 327, 328, 329, 330, 331, 332, 333, 334, 335, 336, 337, 338, 339, 340, 341, 342, 343, 344, 345, 346, 347, 348, 349, 350, 351, 352, 353, 354, 355, 356, 357, 358, 359, 360, 361, 362, 363, 364, 365, 366, 367, 368, 369, 370, 371, 372, 373, 374, 375, 376, 377, 378, 379, 380, 381, 382, 383, 384, 385, 386, 387, 388, 389, 390, 391, 392, 393, 394, 395, 396, 397, 398, 399, 400, 401, 402, 403, 404, 405, 406, 407, 408, 409, 410, 411, 412, 413, 414, 415, 416, 417, 418, 419, 420, 421, 422, 423, 424, 425, 426, 427, 428, 429, 430, 431, 432, 433, 434, 435, 436, 437, 438, 439, 440, 441, 442, 443, 444, 445, 446, 447, 448, 449, 450, 451, 452, 453, 454, 455, 456, 457, 458, 459, 460, 461, 462, 463, 464, 465, 466, 467, 468, 469, 470, 471, 472, 473, 474, 475, 476, 477, 478, 479, 480, 481, 482, 483, 484, 485, 486, 487, 488, 489, 490, 491, 492, 493, 494, 495, 496, 497, 498, 499, 500, 501, 502, 503, 504, 505, 506, 507, 508, 509, 510, 511, 512, 513, 514, 515, 516, 517, 518, 519, 520, 521, 522, 523, 524, 525, 526, 527, 528, 529, 530, 531, 532, 533, 534, 535, 536, 537, 538, 539, 540, 541, 542, 543, 544, 545, 546, 547, 548, 549, 550, 551, 552, 553, 554, 555, 556, 557, 558, 559, 560, 561, 562, 563, 564, 565, 566, 567, 568, 569, 570, 571, 572, 573, 574, 575, 576, 577, 578, 579, 580, 581, 582, 583, 584, 585, 586, 587, 588, 589, 590, 591, 592, 593, 594, 595, 596, 597, 598, 599, 600, 601, 602, 603, 604, 605, 606, 607, 608, 609, 610, 611, 612, 613, 614, 615, 616, 617, 618, 619, 620, 621, 622, 623, 624, 625, 626, 627, 628, 629, 630, 631, 632, 633, 634, 635, 636, 637, 638, 639, 640, 641, 642, 643, 644, 645, 646, 647, 648, 649, 650, 651, 652, 653, 654, 655, 656, 657, 658, 659, 660, 661, 662, 663, 664, 665, 666, 667, 668, 669, 670, 671, 672, 673, 674, 675, 676, 677, 678, 679, 680, 681, 682, 683, 684, 685, 686, 687, 688, 689, 690, 691, 692, 693, 694, 695, 696, 697, 698, 699, 700, 701, 702, 703, 704, 705, 706, 707, 708, 709, 710, 711, 712, 713, 714, 715, 716, 717, 718, 719, 720, 721, 722, 723, 724, 725, 726, 727, 728, 729, 730, 731, 732, 733, 734, 735, 736, 737, 738, 739, 740, 741, 742, 743, 744, 745, 746, 747, 748, 749, 750, 751, 752, 753, 754, 755, 756, 757, 758, 759, 760, 761, 762, 763, 764, 765, 766, 767, 768, 769, 770, 771, 772, 773, 774, 775, 776, 777, 778, 779, 780, 781, 782, 783, 784, 785, 786, 787, 788, 789, 790, 791, 792, 793, 794, 795, 796, 797, 798, 799, 800, 801, 802, 803, 804, 805, 806, 807, 808, 809, 810, 811, 812, 813, 814, 815, 816, 817, 818, 819, 820, 821, 822, 823, 824, 825, 826, 827, 828, 829, 830, 831, 832, 833, 834, 835, 836, 837, 838, 839, 840, 841, 842, 843, 844, 845, 846, 847, 848, 849, 850, 851, 852, 853, 854, 855, 856, 857, 858, 859, 860, 861, 862, 863, 864, 865, 866, 867, 868, 869, 870, 871, 872, 873, 874, 875, 876, 877, 878, 879, 880, 881, 882, 883, 884, 885, 886, 887, 888, 889, 890, 891, 892, 893, 894, 895, 896, 897, 898, 899, 900, 901, 902, 903, 904, 905, 906, 907, 908, 909, 910, 911, 912, 913, 914, 915, 916, 917, 918, 919, 920, 921, 922, 923, 924, 925, 926, 927, 928, 929, 930, 931, 932, 933, 934, 935, 936, 937, 938, 939, 940, 941, 942, 943, 944, 945, 946, 947, 948, 949, 950, 951, 952, 953, 954, 955, 956, 957, 958, 959, 960, 961, 962, 963, 964, 965, 966, 967, 968, 969, 970, 971, 972, 973, 974, 975, 976, 977, 978, 979, 980, 981, 982, 983, 984, 985, 986, 987, 988, 989, 990, 991, 992, 993, 994, 995, 996, 997, 998, 999, 1000, 1001, 1002, 1003, 1004, 1005, 1006, 1007, 1008, 1009, 1010, 1011, 1012, 1013, 1014, 1015, 1016, 1017, 1018, 1019, 1020, 1021, 1022, 1023, 1024, 1025, 1026, 1027, 1028, 1029, 1030, 1031, 1032, 1033, 1034, 1035, 1036, 1037, 1038, 1039, 1040, 1041, 1042, 1043, 1044, 1045, 1046, 1047, 1048, 1049, 1050, 1051, 1052, 1053, 1054, 1055, 1056, 1057, 1058, 1059, 1060, 1061, 1062, 1063, 1064, 1065, 1066, 1067, 1068, 1069, 1070],
      "AcquisitionTime": ["145908.332500", "145909.122500", "145909.910000", "145910.697500", "145911.485000", "145912.275000", "145913.062500", "145913.850000", "145914.637500", "145915.427500", "145916.215000", "145917.002500", "145917.790000", "145918.580000", "145919.367500", "145920.155000", "145920.942500", "145921.732500", "145922.520000", "145923.307500", "145924.097500", "145924.885000", "145925.672500", "145926.460000", "145927.250000", "145928.037500", "145928.825000", "145929.612500", "145930.402500", "145931.190000", "145931.977500", "145932.765000", "145933.555000", "145934.342500", "145935.130000", "145935.917500", "145936.707500", "145937.495000", "145938.282500", "145939.070000", "145939.860000", "145940.647500", "145941.435000", "145942.225000", "145943.012500", "145943.800000", "145944.587500", "145945.377500", "145946.165000", "145946.952500", "145947.740000", "145948.530000", "145949.317500", "145950.105000", "145950.892500", "145951.682500", "145952.470000", "145953.257500", "145954.045000", "145954.835000", "145955.622500", "145956.410000", "145957.197500", "145957.987500", "145958.775000", "145959.562500", "150000.352500", "150001.140000", "150001.927500", "150002.715000", "150003.505000", "150004.292500", "150005.080000", "150005.867500", "150006.657500", "150007.445000", "150008.232500", "150009.020000", "150009.810000", "150010.597500", "150011.385000", "150012.172500", "150012.962500", "150013.750000", "150014.537500", "150015.325000", "150016.115000", "150016.902500", "150017.690000", "150018.480000", "150019.267500", "150020.055000", "150020.842500", "150021.632500", "150022.420000", "150023.207500", "150023.995000", "150024.785000", "150025.572500", "150026.360000", "150027.147500", "150027.937500", "150028.725000", "150029.512500", "150030.300000", "150031.090000", "150031.877500", "150032.665000", "150033.452500", "150034.242500", "150035.030000", "150035.817500", "150036.607500", "150037.395000", "150038.182500", "150038.970000", "150039.760000", "150040.547500", "150041.335000", "150042.122500", "150042.912500", "150043.700000", "150044.487500", "150045.275000", "150046.065000", "150046.852500", "150047.640000", "150048.427500", "150049.217500", "150050.005000", "150050.792500", "150051.582500", "150052.370000", "150053.157500", "150053.945000", "150054.735000", "150055.522500", "150056.310000", "150057.097500", "150057.887500", "150058.675000", "150059.462500", "150100.250000", "150101.040000", "150101.827500", "150102.615000", "150103.402500", "150104.192500", "150104.980000", "150105.767500", "150106.555000", "150107.345000", "150108.132500", "150108.920000", "150109.710000", "150110.497500", "150111.285000", "150112.072500", "150112.862500", "150113.650000", "150114.437500", "150115.225000", "150116.015000", "150116.802500", "150117.590000", "150118.377500", "150119.167500", "150119.955000", "150120.742500", "150121.530000", "150122.320000", "150123.107500", "150123.895000", "150124.682500", "150125.472500", "150126.260000", "150127.047500", "150127.837500", "150128.625000", "150129.412500", "150130.200000", "150130.990000", "150131.777500", "150132.565000", "150133.352500", "150134.142500", "150134.930000", "150135.717500", "150136.505000", "150137.295000", "150138.082500", "150138.870000", "150139.657500", "150140.447500", "150141.235000", "150142.022500", "150142.810000", "150143.600000", "150144.387500", "150145.175000", "150145.965000", "150146.752500", "150147.540000", "150148.327500", "150149.117500", "150149.905000", "150150.692500", "150151.480000", "150152.270000", "150153.057500", "150153.845000", "150154.632500", "150155.422500", "150156.210000", "150156.997500", "150157.785000", "150158.575000", "150159.362500", "150200.150000", "150200.937500", "150201.727500", "150202.515000", "150203.302500", "150204.092500", "150204.880000", "150205.667500", "150206.455000", "150207.245000", "150208.032500", "150208.820000", "150209.607500", "150210.397500", "150211.185000", "150211.972500", "150212.760000", "150213.550000", "150214.337500", "150215.125000", "150215.912500", "150216.702500", "150217.490000", "150218.277500", "150219.065000", "150219.855000", "150220.642500", "150221.430000", "150222.220000", "150223.007500", "150223.795000", "150224.582500", "150225.372500", "150226.160000", "150226.947500", "150227.735000", "150228.525000", "150229.312500", "150230.100000", "150230.887500", "150231.677500", "150232.465000", "150233.252500", "150234.040000", "150234.830000", "150235.617500", "150236.405000", "150237.192500", "150237.982500", "150238.770000", "150239.557500", "150240.347500", "150241.135000", "150241.922500", "150242.710000", "150243.500000", "150244.287500", "150245.075000", "150245.862500", "150246.652500", "150247.440000", "150248.227500", "150249.015000", "150249.805000", "150250.592500", "150251.380000", "150252.167500", "150252.957500", "150253.745000", "150254.532500", "150255.320000", "150256.110000", "150256.897500", "150257.685000", "150258.475000", "150259.262500", "150300.050000", "150300.837500", "150301.627500", "150302.415000", "150303.202500", "150303.990000", "150304.780000", "150305.567500", "150306.355000", "150307.142500", "150307.932500", "150308.720000", "150309.507500", "150310.295000", "150311.085000", "150311.872500", "150312.660000", "150313.447500", "150314.237500", "150315.025000", "150315.812500", "150316.602500", "150317.390000", "150318.177500", "150318.965000", "150319.755000", "150320.542500", "150321.330000", "150322.117500", "150322.907500", "150323.695000", "150324.482500", "150325.270000", "150326.060000", "150326.847500", "150327.635000", "150328.422500", "150329.212500", "150330.000000", "150330.787500", "150331.575000", "150332.365000", "150333.152500", "150333.940000", "150334.730000", "150335.517500", "150336.305000", "150337.092500", "150337.882500", "150338.670000", "150339.457500", "150340.245000", "150341.035000", "150341.822500", "150342.610000", "150343.397500", "150344.187500", "150344.975000", "150345.762500", "150346.550000", "150347.340000", "150348.127500", "150348.915000", "150349.702500", "150350.492500", "150351.280000", "150352.067500", "150352.857500", "150353.645000", "150354.432500", "150355.220000", "150356.010000", "150356.797500", "150357.585000", "150358.372500", "150359.162500", "150359.950000", "150400.737500", "150401.525000", "150402.315000", "150403.102500", "150403.890000", "150404.677500", "150405.467500", "150406.255000", "150407.042500", "150407.832500", "150408.620000", "150409.407500", "150410.195000", "150410.985000", "150411.772500", "150412.560000", "150413.347500", "150414.137500", "150414.925000", "150415.712500", "150416.500000", "150417.290000", "150418.077500", "150418.865000", "150419.652500", "150420.442500", "150421.230000", "150422.017500", "150422.805000", "150423.595000", "150424.382500", "150425.170000", "150425.960000", "150426.747500", "150427.535000", "150428.322500", "150429.112500", "150429.900000", "150430.687500", "150431.475000", "150432.265000", "150433.052500", "150433.840000", "150434.627500", "150435.417500", "150436.205000", "150436.992500", "150437.780000", "150438.570000", "150439.357500", "150440.145000", "150440.932500", "150441.722500", "150442.510000", "150443.297500", "150444.087500", "150444.875000", "150445.662500", "150446.450000", "150447.240000", "150448.027500", "150448.815000", "150449.602500", "150450.392500", "150451.180000", "150451.967500", "150452.755000", "150453.545000", "150454.332500", "150455.120000", "150455.907500", "150456.697500", "150457.485000", "150458.272500", "150459.060000", "150459.850000", "150500.637500", "150501.425000", "150502.215000", "150503.002500", "150503.790000", "150504.577500", "150505.367500", "150506.155000", "150506.942500", "150507.730000", "150508.520000", "150509.307500", "150510.095000", "150510.882500", "150511.672500", "150512.460000", "150513.247500", "150514.035000", "150514.825000", "150515.612500", "150516.400000", "150517.187500", "150517.977500", "150518.765000", "150519.552500", "150520.342500", "150521.130000", "150521.917500", "150522.705000", "150523.495000", "150524.282500", "150525.070000", "150525.857500", "150526.647500", "150527.435000", "150528.222500", "150529.010000", "150529.800000", "150530.587500", "150531.375000", "150532.162500", "150532.952500", "150533.740000", "150534.527500", "150535.315000", "150536.105000", "150536.892500", "150537.680000", "150538.470000", "150539.257500", "150540.045000", "150540.832500", "150541.622500", "150542.410000", "150543.197500", "150543.985000", "150544.775000", "150545.562500", "150546.350000", "150547.137500", "150547.927500", "150548.715000", "150549.502500", "150550.290000", "150551.080000", "150551.867500", "150552.655000", "150553.442500", "150554.232500", "150555.020000", "150555.807500", "150556.597500", "150557.385000", "150558.172500", "150558.960000", "150559.750000", "150600.537500", "150601.325000", "150602.112500", "150602.902500", "150603.690000", "150604.477500", "150605.265000", "150606.055000", "150606.842500", "150607.630000", "150608.417500", "150609.207500", "150609.995000", "150610.782500", "150611.570000", "150612.360000", "150613.147500", "150613.935000", "150614.725000", "150615.512500", "150616.300000", "150617.087500", "150617.877500", "150618.665000", "150619.452500", "150620.240000", "150621.030000", "150621.817500", "150622.605000", "150623.392500", "150624.182500", "150624.970000", "150625.757500", "150626.545000", "150627.335000", "150628.122500", "150628.910000", "150629.697500", "150630.487500", "150631.275000", "150632.062500", "150632.852500", "150633.640000", "150634.427500", "150635.215000", "150636.005000", "150636.792500", "150637.580000", "150638.367500", "150639.157500", "150639.945000", "150640.732500", "150641.520000", "150642.310000", "150643.097500", "150643.885000", "150644.672500", "150645.462500", "150646.250000", "150647.037500", "150647.825000", "150648.615000", "150649.402500", "150650.190000", "150650.980000", "150651.767500", "150652.555000", "150653.342500", "150654.132500", "150654.920000", "150655.707500", "150656.495000", "150657.285000", "150658.072500", "150658.860000", "150659.647500", "150700.437500", "150701.225000", "150702.012500", "150702.800000", "150703.590000", "150704.377500", "150705.165000", "150705.952500", "150706.742500", "150707.530000", "150708.317500", "150709.107500", "150709.895000", "150710.682500", "150711.470000", "150712.260000", "150713.047500", "150713.835000", "150714.622500", "150715.412500", "150716.200000", "150716.987500", "150717.775000", "150718.565000", "150719.352500", "150720.140000", "150720.927500", "150721.717500", "150722.505000", "150723.292500", "150724.082500", "150724.870000", "150725.657500", "150726.445000", "150727.235000", "150728.022500", "150728.810000", "150729.597500", "150730.387500", "150731.175000", "150731.962500", "150732.750000", "150733.540000", "150734.327500", "150735.115000", "150735.902500", "150736.692500", "150737.480000", "150738.267500", "150739.055000", "150739.845000", "150740.632500", "150741.420000", "150742.210000", "150742.997500", "150743.785000", "150744.572500", "150745.362500", "150746.150000", "150746.937500", "150747.725000", "150748.515000", "150749.302500", "150750.090000", "150750.877500", "150751.667500", "150752.455000", "150753.242500", "150754.030000", "150754.820000", "150755.607500", "150756.395000", "150757.182500", "150757.972500", "150758.760000", "150759.547500", "150800.337500", "150801.125000", "150801.912500", "150802.700000", "150803.490000", "150804.277500", "150805.065000", "150805.852500", "150806.642500", "150807.430000", "150808.217500", "150809.005000", "150809.795000", "150810.582500", "150811.370000", "150812.157500", "150812.947500", "150813.735000", "150814.522500", "150815.310000", "150816.100000", "150816.887500", "150817.675000", "150818.465000", "150819.252500", "150820.040000", "150820.827500", "150821.617500", "150822.405000", "150823.192500", "150823.980000", "150824.770000", "150825.557500", "150826.345000", "150827.132500", "150827.922500", "150828.710000", "150829.497500", "150830.285000", "150831.075000", "150831.862500", "150832.650000", "150833.437500", "150834.227500", "150835.015000", "150835.802500", "150836.592500", "150837.380000", "150838.167500", "150838.955000", "150839.745000", "150840.532500", "150841.320000", "150842.107500", "150842.897500", "150843.685000", "150844.472500", "150845.260000", "150846.050000", "150846.837500", "150847.625000", "150848.412500", "150849.202500", "150849.990000", "150850.777500", "150851.565000", "150852.355000", "150853.142500", "150853.930000", "150854.720000", "150855.507500", "150856.295000", "150857.082500", "150857.872500", "150858.660000", "150859.447500", "150900.235000", "150901.025000", "150901.812500", "150902.600000", "150903.387500", "150904.177500", "150904.965000", "150905.752500", "150906.540000", "150907.330000", "150908.117500", "150908.905000", "150909.692500", "150910.482500", "150911.270000", "150912.057500", "150912.847500", "150913.635000", "150914.422500", "150915.210000", "150916.000000", "150916.787500", "150917.575000", "150918.362500", "150919.152500", "150919.940000", "150920.727500", "150921.515000", "150922.305000", "150923.092500", "150923.880000", "150924.667500", "150925.457500", "150926.245000", "150927.032500", "150927.820000", "150928.610000", "150929.397500", "150930.185000", "150930.975000", "150931.762500", "150932.550000", "150933.337500", "150934.127500", "150934.915000", "150935.702500", "150936.490000", "150937.280000", "150938.067500", "150938.855000", "150939.642500", "150940.432500", "150941.220000", "150942.007500", "150942.795000", "150943.585000", "150944.372500", "150945.160000", "150945.947500", "150946.737500", "150947.525000", "150948.312500", "150949.102500", "150949.890000", "150950.677500", "150951.465000", "150952.255000", "150953.042500", "150953.830000", "150954.617500", "150955.407500", "150956.195000", "150956.982500", "150957.770000", "150958.560000", "150959.347500", "151000.135000", "151000.922500", "151001.712500", "151002.500000", "151003.287500", "151004.075000", "151004.865000", "151005.652500", "151006.440000", "151007.230000", "151008.017500", "151008.805000", "151009.592500", "151010.382500", "151011.170000", "151011.957500", "151012.745000", "151013.535000", "151014.322500", "151015.110000", "151015.897500", "151016.687500", "151017.475000", "151018.262500", "151019.050000", "151019.840000", "151020.627500", "151021.415000", "151022.202500", "151022.992500", "151023.780000", "151024.567500", "151025.357500", "151026.145000", "151026.932500", "151027.720000", "151028.510000", "151029.297500", "151030.085000", "151030.872500", "151031.662500", "151032.450000", "151033.237500", "151034.025000", "151034.815000", "151035.602500", "151036.390000", "151037.177500", "151037.967500", "151038.755000", "151039.542500", "151040.332500", "151041.120000", "151041.907500", "151042.695000", "151043.485000", "151044.272500", "151045.060000", "151045.847500", "151046.637500", "151047.425000", "151048.212500", "151049.000000", "151049.790000", "151050.577500", "151051.365000", "151052.152500", "151052.942500", "151053.730000", "151054.517500", "151055.305000", "151056.095000", "151056.882500", "151057.670000", "151058.460000", "151059.247500", "151100.035000", "151100.822500", "151101.612500", "151102.400000", "151103.187500", "151103.975000", "151104.765000", "151105.552500", "151106.340000", "151107.127500", "151107.917500", "151108.705000", "151109.492500", "151110.280000", "151111.070000", "151111.857500", "151112.645000", "151113.432500", "151114.222500", "151115.010000", "151115.797500", "151116.587500", "151117.375000", "151118.162500", "151118.950000", "151119.740000", "151120.527500", "151121.315000", "151122.102500", "151122.892500", "151123.680000", "151124.467500", "151125.255000", "151126.045000", "151126.832500", "151127.620000", "151128.407500", "151129.197500", "151129.985000", "151130.772500", "151131.560000", "151132.350000", "151133.137500", "151133.925000", "151134.715000", "151135.502500", "151136.290000", "151137.077500", "151137.867500", "151138.655000", "151139.442500", "151140.230000", "151141.020000", "151141.807500", "151142.595000", "151143.382500", "151144.172500", "151144.960000", "151145.747500", "151146.535000", "151147.325000", "151148.112500", "151148.900000", "151149.687500", "151150.477500", "151151.265000", "151152.052500", "151152.842500", "151153.630000", "151154.417500", "151155.205000", "151155.995000", "151156.782500", "151157.570000", "151158.357500", "151159.147500", "151159.935000", "151200.722500", "151201.510000", "151202.300000", "151203.087500", "151203.875000", "151204.662500", "151205.452500", "151206.240000", "151207.027500", "151207.815000", "151208.605000", "151209.392500", "151210.180000", "151210.970000", "151211.757500", "151212.545000", "151213.332500", "151214.122500", "151214.910000", "151215.697500", "151216.485000", "151217.275000", "151218.062500", "151218.850000", "151219.637500", "151220.427500", "151221.215000", "151222.002500", "151222.790000", "151223.580000", "151224.367500", "151225.155000", "151225.942500", "151226.732500", "151227.520000", "151228.307500", "151229.097500", "151229.885000", "151230.672500", "151231.460000", "151232.250000", "151233.037500", "151233.825000", "151234.612500", "151235.402500", "151236.190000", "151236.977500", "151237.765000", "151238.555000", "151239.342500", "151240.130000", "151240.917500", "151241.707500", "151242.495000", "151243.282500", "151244.070000", "151244.860000", "151245.647500", "151246.435000", "151247.225000", "151248.012500", "151248.800000", "151249.587500", "151250.377500", "151251.165000", "151251.952500", "151252.740000", "151253.530000", "151254.317500", "151255.105000", "151255.892500", "151256.682500", "151257.470000", "151258.257500", "151259.045000", "151259.835000", "151300.622500", "151301.410000", "151302.197500", "151302.987500", "151303.775000", "151304.562500", "151305.352500", "151306.140000", "151306.927500", "151307.715000", "151308.505000", "151309.292500", "151310.080000", "151310.867500"],
