{
  "AcquisitionMatrixPE": 104,
  "AcquisitionNumber": 1,
  "AcquisitionTime": "16:19:0.727500",
  "BandwidthPerPixelPhaseEncode": 13.935,
  "BaseResolution": 104,
  "CoilString": "C:HEA;HEP",
  "ConversionSoftware": "dcm2niix",
  "ConversionSoftwareVersion": "v1.0.20210317",
  "DerivedVendorReportedEchoSpacing": 0.000690017,
  "DeviceSerialNumber": "35450",
  "DwellTime": 2.5e-06,
  "EchoTime": 0.0348,
  "EffectiveEchoSpacing": 0.000690017,
  "FlipAngle": 55,
  "ImageComments": "Unaliased MB8/PE3 (remote)",
  "ImageOrientationPatientDICOM": [1, 6.87957e-06, 6.86899e-05, -2.39643e-08, 0.995057, -0.0993101],
  "ImageType": [
    "ORIGINAL",
    "PRIMARY",
    "M",
    "MB",
    "ND",
    "MOSAIC"
],
  "ImagingFrequency": 123.234,
  "InPlanePhaseEncodingDirectionDICOM": "COL",
  "InstitutionAddress": "Univeristy Ave. 197,Newark,North East,US,07102-1814",
  "InstitutionName": "RUBIC",
  "InstitutionalDepartmentName": "Department",
  "MRAcquisitionType": "2D",
  "MagneticFieldStrength": 3,
  "Manufacturer": "Siemens",
  "ManufacturersModelName": "TrioTim",
  "Modality": "MR",
  "MultibandAccelerationFactor": 8,
  "PartialFourier": 0.875,
  "PatientPosition": "HFS",
  "PercentPhaseFOV": 100,
  "PercentSampling": 100,
  "PhaseEncodingDirection": "j-",
  "PhaseEncodingSteps": 91,
  "PhaseResolution": 1,
  "PixelBandwidth": 1923,
  "ProcedureStepDescription": "Cole^Michael",
  "ProtocolName": "cmrr_mbep2d_bold_2mm_MB8_Task_8x",
  "PulseSequenceDetails": "%CustomerSeq%\\cmrr_mbep2d_bold",
  "ReceiveCoilName": "32Ch_Head",
  "ReconMatrixPE": 104,
  "RepetitionTime": 0.785,
  "SAR": 0.123774,
  "ScanOptions": "PFP\\FS",
  "ScanningSequence": "EP",
  "SequenceName": "epfid2d1_104",
  "SequenceVariant": "SK\\SS",
  "SeriesDescription": "cmrr_mbep2d_bold_2mm_MB8_Task_8x",
  "SeriesNumber": 27,
  "ShimSetting": [2093, -461, -7266, 490, -125, -298, 239, 100],
  "SliceThickness": 2,
  "SliceTiming": [0, 0.4375, 0.0875, 0.525, 0.175, 0.6125, 0.2625, 0.7, 0.35, 0, 0.4375, 0.0875, 0.525, 0.175, 0.6125, 0.2625, 0.7, 0.35, 0, 0.4375, 0.0875, 0.525, 0.175, 0.6125, 0.2625, 0.7, 0.35, 0, 0.4375, 0.0875, 0.525, 0.175, 0.6125, 0.2625, 0.7, 0.35, 0, 0.4375, 0.0875, 0.525, 0.175, 0.6125, 0.2625, 0.7, 0.35, 0, 0.4375, 0.0875, 0.525, 0.175, 0.6125, 0.2625, 0.7, 0.35, 0, 0.4375, 0.0875, 0.525, 0.175, 0.6125, 0.2625, 0.7, 0.35, 0, 0.4375, 0.0875, 0.525, 0.175, 0.6125, 0.2625, 0.7, 0.35],
  "SoftwareVersions": "syngo MR B19",
  "SpacingBetweenSlices": 2,
  "StationName": "MRC35450",
  "TaskName": "cpro",
  "TotalReadoutTime": 0.0710717,
  "TxRefAmp": 320.014,
  "dcmmeta_affine": [
    [-2.0, -4.792867258629485e-08, 0.00013806707283947617, 99.77368927001953],
    [-1.3759142348135356e-05, 1.9901130199432373, -0.19862014055252075, -84.11650085449219],
    [0.0001373797858832404, 0.19862014055252075, 1.9901131391525269, -96.22532653808594],
    [0.0, 0.0, 0.0, 1.0]
],
  "dcmmeta_reorient_transform": [
    [0.0, -1.0, 0.0, 103.0],
    [1.0, 0.0, 0.0, 0.0],
    [0.0, 0.0, 1.0, 0.0],
    [0.0, 0.0, 0.0, 1.0]
],
  "dcmmeta_shape": [104, 104, 72, 581],
  "dcmmeta_slice_dim": 2,
  "dcmmeta_version": 0.6,
  "global": {
    "const": {
      "AcquisitionMatrix": [104, 0, 0, 104],
      "AngioFlag": "N",
      "BitsAllocated": 16,
      "BitsStored": 12,
      "Columns": 936,
      "EchoNumbers": 1,
      "EchoTime": 34.8,
      "EchoTrainLength": 1,
      "FlipAngle": 55.0,
      "HighBit": 11,
      "ImageOrientationPatient": [0.99999999761719, 6.879571237e-06, 6.868989263e-05, -2.3964336e-08, 0.99505653616179, -0.0993100691858],
      "ImagePositionPatient": [-931.77366222491, -948.75790479457, 6.8013766361175],
      "ImageType": [
        "ORIGINAL",
        "PRIMARY",
        "M",
        "MB",
        "ND",
        "MOSAIC"
],
      "ImagedNucleus": "1H",
      "ImagingFrequency": 123.234439,
      "InPlanePhaseEncodingDirection": "COL",
      "MRAcquisitionType": "2D",
      "MagneticFieldStrength": 3.0,
      "Manufacturer": "SIEMENS",
      "ManufacturerModelName": "TrioTim",
      "Modality": "MR",
      "NumberOfAverages": 1.0,
      "NumberOfPhaseEncodingSteps": 91,
      "PercentPhaseFieldOfView": 100.0,
      "PercentSampling": 100.0,
      "PerformedProcedureStepStartTime": "140659.812000",
      "PhotometricInterpretation": "MONOCHROME2",
      "PixelBandwidth": 1923.0,
      "PixelRepresentation": 0,
      "PixelSpacing": [2.0, 2.0],
      "ProtocolName": "cmrr_mbep2d_bold_2mm_MB8_Task_8x",
      "RepetitionTime": 785.0,
      "Rows": 936,
      "SAR": 0.12377423685496,
      "SamplesPerPixel": 1,
      "ScanOptions": [
        "PFP",
        "FS"
],
      "ScanningSequence": "EP",
      "SequenceName": "epfid2d1_104",
      "SequenceVariant": [
        "SK",
        "SS"
],
      "SeriesDescription": "cmrr_mbep2d_bold_2mm_MB8_Task_8x",
      "SeriesNumber": 27,
      "SeriesTime": "161921.203000",
      "SliceLocation": -87.389135047254,
      "SliceThickness": 2.0,
      "SmallestImagePixelValue": 0,
      "SoftwareVersions": "syngo MR B19",
      "SpacingBetweenSlices": 2.0000000424943,
      "SpecificCharacterSet": "ISO_IR 100",
      "StudyID": "1",
      "StudyTime": "140659.781000",
      "TransmitCoilName": "Body",
      "VariableFlipAngleFlag": "N",
      "WindowCenterWidthExplanation": "Algo1",
      "dBdt": 0.0},
    "slices": {}
  },
  "time": {
    "samples": {
      "AcquisitionNumber": [1, 2, 3, 4, 5, 6, 7, 8, 9, 10, 11, 12, 13, 14, 15, 16, 17, 18, 19, 20, 21, 22, 23, 24, 25, 26, 27, 28, 29, 30, 31, 32, 33, 34, 35, 36, 37, 38, 39, 40, 41, 42, 43, 44, 45, 46, 47, 48, 49, 50, 51, 52, 53, 54, 55, 56, 57, 58, 59, 60, 61, 62, 63, 64, 65, 66, 67, 68, 69, 70, 71, 72, 73, 74, 75, 76, 77, 78, 79, 80, 81, 82, 83, 84, 85, 86, 87, 88, 89, 90, 91, 92, 93, 94, 95, 96, 97, 98, 99, 100, 101, 102, 103, 104, 105, 106, 107, 108, 109, 110, 111, 112, 113, 114, 115, 116, 117, 118, 119, 120, 121, 122, 123, 124, 125, 126, 127, 128, 129, 130, 131, 132, 133, 134, 135, 136, 137, 138, 139, 140, 141, 142, 143, 144, 145, 146, 147, 148, 149, 150, 151, 152, 153, 154, 155, 156, 157, 158, 159, 160, 161, 162, 163, 164, 165, 166, 167, 168, 169, 170, 171, 172, 173, 174, 175, 176, 177, 178, 179, 180, 181, 182, 183, 184, 185, 186, 187, 188, 189, 190, 191, 192, 193, 194, 195, 196, 197, 198, 199, 200, 201, 202, 203, 204, 205, 206, 207, 208, 209, 210, 211, 212, 213, 214, 215, 216, 217, 218, 219, 220, 221, 222, 223, 224, 225, 226, 227, 228, 229, 230, 231, 232, 233, 234, 235, 236, 237, 238, 239, 240, 241, 242, 243, 244, 245, 246, 247, 248, 249, 250, 251, 252, 253, 254, 255, 256, 257, 258, 259, 260, 261, 262, 263, 264, 265, 266, 267, 268, 269, 270, 271, 272, 273, 274, 275, 276, 277, 278, 279, 280, 281, 282, 283, 284, 285, 286, 287, 288, 289, 290, 291, 292, 293, 294, 295, 296, 297, 298, 299, 300, 301, 302, 303, 304, 305, 306, 307, 308, 309, 310, 311, 312, 313, 314, 315, 316, 317, 318, 319, 320, 321, 322, 323, 324, 325, 326, 327, 328, 329, 330, 331, 332, 333, 334, 335, 336, 337, 338, 339, 340, 341, 342, 343, 344, 345, 346, 347, 348, 349, 350, 351, 352, 353, 354, 355, 356, 357, 358, 359, 360, 361, 362, 363, 364, 365, 366, 367, 368, 369, 370, 371, 372, 373, 374, 375, 376, 377, 378, 379, 380, 381, 382, 383, 384, 385, 386, 387, 388, 389, 390, 391, 392, 393, 394, 395, 396, 397, 398, 399, 400, 401, 402, 403, 404, 405, 406, 407, 408, 409, 410, 411, 412, 413, 414, 415, 416, 417, 418, 419, 420, 421, 422, 423, 424, 425, 426, 427, 428, 429, 430, 431, 432, 433, 434, 435, 436, 437, 438, 439, 440, 441, 442, 443, 444, 445, 446, 447, 448, 449, 450, 451, 452, 453, 454, 455, 456, 457, 458, 459, 460, 461, 462, 463, 464, 465, 466, 467, 468, 469, 470, 471, 472, 473, 474, 475, 476, 477, 478, 479, 480, 481, 482, 483, 484, 485, 486, 487, 488, 489, 490, 491, 492, 493, 494, 495, 496, 497, 498, 499, 500, 501, 502, 503, 504, 505, 506, 507, 508, 509, 510, 511, 512, 513, 514, 515, 516, 517, 518, 519, 520, 521, 522, 523, 524, 525, 526, 527, 528, 529, 530, 531, 532, 533, 534, 535, 536, 537, 538, 539, 540, 541, 542, 543, 544, 545, 546, 547, 548, 549, 550, 551, 552, 553, 554, 555, 556, 557, 558, 559, 560, 561, 562, 563, 564, 565, 566, 567, 568, 569, 570, 571, 572, 573, 574, 575, 576, 577, 578, 579, 580, 581],
      "AcquisitionTime": ["161900.727500", "161901.515000", "161902.302500", "161903.090000", "161903.880000", "161904.667500", "161905.455000", "161906.242500", "161907.032500", "161907.820000", "161908.607500", "161909.397500", "161910.185000", "161910.972500", "161911.760000", "161912.550000", "161913.337500", "161914.125000", "161914.912500", "161915.702500", "161916.490000", "161917.277500", "161918.065000", "161918.855000", "161919.642500", "161920.430000", "161921.217500", "161922.007500", "161922.795000", "161923.582500", "161924.370000", "161925.160000", "161925.947500", "161926.735000", "161927.525000", "161928.312500", "161929.100000", "161929.887500", "161930.677500", "161931.465000", "161932.252500", "161933.040000", "161933.830000", "161934.617500", "161935.405000", "161936.192500", "161936.982500", "161937.770000", "161938.557500", "161939.345000", "161940.135000", "161940.922500", "161941.710000", "161942.497500", "161943.287500", "161944.075000", "161944.862500", "161945.652500", "161946.440000", "161947.227500", "161948.015000", "161948.805000", "161949.592500", "161950.380000", "161951.167500", "161951.957500", "161952.745000", "161953.532500", "161954.320000", "161955.110000", "161955.897500", "161956.685000", "161957.472500", "161958.262500", "161959.050000", "161959.837500", "162000.625000", "162001.415000", "162002.202500", "162002.990000", "162003.780000", "162004.567500", "162005.355000", "162006.142500", "162006.932500", "162007.720000", "162008.507500", "162009.295000", "162010.085000", "162010.872500", "162011.660000", "162012.447500", "162013.237500", "162014.025000", "162014.812500", "162015.600000", "162016.390000", "162017.177500", "162017.965000", "162018.752500", "162019.542500", "162020.330000", "162021.117500", "162021.907500", "162022.695000", "162023.482500", "162024.270000", "162025.060000", "162025.847500", "162026.635000", "162027.422500", "162028.212500", "162029.000000", "162029.787500", "162030.575000", "162031.365000", "162032.152500", "162032.940000", "162033.727500", "162034.517500", "162035.305000", "162036.092500", "162036.880000", "162037.670000", "162038.457500", "162039.245000", "162040.035000", "162040.822500", "162041.610000", "162042.397500", "162043.187500", "162043.975000", "162044.762500", "162045.550000", "162046.340000", "162047.127500", "162047.915000", "162048.702500", "162049.492500", "162050.280000", "162051.067500", "162051.855000", "162052.645000", "162053.432500", "162054.220000", "162055.007500", "162055.797500", "162056.585000", "162057.372500", "162058.162500", "162058.950000", "162059.737500", "162100.525000", "162101.315000", "162102.102500", "162102.890000", "162103.677500", "162104.467500", "162105.255000", "162106.042500", "162106.830000", "162107.620000", "162108.407500", "162109.195000", "162109.982500", "162110.772500", "162111.560000", "162112.347500", "162113.135000", "162113.925000", "162114.712500", "162115.500000", "162116.290000", "162117.077500", "162117.865000", "162118.652500", "162119.442500", "162120.230000", "162121.017500", "162121.805000", "162122.595000", "162123.382500", "162124.170000", "162124.957500", "162125.747500", "162126.535000", "162127.322500", "162128.110000", "162128.900000", "162129.687500", "162130.475000", "162131.262500", "162132.052500", "162132.840000", "162133.627500", "162134.417500", "162135.205000", "162135.992500", "162136.780000", "162137.570000", "162138.357500", "162139.145000", "162139.932500", "162140.722500", "162141.510000", "162142.297500", "162143.085000", "162143.875000", "162144.662500", "162145.450000", "162146.237500", "162147.027500", "162147.815000", "162148.602500", "162149.390000", "162150.180000", "162150.967500", "162151.755000", "162152.545000", "162153.332500", "162154.120000", "162154.907500", "162155.697500", "162156.485000", "162157.272500", "162158.060000", "162158.850000", "162159.637500", "162200.425000", "162201.212500", "162202.002500", "162202.790000", "162203.577500", "162204.365000", "162205.155000", "162205.942500", "162206.730000", "162207.520000", "162208.307500", "162209.095000", "162209.882500", "162210.672500", "162211.460000", "162212.247500", "162213.035000", "162213.825000", "162214.612500", "162215.400000", "162216.187500", "162216.977500", "162217.765000", "162218.552500", "162219.340000", "162220.130000", "162220.917500", "162221.705000", "162222.492500", "162223.282500", "162224.070000", "162224.857500", "162225.647500", "162226.435000", "162227.222500", "162228.010000", "162228.800000", "162229.587500", "162230.375000", "162231.162500", "162231.952500", "162232.740000", "162233.527500", "162234.315000", "162235.105000", "162235.892500", "162236.680000", "162237.467500", "162238.257500", "162239.045000", "162239.832500", "162240.620000", "162241.410000", "162242.197500", "162242.985000", "162243.775000", "162244.562500", "162245.350000", "162246.137500", "162246.927500", "162247.715000", "162248.502500", "162249.290000", "162250.080000", "162250.867500", "162251.655000", "162252.442500", "162253.232500", "162254.020000", "162254.807500", "162255.595000", "162256.385000", "162257.172500", "162257.960000", "162258.747500", "162259.537500", "162300.325000", "162301.112500", "162301.902500", "162302.690000", "162303.477500", "162304.265000", "162305.055000", "162305.842500", "162306.630000", "162307.417500", "162308.207500", "162308.995000", "162309.782500", "162310.570000", "162311.360000", "162312.147500", "162312.935000", "162313.722500", "162314.512500", "162315.300000", "162316.087500", "162316.875000", "162317.665000", "162318.452500", "162319.240000", "162320.030000", "162320.817500", "162321.605000", "162322.392500", "162323.182500", "162323.970000", "162324.757500", "162325.545000", "162326.335000", "162327.122500", "162327.910000", "162328.697500", "162329.487500", "162330.275000", "162331.062500", "162331.850000", "162332.640000", "162333.427500", "162334.215000", "162335.002500", "162335.792500", "162336.580000", "162337.367500", "162338.157500", "162338.945000", "162339.732500", "162340.520000", "162341.310000", "162342.097500", "162342.885000", "162343.672500", "162344.462500", "162345.250000", "162346.037500", "162346.825000", "162347.615000", "162348.402500", "162349.190000", "162349.977500", "162350.767500", "162351.555000", "162352.342500", "162353.130000", "162353.920000", "162354.707500", "162355.495000", "162356.285000", "162357.072500", "162357.860000", "162358.647500", "162359.437500", "162400.225000", "162401.012500", "162401.800000", "162402.590000", "162403.377500", "162404.165000", "162404.952500", "162405.742500", "162406.530000", "162407.317500", "162408.105000", "162408.895000", "162409.682500", "162410.470000", "162411.257500", "162412.047500", "162412.835000", "162413.622500", "162414.412500", "162415.200000", "162415.987500", "162416.775000", "162417.565000", "162418.352500", "162419.140000", "162419.927500", "162420.717500", "162421.505000", "162422.292500", "162423.080000", "162423.870000", "162424.657500", "162425.445000", "162426.232500", "162427.022500", "162427.810000", "162428.597500", "162429.385000", "162430.175000", "162430.962500", "162431.750000", "162432.540000", "162433.327500", "162434.115000", "162434.902500", "162435.692500", "162436.480000", "162437.267500", "162438.055000", "162438.845000", "162439.632500", "162440.420000", "162441.207500", "162441.997500", "162442.785000", "162443.572500", "162444.360000", "162445.150000", "162445.937500", "162446.725000", "162447.512500", "162448.302500", "162449.090000", "162449.877500", "162450.667500", "162451.455000", "162452.242500", "162453.030000", "162453.820000", "162454.607500", "162455.395000", "162456.182500", "162456.972500", "162457.760000", "162458.547500", "162459.335000", "162500.125000", "162500.912500", "162501.700000", "162502.487500", "162503.277500", "162504.065000", "162504.852500", "162505.640000", "162506.430000", "162507.217500", "162508.005000", "162508.795000", "162509.582500", "162510.370000", "162511.157500", "162511.947500", "162512.735000", "162513.522500", "162514.310000", "162515.100000", "162515.887500", "162516.675000", "162517.462500", "162518.252500", "162519.040000", "162519.827500", "162520.615000", "162521.405000", "162522.192500", "162522.980000", "162523.770000", "162524.557500", "162525.345000", "162526.132500", "162526.922500", "162527.710000", "162528.497500", "162529.285000", "162530.075000", "162530.862500", "162531.650000", "162532.437500", "162533.227500", "162534.015000", "162534.802500", "162535.590000", "162536.380000", "162537.167500", "162537.955000", "162538.742500", "162539.532500", "162540.320000", "162541.107500", "162541.897500", "162542.685000", "162543.472500", "162544.260000", "162545.050000", "162545.837500", "162546.625000", "162547.412500", "162548.202500", "162548.990000", "162549.777500", "162550.565000", "162551.355000", "162552.142500", "162552.930000", "162553.717500", "162554.507500", "162555.295000", "162556.082500", "162556.870000", "162557.660000", "162558.447500", "162559.235000", "162600.025000", "162600.812500", "162601.600000", "162602.387500", "162603.177500", "162603.965000", "162604.752500", "162605.540000", "162606.330000", "162607.117500", "162607.905000", "162608.692500", "162609.482500", "162610.270000", "162611.057500", "162611.845000", "162612.635000", "162613.422500", "162614.210000", "162614.997500", "162615.787500", "162616.575000", "162617.362500", "162618.152500", "162618.940000", "162619.727500", "162620.515000", "162621.305000", "162622.092500", "162622.880000", "162623.667500", "162624.457500", "162625.245000", "162626.032500", "162626.820000", "162627.610000", "162628.397500", "162629.185000", "162629.972500", "162630.762500", "162631.550000", "162632.337500", "162633.125000", "162633.915000", "162634.702500", "162635.490000", "162636.280000", "162637.067500", "162637.855000"],
      "ContentTime": ["161921.203000", "161921.218000", "161921.218000", "161921.218000", "161921.218000", "161921.218000", "161921.218000", "161921.218000", "161921.234000", "161921.234000", "161921.234000", "161921.234000", "161921.234000", "161921.234000", "161921.250000", "161921.250000", "161921.250000", "161921.250000", "161921.250000", "161921.250000", "161921.265000", "161921.265000", "161941.187000", "161941.187000", "161941.187000", "161941.187000", "161941.203000", "161941.203000", "161941.203000", "161941.203000", "161941.203000", "161941.203000", "161941.203000", "161941.218000", "161941.218000", "161941.218000", "161941.218000", "161941.218000", "161941.218000", "161941.218000", "161941.234000", "161941.234000", "161941.234000", "161941.234000", "161941.234000", "161941.234000", "161941.250000", "161941.250000", "162001.187000", "162001.187000", "162001.187000", "162001.187000", "162001.203000", "162001.203000", "162001.203000", "162001.203000", "162001.203000", "162001.203000", "162001.203000", "162001.218000", "162001.218000", "162001.218000", "162001.218000", "162001.218000", "162001.218000", "162001.218000", "162001.234000", "162001.234000", "162001.234000", "162001.234000", "162001.234000", "162001.234000", "162001.234000", "162021.187000", "162021.187000", "162021.187000", "162021.187000", "162021.203000", "162021.203000", "162021.203000", "162021.203000", "162021.203000", "162021.218000", "162021.218000", "162021.218000", "162021.218000", "162021.218000", "162021.218000", "162021.234000", "162021.234000", "162021.234000", "162021.234000", "162021.234000", "162021.234000", "162021.234000", "162021.250000", "162021.250000", "162021.250000", "162021.250000", "162041.187000", "162041.187000", "162041.187000", "162041.187000", "162041.203000", "162041.203000", "162041.203000", "162041.203000", "162041.203000", "162041.203000", "162041.203000", "162041.218000", "162041.218000", "162041.218000", "162041.218000", "162041.218000", "162041.234000", "162041.234000", "162041.234000", "162041.234000", "162041.234000", "162041.234000", "162041.250000", "162041.250000", "162041.250000", "162101.187000", "162101.187000", "162101.187000", "162101.187000", "162101.203000", "162101.203000", "162101.203000", "162101.203000", "162101.203000", "162101.203000", "162101.203000", "162101.218000", "162101.218000", "162101.218000", "162101.218000", "162101.218000", "162101.218000", "162101.218000", "162101.234000", "162101.234000", "162101.234000", "162101.234000", "162101.234000", "162101.234000", "162101.234000", "162101.250000", "162121.187000", "162121.187000", "162121.187000", "162121.187000", "162121.203000", "162121.203000", "162121.203000", "162121.203000", "162121.203000", "162121.203000", "162121.203000", "162121.218000", "162121.218000", "162121.218000", "162121.218000", "162121.218000", "162121.218000", "162121.218000", "162121.234000", "162121.234000", "162121.234000", "162121.234000", "162121.234000", "162121.234000", "162121.234000", "162141.187000", "162141.187000", "162141.187000", "162141.187000", "162141.203000", "162141.203000", "162141.218000", "162141.218000", "162141.234000", "162141.234000", "162141.234000", "162141.234000", "162141.234000", "162141.234000", "162141.234000", "162141.250000", "162141.250000", "162141.250000", "162141.250000", "162141.250000", "162141.250000", "162141.250000", "162141.265000", "162141.265000", "162141.265000", "162201.187000", "162201.187000", "162201.187000", "162201.187000", "162201.203000", "162201.203000", "162201.203000", "162201.203000", "162201.203000", "162201.203000", "162201.203000", "162201.218000", "162201.218000", "162201.218000", "162201.218000", "162201.218000", "162201.218000", "162201.218000", "162201.234000", "162201.234000", "162201.234000", "162201.234000", "162201.234000", "162201.234000", "162201.250000", "162201.250000", "162221.187000", "162221.187000", "162221.203000", "162221.203000", "162221.203000", "162221.203000", "162221.203000", "162221.203000", "162221.203000", "162221.218000", "162221.218000", "162221.218000", "162221.218000", "162221.218000", "162221.218000", "162221.218000", "162221.234000", "162221.234000", "162221.234000", "162221.234000", "162221.234000", "162221.234000", "162221.234000", "162221.250000", "162221.250000", "162241.187000", "162241.187000", "162241.187000", "162241.187000", "162241.203000", "162241.203000", "162241.203000", "162241.203000", "162241.203000", "162241.203000", "162241.203000", "162241.218000", "162241.218000", "162241.218000", "162241.218000", "162241.218000", "162241.218000", "162241.218000", "162241.234000", "162241.234000", "162241.234000", "162241.234000", "162241.234000", "162241.234000", "162241.234000", "162241.250000", "162301.187000", "162301.187000", "162301.187000", "162301.187000", "162301.203000", "162301.203000", "162301.203000", "162301.203000", "162301.203000", "162301.218000", "162301.218000", "162301.218000", "162301.218000", "162301.218000", "162301.218000", "162301.234000", "162301.234000", "162301.234000", "162301.234000", "162301.234000", "162301.234000", "162301.250000", "162301.250000", "162301.250000", "162301.250000", "162321.187000", "162321.187000", "162321.187000", "162321.187000", "162321.203000", "162321.203000", "162321.203000", "162321.203000", "162321.203000", "162321.218000", "162321.218000", "162321.218000", "162321.218000", "162321.218000", "162321.218000", "162321.218000", "162321.234000", "162321.234000", "162321.234000", "162321.234000", "162321.234000", "162321.234000", "162321.234000", "162321.250000", "162321.250000", "162321.250000", "162341.187000", "162341.187000", "162341.187000", "162341.203000", "162341.203000", "162341.203000", "162341.203000", "162341.203000", "162341.203000", "162341.203000", "162341.218000", "162341.218000", "162341.218000", "162341.218000", "162341.218000", "162341.218000", "162341.234000", "162341.234000", "162341.234000", "162341.234000", "162341.234000", "162341.250000", "162341.250000", "162341.250000", "162341.265000", "162401.187000", "162401.187000", "162401.187000", "162401.187000", "162401.203000", "162401.203000", "162401.203000", "162401.203000", "162401.203000", "162401.203000", "162401.203000", "162401.218000", "162401.218000", "162401.218000", "162401.218000", "162401.218000", "162401.218000", "162401.218000", "162401.234000", "162401.234000", "162401.234000", "162401.234000", "162401.234000", "162401.250000", "162401.250000", "162401.250000", "162421.187000", "162421.187000", "162421.203000", "162421.203000", "162421.203000", "162421.203000", "162421.203000", "162421.203000", "162421.203000", "162421.218000", "162421.218000", "162421.218000", "162421.218000", "162421.218000", "162421.218000", "162421.218000", "162421.234000", "162421.234000", "162421.234000", "162421.234000", "162421.234000", "162421.250000", "162421.250000", "162421.250000", "162421.250000", "162441.187000", "162441.187000", "162441.187000", "162441.187000", "162441.203000", "162441.203000", "162441.203000", "162441.203000", "162441.218000", "162441.218000", "162441.218000", "162441.218000", "162441.218000", "162441.218000", "162441.218000", "162441.234000", "162441.234000", "162441.234000", "162441.234000", "162441.234000", "162441.234000", "162441.234000", "162441.250000", "162441.250000", "162441.250000", "162441.250000", "162501.187000", "162501.187000", "162501.187000", "162501.187000", "162501.203000", "162501.203000", "162501.203000", "162501.203000", "162501.203000", "162501.203000", "162501.203000", "162501.218000", "162501.218000", "162501.218000", "162501.218000", "162501.218000", "162501.218000", "162501.218000", "162501.234000", "162501.234000", "162501.234000", "162501.234000", "162501.250000", "162501.250000", "162501.250000", "162521.187000", "162521.187000", "162521.187000", "162521.187000", "162521.203000", "162521.203000", "162521.203000", "162521.203000", "162521.203000", "162521.203000", "162521.218000", "162521.218000", "162521.218000", "162521.218000", "162521.218000", "162521.218000", "162521.234000", "162521.234000", "162521.234000", "162521.234000", "162521.234000", "162521.234000", "162521.234000", "162521.250000", "162521.250000", "162521.250000", "162541.187000", "162541.187000", "162541.187000", "162541.203000", "162541.203000", "162541.203000", "162541.203000", "162541.203000", "162541.203000", "162541.218000", "162541.218000", "162541.218000", "162541.218000", "162541.234000", "162541.234000", "162541.234000", "162541.234000", "162541.234000", "162541.234000", "162541.234000", "162541.250000", "162541.250000", "162541.250000", "162541.250000", "162541.250000", "162601.187000", "162601.187000", "162601.187000", "162601.187000", "162601.203000", "162601.203000", "162601.203000", "162601.203000", "162601.203000", "162601.203000", "162601.203000", "162601.218000", "162601.218000", "162601.218000", "162601.218000", "162601.218000", "162601.218000", "162601.218000", "162601.234000", "162601.234000", "162601.234000", "162601.234000", "162601.234000", "162601.234000", "162601.250000", "162601.250000", "162621.187000", "162621.187000", "162621.187000", "162621.187000", "162621.203000", "162621.203000", "162621.203000", "162621.203000", "162621.203000", "162621.203000", "162621.203000", "162621.218000", "162621.218000", "162621.218000", "162621.218000", "162621.218000", "162621.218000", "162621.218000", "162621.234000", "162621.234000", "162621.234000", "162621.234000", "162621.234000", "162621.234000", "162621.250000", "162639.562000", "162639.562000", "162639.578000", "162639.578000", "162639.578000", "162639.578000", "162639.578000", "162639.578000", "162639.578000", "162639.593000", "162639.593000", "162639.593000", "162639.593000", "162639.593000", "162639.593000", "162639.593000", "162639.609000", "162639.609000", "162639.609000", "162639.609000", "162639.609000", "162639.609000", "162639.609000", "162639.625000"],
      "DataSetTrailingPadding": [
