{
  "AcquisitionMatrixPE": 104,
  "AcquisitionNumber": 1,
  "AcquisitionTime": "15:46:45.740000",
  "BandwidthPerPixelPhaseEncode": 13.935,
  "BaseResolution": 104,
  "CoilString": "C:HEA;HEP",
  "ConversionSoftware": "dcm2niix",
  "ConversionSoftwareVersion": "v1.0.20210317",
  "DerivedVendorReportedEchoSpacing": 0.000690017,
  "DeviceSerialNumber": "35450",
  "DwellTime": 2.5e-06,
  "EchoTime": 0.0348,
  "EffectiveEchoSpacing": 0.000690017,
  "FlipAngle": 55,
  "ImageComments": "Unaliased MB8/PE3 (remote)",
  "ImageOrientationPatientDICOM": [1, 6.87957e-06, 6.86899e-05, -2.39643e-08, 0.995057, -0.0993101],
  "ImageType": [
    "ORIGINAL",
    "PRIMARY",
    "M",
    "MB",
    "ND",
    "MOSAIC"
],
  "ImagingFrequency": 123.234,
  "InPlanePhaseEncodingDirectionDICOM": "COL",
  "InstitutionAddress": "Univeristy Ave. 197,Newark,North East,US,07102-1814",
  "InstitutionName": "RUBIC",
  "InstitutionalDepartmentName": "Department",
  "MRAcquisitionType": "2D",
  "MagneticFieldStrength": 3,
  "Manufacturer": "Siemens",
  "ManufacturersModelName": "TrioTim",
  "Modality": "MR",
  "MultibandAccelerationFactor": 8,
  "PartialFourier": 0.875,
  "PatientPosition": "HFS",
  "PercentPhaseFOV": 100,
  "PercentSampling": 100,
  "PhaseEncodingDirection": "j-",
  "PhaseEncodingSteps": 91,
  "PhaseResolution": 1,
  "PixelBandwidth": 1923,
  "ProcedureStepDescription": "Cole^Michael",
  "ProtocolName": "cmrr_mbep2d_bold_2mm_MB8_Task_8x",
  "PulseSequenceDetails": "%CustomerSeq%\\cmrr_mbep2d_bold",
  "ReceiveCoilName": "32Ch_Head",
  "ReconMatrixPE": 104,
  "RepetitionTime": 0.785,
  "SAR": 0.123774,
  "ScanOptions": "PFP\\FS",
  "ScanningSequence": "EP",
  "SequenceName": "epfid2d1_104",
  "SequenceVariant": "SK\\SS",
  "SeriesDescription": "cmrr_mbep2d_bold_2mm_MB8_Task_8x",
  "SeriesNumber": 19,
  "ShimSetting": [2093, -461, -7266, 490, -125, -298, 239, 100],
  "SliceThickness": 2,
  "SliceTiming": [0, 0.4375, 0.0875, 0.525, 0.175, 0.6125, 0.2625, 0.7, 0.35, 0, 0.4375, 0.0875, 0.525, 0.175, 0.6125, 0.2625, 0.7, 0.35, 0, 0.4375, 0.0875, 0.525, 0.175, 0.6125, 0.2625, 0.7, 0.35, 0, 0.4375, 0.0875, 0.525, 0.175, 0.6125, 0.2625, 0.7, 0.35, 0, 0.4375, 0.0875, 0.525, 0.175, 0.6125, 0.2625, 0.7, 0.35, 0, 0.4375, 0.0875, 0.525, 0.175, 0.6125, 0.2625, 0.7, 0.35, 0, 0.4375, 0.0875, 0.525, 0.175, 0.6125, 0.2625, 0.7, 0.35, 0, 0.4375, 0.0875, 0.525, 0.175, 0.6125, 0.2625, 0.7, 0.35],
  "SoftwareVersions": "syngo MR B19",
  "SpacingBetweenSlices": 2,
  "StationName": "MRC35450",
  "TaskName": "cpro",
  "TotalReadoutTime": 0.0710717,
  "TxRefAmp": 320.014,
  "dcmmeta_affine": [
    [-2.0, -4.792867258629485e-08, 0.00013806707283947617, 99.77368927001953],
    [-1.3759142348135356e-05, 1.9901130199432373, -0.19862014055252075, -84.11650085449219],
    [0.0001373797858832404, 0.19862014055252075, 1.9901131391525269, -96.22532653808594],
    [0.0, 0.0, 0.0, 1.0]
],
  "dcmmeta_reorient_transform": [
    [0.0, -1.0, 0.0, 103.0],
    [1.0, 0.0, 0.0, 0.0],
    [0.0, 0.0, 1.0, 0.0],
    [0.0, 0.0, 0.0, 1.0]
],
  "dcmmeta_shape": [104, 104, 72, 581],
  "dcmmeta_slice_dim": 2,
  "dcmmeta_version": 0.6,
  "global": {
    "const": {
      "AcquisitionMatrix": [104, 0, 0, 104],
      "AngioFlag": "N",
      "BitsAllocated": 16,
      "BitsStored": 12,
      "Columns": 936,
      "EchoNumbers": 1,
      "EchoTime": 34.8,
      "EchoTrainLength": 1,
      "FlipAngle": 55.0,
      "HighBit": 11,
      "ImageOrientationPatient": [0.99999999761719, 6.879571237e-06, 6.868989263e-05, -2.3964336e-08, 0.99505653616179, -0.0993100691858],
      "ImagePositionPatient": [-931.77366222491, -948.75790479457, 6.8013766361175],
      "ImageType": [
        "ORIGINAL",
        "PRIMARY",
        "M",
        "MB",
        "ND",
        "MOSAIC"
],
      "ImagedNucleus": "1H",
      "ImagingFrequency": 123.234439,
      "InPlanePhaseEncodingDirection": "COL",
      "MRAcquisitionType": "2D",
      "MagneticFieldStrength": 3.0,
      "Manufacturer": "SIEMENS",
      "ManufacturerModelName": "TrioTim",
      "Modality": "MR",
      "NumberOfAverages": 1.0,
      "NumberOfPhaseEncodingSteps": 91,
      "PercentPhaseFieldOfView": 100.0,
      "PercentSampling": 100.0,
      "PerformedProcedureStepStartTime": "140659.812000",
      "PhotometricInterpretation": "MONOCHROME2",
      "PixelBandwidth": 1923.0,
      "PixelRepresentation": 0,
      "PixelSpacing": [2.0, 2.0],
      "ProtocolName": "cmrr_mbep2d_bold_2mm_MB8_Task_8x",
      "RepetitionTime": 785.0,
      "Rows": 936,
      "SAR": 0.12377423685496,
      "SamplesPerPixel": 1,
      "ScanOptions": [
        "PFP",
        "FS"
],
      "ScanningSequence": "EP",
      "SequenceName": "epfid2d1_104",
      "SequenceVariant": [
        "SK",
        "SS"
],
      "SeriesDescription": "cmrr_mbep2d_bold_2mm_MB8_Task_8x",
      "SeriesNumber": 19,
      "SeriesTime": "154720.859000",
      "SliceLocation": -87.389135047254,
      "SliceThickness": 2.0,
      "SmallestImagePixelValue": 0,
      "SoftwareVersions": "syngo MR B19",
      "SpacingBetweenSlices": 2.0000000424943,
      "SpecificCharacterSet": "ISO_IR 100",
      "StudyID": "1",
      "StudyTime": "140659.781000",
      "TransmitCoilName": "Body",
      "VariableFlipAngleFlag": "N",
      "WindowCenterWidthExplanation": "Algo1",
      "dBdt": 0.0},
    "slices": {}
  },
  "time": {
    "samples": {
      "AcquisitionNumber": [1, 2, 3, 4, 5, 6, 7, 8, 9, 10, 11, 12, 13, 14, 15, 16, 17, 18, 19, 20, 21, 22, 23, 24, 25, 26, 27, 28, 29, 30, 31, 32, 33, 34, 35, 36, 37, 38, 39, 40, 41, 42, 43, 44, 45, 46, 47, 48, 49, 50, 51, 52, 53, 54, 55, 56, 57, 58, 59, 60, 61, 62, 63, 64, 65, 66, 67, 68, 69, 70, 71, 72, 73, 74, 75, 76, 77, 78, 79, 80, 81, 82, 83, 84, 85, 86, 87, 88, 89, 90, 91, 92, 93, 94, 95, 96, 97, 98, 99, 100, 101, 102, 103, 104, 105, 106, 107, 108, 109, 110, 111, 112, 113, 114, 115, 116, 117, 118, 119, 120, 121, 122, 123, 124, 125, 126, 127, 128, 129, 130, 131, 132, 133, 134, 135, 136, 137, 138, 139, 140, 141, 142, 143, 144, 145, 146, 147, 148, 149, 150, 151, 152, 153, 154, 155, 156, 157, 158, 159, 160, 161, 162, 163, 164, 165, 166, 167, 168, 169, 170, 171, 172, 173, 174, 175, 176, 177, 178, 179, 180, 181, 182, 183, 184, 185, 186, 187, 188, 189, 190, 191, 192, 193, 194, 195, 196, 197, 198, 199, 200, 201, 202, 203, 204, 205, 206, 207, 208, 209, 210, 211, 212, 213, 214, 215, 216, 217, 218, 219, 220, 221, 222, 223, 224, 225, 226, 227, 228, 229, 230, 231, 232, 233, 234, 235, 236, 237, 238, 239, 240, 241, 242, 243, 244, 245, 246, 247, 248, 249, 250, 251, 252, 253, 254, 255, 256, 257, 258, 259, 260, 261, 262, 263, 264, 265, 266, 267, 268, 269, 270, 271, 272, 273, 274, 275, 276, 277, 278, 279, 280, 281, 282, 283, 284, 285, 286, 287, 288, 289, 290, 291, 292, 293, 294, 295, 296, 297, 298, 299, 300, 301, 302, 303, 304, 305, 306, 307, 308, 309, 310, 311, 312, 313, 314, 315, 316, 317, 318, 319, 320, 321, 322, 323, 324, 325, 326, 327, 328, 329, 330, 331, 332, 333, 334, 335, 336, 337, 338, 339, 340, 341, 342, 343, 344, 345, 346, 347, 348, 349, 350, 351, 352, 353, 354, 355, 356, 357, 358, 359, 360, 361, 362, 363, 364, 365, 366, 367, 368, 369, 370, 371, 372, 373, 374, 375, 376, 377, 378, 379, 380, 381, 382, 383, 384, 385, 386, 387, 388, 389, 390, 391, 392, 393, 394, 395, 396, 397, 398, 399, 400, 401, 402, 403, 404, 405, 406, 407, 408, 409, 410, 411, 412, 413, 414, 415, 416, 417, 418, 419, 420, 421, 422, 423, 424, 425, 426, 427, 428, 429, 430, 431, 432, 433, 434, 435, 436, 437, 438, 439, 440, 441, 442, 443, 444, 445, 446, 447, 448, 449, 450, 451, 452, 453, 454, 455, 456, 457, 458, 459, 460, 461, 462, 463, 464, 465, 466, 467, 468, 469, 470, 471, 472, 473, 474, 475, 476, 477, 478, 479, 480, 481, 482, 483, 484, 485, 486, 487, 488, 489, 490, 491, 492, 493, 494, 495, 496, 497, 498, 499, 500, 501, 502, 503, 504, 505, 506, 507, 508, 509, 510, 511, 512, 513, 514, 515, 516, 517, 518, 519, 520, 521, 522, 523, 524, 525, 526, 527, 528, 529, 530, 531, 532, 533, 534, 535, 536, 537, 538, 539, 540, 541, 542, 543, 544, 545, 546, 547, 548, 549, 550, 551, 552, 553, 554, 555, 556, 557, 558, 559, 560, 561, 562, 563, 564, 565, 566, 567, 568, 569, 570, 571, 572, 573, 574, 575, 576, 577, 578, 579, 580, 581],
      "AcquisitionTime": ["154645.740000", "154646.527500", "154647.315000", "154648.105000", "154648.892500", "154649.680000", "154650.467500", "154651.257500", "154652.045000", "154652.832500", "154653.620000", "154654.410000", "154655.197500", "154655.985000", "154656.772500", "154657.562500", "154658.350000", "154659.137500", "154659.927500", "154700.715000", "154701.502500", "154702.290000", "154703.080000", "154703.867500", "154704.655000", "154705.442500", "154706.232500", "154707.020000", "154707.807500", "154708.595000", "154709.385000", "154710.172500", "154710.960000", "154711.747500", "154712.537500", "154713.325000", "154714.112500", "154714.900000", "154715.690000", "154716.477500", "154717.265000", "154718.055000", "154718.842500", "154719.630000", "154720.417500", "154721.207500", "154721.995000", "154722.782500", "154723.570000", "154724.360000", "154725.147500", "154725.935000", "154726.722500", "154727.512500", "154728.300000", "154729.087500", "154729.875000", "154730.665000", "154731.452500", "154732.240000", "154733.027500", "154733.817500", "154734.605000", "154735.392500", "154736.182500", "154736.970000", "154737.757500", "154738.545000", "154739.335000", "154740.122500", "154740.910000", "154741.697500", "154742.487500", "154743.275000", "154744.062500", "154744.850000", "154745.640000", "154746.427500", "154747.215000", "154748.002500", "154748.792500", "154749.580000", "154750.367500", "154751.155000", "154751.945000", "154752.732500", "154753.520000", "154754.310000", "154755.097500", "154755.885000", "154756.672500", "154757.462500", "154758.250000", "154759.037500", "154759.825000", "154800.615000", "154801.402500", "154802.190000", "154802.977500", "154803.767500", "154804.555000", "154805.342500", "154806.130000", "154806.920000", "154807.707500", "154808.495000", "154809.282500", "154810.072500", "154810.860000", "154811.647500", "154812.437500", "154813.225000", "154814.012500", "154814.800000", "154815.590000", "154816.377500", "154817.165000", "154817.952500", "154818.742500", "154819.530000", "154820.317500", "154821.105000", "154821.895000", "154822.682500", "154823.470000", "154824.257500", "154825.047500", "154825.835000", "154826.622500", "154827.410000", "154828.200000", "154828.987500", "154829.775000", "154830.565000", "154831.352500", "154832.140000", "154832.927500", "154833.717500", "154834.505000", "154835.292500", "154836.080000", "154836.870000", "154837.657500", "154838.445000", "154839.232500", "154840.022500", "154840.810000", "154841.597500", "154842.385000", "154843.175000", "154843.962500", "154844.750000", "154845.537500", "154846.327500", "154847.115000", "154847.902500", "154848.692500", "154849.480000", "154850.267500", "154851.055000", "154851.845000", "154852.632500", "154853.420000", "154854.207500", "154854.997500", "154855.785000", "154856.572500", "154857.360000", "154858.150000", "154858.937500", "154859.725000", "154900.512500", "154901.302500", "154902.090000", "154902.877500", "154903.665000", "154904.455000", "154905.242500", "154906.030000", "154906.820000", "154907.607500", "154908.395000", "154909.182500", "154909.972500", "154910.760000", "154911.547500", "154912.335000", "154913.125000", "154913.912500", "154914.700000", "154915.487500", "154916.277500", "154917.065000", "154917.852500", "154918.640000", "154919.430000", "154920.217500", "154921.005000", "154921.792500", "154922.582500", "154923.370000", "154924.157500", "154924.947500", "154925.735000", "154926.522500", "154927.310000", "154928.100000", "154928.887500", "154929.675000", "154930.462500", "154931.252500", "154932.040000", "154932.827500", "154933.615000", "154934.405000", "154935.192500", "154935.980000", "154936.767500", "154937.557500", "154938.345000", "154939.132500", "154939.920000", "154940.710000", "154941.497500", "154942.285000", "154943.075000", "154943.862500", "154944.650000", "154945.437500", "154946.227500", "154947.015000", "154947.802500", "154948.590000", "154949.380000", "154950.167500", "154950.955000", "154951.742500", "154952.532500", "154953.320000", "154954.107500", "154954.895000", "154955.685000", "154956.472500", "154957.260000", "154958.050000", "154958.837500", "154959.625000", "155000.412500", "155001.202500", "155001.990000", "155002.777500", "155003.565000", "155004.355000", "155005.142500", "155005.930000", "155006.717500", "155007.507500", "155008.295000", "155009.082500", "155009.870000", "155010.660000", "155011.447500", "155012.235000", "155013.022500", "155013.812500", "155014.600000", "155015.387500", "155016.177500", "155016.965000", "155017.752500", "155018.540000", "155019.330000", "155020.117500", "155020.905000", "155021.692500", "155022.482500", "155023.270000", "155024.057500", "155024.845000", "155025.635000", "155026.422500", "155027.210000", "155027.997500", "155028.787500", "155029.575000", "155030.362500", "155031.150000", "155031.940000", "155032.727500", "155033.515000", "155034.305000", "155035.092500", "155035.880000", "155036.667500", "155037.457500", "155038.245000", "155039.032500", "155039.820000", "155040.610000", "155041.397500", "155042.185000", "155042.972500", "155043.762500", "155044.550000", "155045.337500", "155046.125000", "155046.915000", "155047.702500", "155048.490000", "155049.277500", "155050.067500", "155050.855000", "155051.642500", "155052.432500", "155053.220000", "155054.007500", "155054.795000", "155055.585000", "155056.372500", "155057.160000", "155057.947500", "155058.737500", "155059.525000", "155100.312500", "155101.100000", "155101.890000", "155102.677500", "155103.465000", "155104.252500", "155105.042500", "155105.830000", "155106.617500", "155107.405000", "155108.195000", "155108.982500", "155109.770000", "155110.560000", "155111.347500", "155112.135000", "155112.922500", "155113.712500", "155114.500000", "155115.287500", "155116.075000", "155116.865000", "155117.652500", "155118.440000", "155119.227500", "155120.017500", "155120.805000", "155121.592500", "155122.380000", "155123.170000", "155123.957500", "155124.745000", "155125.532500", "155126.322500", "155127.110000", "155127.897500", "155128.687500", "155129.475000", "155130.262500", "155131.050000", "155131.840000", "155132.627500", "155133.415000", "155134.202500", "155134.992500", "155135.780000", "155136.567500", "155137.355000", "155138.145000", "155138.932500", "155139.720000", "155140.507500", "155141.297500", "155142.085000", "155142.872500", "155143.660000", "155144.450000", "155145.237500", "155146.025000", "155146.815000", "155147.602500", "155148.390000", "155149.177500", "155149.967500", "155150.755000", "155151.542500", "155152.330000", "155153.120000", "155153.907500", "155154.695000", "155155.482500", "155156.272500", "155157.060000", "155157.847500", "155158.635000", "155159.425000", "155200.212500", "155201.000000", "155201.787500", "155202.577500", "155203.365000", "155204.152500", "155204.942500", "155205.730000", "155206.517500", "155207.305000", "155208.095000", "155208.882500", "155209.670000", "155210.457500", "155211.247500", "155212.035000", "155212.822500", "155213.610000", "155214.400000", "155215.187500", "155215.975000", "155216.762500", "155217.552500", "155218.340000", "155219.127500", "155219.915000", "155220.705000", "155221.492500", "155222.280000", "155223.070000", "155223.857500", "155224.645000", "155225.432500", "155226.222500", "155227.010000", "155227.797500", "155228.585000", "155229.375000", "155230.162500", "155230.950000", "155231.737500", "155232.527500", "155233.315000", "155234.102500", "155234.890000", "155235.680000", "155236.467500", "155237.255000", "155238.042500", "155238.832500", "155239.620000", "155240.407500", "155241.197500", "155241.985000", "155242.772500", "155243.560000", "155244.350000", "155245.137500", "155245.925000", "155246.712500", "155247.502500", "155248.290000", "155249.077500", "155249.865000", "155250.655000", "155251.442500", "155252.230000", "155253.017500", "155253.807500", "155254.595000", "155255.382500", "155256.170000", "155256.960000", "155257.747500", "155258.535000", "155259.325000", "155300.112500", "155300.900000", "155301.687500", "155302.477500", "155303.265000", "155304.052500", "155304.840000", "155305.630000", "155306.417500", "155307.205000", "155307.992500", "155308.782500", "155309.570000", "155310.357500", "155311.145000", "155311.935000", "155312.722500", "155313.510000", "155314.300000", "155315.087500", "155315.875000", "155316.662500", "155317.452500", "155318.240000", "155319.027500", "155319.815000", "155320.605000", "155321.392500", "155322.180000", "155322.967500", "155323.757500", "155324.545000", "155325.332500", "155326.120000", "155326.910000", "155327.697500", "155328.485000", "155329.272500", "155330.062500", "155330.850000", "155331.637500", "155332.427500", "155333.215000", "155334.002500", "155334.790000", "155335.580000", "155336.367500", "155337.155000", "155337.942500", "155338.732500", "155339.520000", "155340.307500", "155341.095000", "155341.885000", "155342.672500", "155343.460000", "155344.247500", "155345.037500", "155345.825000", "155346.612500", "155347.400000", "155348.190000", "155348.977500", "155349.765000", "155350.555000", "155351.342500", "155352.130000", "155352.917500", "155353.707500", "155354.495000", "155355.282500", "155356.070000", "155356.860000", "155357.647500", "155358.435000", "155359.222500", "155400.012500", "155400.800000", "155401.587500", "155402.375000", "155403.165000", "155403.952500", "155404.740000", "155405.527500", "155406.317500", "155407.105000", "155407.892500", "155408.682500", "155409.470000", "155410.257500", "155411.045000", "155411.835000", "155412.622500", "155413.410000", "155414.197500", "155414.987500", "155415.775000", "155416.562500", "155417.350000", "155418.140000", "155418.927500", "155419.715000", "155420.502500", "155421.292500", "155422.080000", "155422.867500"],
      "ContentTime": ["154720.875000", "154720.875000", "154720.875000", "154720.875000", "154720.875000", "154720.890000", "154720.890000", "154720.890000", "154720.890000", "154720.890000", "154720.890000", "154720.890000", "154720.906000", "154720.906000", "154720.906000", "154720.906000", "154720.906000", "154720.906000", "154720.906000", "154720.921000", "154720.921000", "154720.921000", "154720.921000", "154720.921000", "154720.921000", "154720.921000", "154720.937000", "154720.937000", "154720.937000", "154720.937000", "154720.937000", "154720.937000", "154720.937000", "154720.953000", "154720.953000", "154720.953000", "154720.953000", "154720.953000", "154720.968000", "154720.968000", "154720.968000", "154740.843000", "154740.843000", "154740.843000", "154740.843000", "154740.859000", "154740.859000", "154740.859000", "154740.859000", "154740.859000", "154740.859000", "154740.875000", "154740.875000", "154740.875000", "154740.875000", "154740.875000", "154740.875000", "154740.890000", "154740.890000", "154740.890000", "154740.890000", "154740.890000", "154740.906000", "154740.906000", "154740.906000", "154740.906000", "154800.843000", "154800.843000", "154800.843000", "154800.843000", "154800.859000", "154800.859000", "154800.859000", "154800.859000", "154800.859000", "154800.859000", "154800.859000", "154800.875000", "154800.875000", "154800.875000", "154800.875000", "154800.875000", "154800.875000", "154800.875000", "154800.890000", "154800.890000", "154800.890000", "154800.890000", "154800.890000", "154800.890000", "154800.890000", "154800.906000", "154820.843000", "154820.843000", "154820.843000", "154820.843000", "154820.859000", "154820.859000", "154820.859000", "154820.859000", "154820.859000", "154820.859000", "154820.875000", "154820.875000", "154820.875000", "154820.875000", "154820.875000", "154820.875000", "154820.875000", "154820.890000", "154820.890000", "154820.890000", "154820.890000", "154820.890000", "154820.906000", "154820.906000", "154820.906000", "154840.843000", "154840.843000", "154840.843000", "154840.859000", "154840.859000", "154840.859000", "154840.859000", "154840.859000", "154840.875000", "154840.875000", "154840.875000", "154840.875000", "154840.875000", "154840.875000", "154840.890000", "154840.890000", "154840.890000", "154840.890000", "154840.890000", "154840.890000", "154840.890000", "154840.906000", "154840.906000", "154840.906000", "154840.906000", "154840.906000", "154900.843000", "154900.843000", "154900.843000", "154900.843000", "154900.859000", "154900.859000", "154900.859000", "154900.859000", "154900.859000", "154900.859000", "154900.859000", "154900.875000", "154900.875000", "154900.875000", "154900.875000", "154900.875000", "154900.875000", "154900.890000", "154900.890000", "154900.890000", "154900.890000", "154900.890000", "154900.906000", "154900.906000", "154900.906000", "154920.843000", "154920.843000", "154920.843000", "154920.843000", "154920.859000", "154920.859000", "154920.859000", "154920.859000", "154920.859000", "154920.859000", "154920.859000", "154920.875000", "154920.875000", "154920.875000", "154920.875000", "154920.875000", "154920.875000", "154920.875000", "154920.890000", "154920.890000", "154920.890000", "154920.890000", "154920.890000", "154920.890000", "154920.906000", "154920.906000", "154940.843000", "154940.843000", "154940.843000", "154940.843000", "154940.859000", "154940.859000", "154940.859000", "154940.859000", "154940.859000", "154940.859000", "154940.859000", "154940.875000", "154940.875000", "154940.875000", "154940.875000", "154940.875000", "154940.875000", "154940.875000", "154940.890000", "154940.890000", "154940.890000", "154940.890000", "154940.890000", "154940.906000", "154940.906000", "155000.843000", "155000.843000", "155000.859000", "155000.859000", "155000.859000", "155000.859000", "155000.859000", "155000.859000", "155000.859000", "155000.875000", "155000.875000", "155000.875000", "155000.875000", "155000.875000", "155000.875000", "155000.890000", "155000.890000", "155000.890000", "155000.890000", "155000.890000", "155000.890000", "155000.890000", "155000.906000", "155000.906000", "155000.906000", "155000.906000", "155020.843000", "155020.843000", "155020.843000", "155020.843000", "155020.859000", "155020.859000", "155020.859000", "155020.859000", "155020.859000", "155020.859000", "155020.859000", "155020.875000", "155020.875000", "155020.875000", "155020.875000", "155020.875000", "155020.890000", "155020.890000", "155020.890000", "155020.890000", "155020.890000", "155020.890000", "155020.890000", "155020.906000", "155020.906000", "155040.843000", "155040.843000", "155040.843000", "155040.843000", "155040.859000", "155040.859000", "155040.859000", "155040.859000", "155040.859000", "155040.859000", "155040.859000", "155040.875000", "155040.875000", "155040.875000", "155040.875000", "155040.875000", "155040.875000", "155040.875000", "155040.890000", "155040.890000", "155040.890000", "155040.890000", "155040.890000", "155040.890000", "155040.906000", "155040.906000", "155100.843000", "155100.843000", "155100.843000", "155100.843000", "155100.859000", "155100.859000", "155100.859000", "155100.859000", "155100.859000", "155100.859000", "155100.859000", "155100.875000", "155100.875000", "155100.875000", "155100.875000", "155100.875000", "155100.875000", "155100.875000", "155100.890000", "155100.890000", "155100.890000", "155100.890000", "155100.890000", "155100.890000", "155100.906000", "155120.843000", "155120.843000", "155120.843000", "155120.843000", "155120.859000", "155120.859000", "155120.859000", "155120.859000", "155120.859000", "155120.859000", "155120.859000", "155120.875000", "155120.875000", "155120.875000", "155120.875000", "155120.875000", "155120.875000", "155120.875000", "155120.890000", "155120.890000", "155120.890000", "155120.890000", "155120.890000", "155120.890000", "155120.890000", "155120.906000", "155140.843000", "155140.843000", "155140.843000", "155140.843000", "155140.859000", "155140.859000", "155140.859000", "155140.859000", "155140.859000", "155140.859000", "155140.859000", "155140.875000", "155140.875000", "155140.875000", "155140.875000", "155140.875000", "155140.875000", "155140.875000", "155140.890000", "155140.890000", "155140.890000", "155140.890000", "155140.890000", "155140.890000", "155140.890000", "155200.843000", "155200.843000", "155200.843000", "155200.843000", "155200.859000", "155200.859000", "155200.859000", "155200.859000", "155200.859000", "155200.859000", "155200.859000", "155200.875000", "155200.875000", "155200.875000", "155200.875000", "155200.875000", "155200.875000", "155200.875000", "155200.890000", "155200.890000", "155200.890000", "155200.890000", "155200.890000", "155200.890000", "155200.890000", "155200.906000", "155220.843000", "155220.843000", "155220.843000", "155220.843000", "155220.859000", "155220.859000", "155220.859000", "155220.859000", "155220.859000", "155220.859000", "155220.859000", "155220.875000", "155220.875000", "155220.875000", "155220.875000", "155220.875000", "155220.875000", "155220.875000", "155220.890000", "155220.890000", "155220.890000", "155220.890000", "155220.890000", "155220.906000", "155220.906000", "155240.843000", "155240.843000", "155240.843000", "155240.843000", "155240.859000", "155240.859000", "155240.859000", "155240.859000", "155240.859000", "155240.859000", "155240.859000", "155240.875000", "155240.875000", "155240.875000", "155240.875000", "155240.875000", "155240.875000", "155240.875000", "155240.890000", "155240.890000", "155240.890000", "155240.890000", "155240.890000", "155240.890000", "155240.906000", "155240.906000", "155300.843000", "155300.843000", "155300.843000", "155300.843000", "155300.859000", "155300.859000", "155300.859000", "155300.859000", "155300.859000", "155300.859000", "155300.859000", "155300.875000", "155300.875000", "155300.875000", "155300.875000", "155300.875000", "155300.875000", "155300.875000", "155300.890000", "155300.890000", "155300.890000", "155300.890000", "155300.890000", "155300.906000", "155300.906000", "155320.843000", "155320.843000", "155320.843000", "155320.843000", "155320.859000", "155320.859000", "155320.859000", "155320.859000", "155320.859000", "155320.859000", "155320.859000", "155320.875000", "155320.875000", "155320.875000", "155320.875000", "155320.875000", "155320.875000", "155320.875000", "155320.890000", "155320.890000", "155320.890000", "155320.890000", "155320.890000", "155320.890000", "155320.890000", "155320.906000", "155340.843000", "155340.843000", "155340.843000", "155340.843000", "155340.859000", "155340.859000", "155340.859000", "155340.859000", "155340.859000", "155340.859000", "155340.859000", "155340.875000", "155340.875000", "155340.875000", "155340.875000", "155340.875000", "155340.875000", "155340.875000", "155340.890000", "155340.890000", "155340.890000", "155340.890000", "155340.890000", "155340.890000", "155340.890000", "155400.843000", "155400.843000", "155400.843000", "155400.843000", "155400.859000", "155400.859000", "155400.859000", "155400.859000", "155400.859000", "155400.859000", "155400.859000", "155400.875000", "155400.875000", "155400.875000", "155400.875000", "155400.875000", "155400.875000", "155400.875000", "155400.890000", "155400.890000", "155400.890000", "155400.890000", "155400.890000", "155400.906000", "155400.906000", "155400.906000", "155420.843000", "155420.843000", "155420.843000", "155420.843000", "155420.859000", "155420.859000", "155420.859000", "155420.859000", "155420.859000", "155420.859000", "155420.859000", "155420.875000", "155420.875000", "155420.875000", "155420.875000", "155420.875000", "155420.875000", "155420.875000", "155420.890000", "155420.890000", "155420.890000", "155420.890000", "155420.890000", "155420.890000", "155420.890000", "155424.468000", "155424.468000", "155424.468000", "155424.484000", "155424.484000"],
      "DataSetTrailingPadding": [
