{
  "AcquisitionMatrixPE": 104,
  "AcquisitionNumber": 1,
  "AcquisitionTime": "11:24:17.740000",
  "BandwidthPerPixelPhaseEncode": 13.935,
  "BaseResolution": 104,
  "CoilString": "C:HEA;HEP",
  "ConversionSoftware": "dcm2niix",
  "ConversionSoftwareVersion": "v1.0.20210317",
  "DerivedVendorReportedEchoSpacing": 0.000690017,
  "DeviceSerialNumber": "35450",
  "DwellTime": 2.5e-06,
  "EchoTime": 0.0348,
  "EffectiveEchoSpacing": 0.000690017,
  "FlipAngle": 55,
  "ImageComments": "Unaliased MB8/PE3 (remote)",
  "ImageOrientationPatientDICOM": [1, 0, 0, 0, 0.949972, -0.312335],
  "ImageType": [
    "ORIGINAL",
    "PRIMARY",
    "M",
    "MB",
    "ND",
    "MOSAIC"
],
  "ImagingFrequency": 123.234,
  "InPlanePhaseEncodingDirectionDICOM": "COL",
  "InstitutionAddress": "Univeristy Ave. 197,Newark,North East,US,07102-1814",
  "InstitutionName": "RUBIC",
  "InstitutionalDepartmentName": "Department",
  "MRAcquisitionType": "2D",
  "MagneticFieldStrength": 3,
  "Manufacturer": "Siemens",
  "ManufacturersModelName": "TrioTim",
  "Modality": "MR",
  "MultibandAccelerationFactor": 8,
  "PartialFourier": 0.875,
  "PatientPosition": "HFS",
  "PercentPhaseFOV": 100,
  "PercentSampling": 100,
  "PhaseEncodingDirection": "j-",
  "PhaseEncodingSteps": 91,
  "PhaseResolution": 1,
  "PixelBandwidth": 1923,
  "ProcedureStepDescription": "Cole^Michael",
  "ProtocolName": "cmrr_mbep2d_bold_2mm_MB8_Task_8x",
  "PulseSequenceDetails": "%CustomerSeq%\\cmrr_mbep2d_bold",
  "ReceiveCoilName": "32Ch_Head",
  "ReconMatrixPE": 104,
  "RepetitionTime": 0.785,
  "SAR": 0.173036,
  "ScanOptions": "PFP\\FS",
  "ScanningSequence": "EP",
  "SequenceName": "epfid2d1_104",
  "SequenceVariant": "SK\\SS",
  "SeriesDescription": "cmrr_mbep2d_bold_2mm_MB8_Task_8x",
  "SeriesNumber": 15,
  "ShimSetting": [2095, -327, -7234, 340, 86, -805, -102, 83],
  "SliceThickness": 2,
  "SliceTiming": [0, 0.4375, 0.0875, 0.525, 0.175, 0.6125, 0.2625, 0.7, 0.35, 0, 0.4375, 0.0875, 0.525, 0.175, 0.6125, 0.2625, 0.7, 0.35, 0, 0.4375, 0.0875, 0.525, 0.175, 0.6125, 0.2625, 0.7, 0.35, 0, 0.4375, 0.0875, 0.525, 0.175, 0.6125, 0.2625, 0.7, 0.35, 0, 0.4375, 0.0875, 0.525, 0.175, 0.6125, 0.2625, 0.7, 0.35, 0, 0.4375, 0.0875, 0.525, 0.175, 0.6125, 0.2625, 0.7, 0.35, 0, 0.4375, 0.0875, 0.525, 0.175, 0.6125, 0.2625, 0.7, 0.35, 0, 0.4375, 0.0875, 0.525, 0.175, 0.6125, 0.2625, 0.7, 0.35],
  "SoftwareVersions": "syngo MR B19",
  "SpacingBetweenSlices": 2,
  "StationName": "MRC35450",
  "TaskName": "cpro",
  "TotalReadoutTime": 0.0710717,
  "TxRefAmp": 406.306,
  "dcmmeta_affine": [
    [-2.0, 0.0, 0.0, 103.32203674316406],
    [0.0, 1.8999440670013428, -0.6246698498725891, -70.30490112304688],
    [0.0, 0.6246698498725891, 1.8999441862106323, -136.6524200439453],
    [0.0, 0.0, 0.0, 1.0]
],
  "dcmmeta_reorient_transform": [
    [0.0, -1.0, 0.0, 103.0],
    [1.0, 0.0, 0.0, 0.0],
    [0.0, 0.0, 1.0, 0.0],
    [0.0, 0.0, 0.0, 1.0]
],
  "dcmmeta_shape": [104, 104, 72, 581],
  "dcmmeta_slice_dim": 2,
  "dcmmeta_version": 0.6,
  "global": {
    "const": {
      "AcquisitionMatrix": [104, 0, 0, 104],
      "AngioFlag": "N",
      "BitsAllocated": 16,
      "BitsStored": 12,
      "Columns": 936,
      "EchoNumbers": 1,
      "EchoTime": 34.8,
      "EchoTrainLength": 1,
      "FlipAngle": 55.0,
      "HighBit": 11,
      "ImageOrientationPatient": [1.0, 0.0, 0.0, 0.0, 0.94997205164204, -0.3123349181552],
      "ImagePositionPatient": [-935.32203388214, -915.76608543888, 187.55121764621],
      "ImageType": [
        "ORIGINAL",
        "PRIMARY",
        "M",
        "MB",
        "ND",
        "MOSAIC"
],
      "ImagedNucleus": "1H",
      "ImagingFrequency": 123.234496,
      "InPlanePhaseEncodingDirection": "COL",
      "MRAcquisitionType": "2D",
      "MagneticFieldStrength": 3.0,
      "Manufacturer": "SIEMENS",
      "ManufacturerModelName": "TrioTim",
      "Modality": "MR",
      "NumberOfAverages": 1.0,
      "NumberOfPhaseEncodingSteps": 91,
      "PercentPhaseFieldOfView": 100.0,
      "PercentSampling": 100.0,
      "PerformedProcedureStepStartTime": "101140.109000",
      "PhotometricInterpretation": "MONOCHROME2",
      "PixelBandwidth": 1923.0,
      "PixelRepresentation": 0,
      "PixelSpacing": [2.0, 2.0],
      "ProtocolName": "cmrr_mbep2d_bold_2mm_MB8_Task_8x",
      "RepetitionTime": 785.0,
      "Rows": 936,
      "SAR": 0.17303574200133,
      "SamplesPerPixel": 1,
      "ScanOptions": [
        "PFP",
        "FS"
],
      "ScanningSequence": "EP",
      "SequenceName": "epfid2d1_104",
      "SequenceVariant": [
        "SK",
        "SS"
],
      "SeriesDescription": "cmrr_mbep2d_bold_2mm_MB8_Task_8x",
      "SeriesNumber": 15,
      "SeriesTime": "112449.796000",
      "SliceLocation": -107.85731032954,
      "SliceThickness": 2.0,
      "SmallestImagePixelValue": 0,
      "SoftwareVersions": "syngo MR B19",
      "SpacingBetweenSlices": 2.0000000402544,
      "SpecificCharacterSet": "ISO_IR 100",
      "StudyID": "1",
      "StudyTime": "101140.078000",
      "TransmitCoilName": "Body",
      "VariableFlipAngleFlag": "N",
      "WindowCenterWidthExplanation": "Algo1",
      "dBdt": 0.0},
    "slices": {}
  },
  "time": {
    "samples": {
      "AcquisitionNumber": [1, 2, 3, 4, 5, 6, 7, 8, 9, 10, 11, 12, 13, 14, 15, 16, 17, 18, 19, 20, 21, 22, 23, 24, 25, 26, 27, 28, 29, 30, 31, 32, 33, 34, 35, 36, 37, 38, 39, 40, 41, 42, 43, 44, 45, 46, 47, 48, 49, 50, 51, 52, 53, 54, 55, 56, 57, 58, 59, 60, 61, 62, 63, 64, 65, 66, 67, 68, 69, 70, 71, 72, 73, 74, 75, 76, 77, 78, 79, 80, 81, 82, 83, 84, 85, 86, 87, 88, 89, 90, 91, 92, 93, 94, 95, 96, 97, 98, 99, 100, 101, 102, 103, 104, 105, 106, 107, 108, 109, 110, 111, 112, 113, 114, 115, 116, 117, 118, 119, 120, 121, 122, 123, 124, 125, 126, 127, 128, 129, 130, 131, 132, 133, 134, 135, 136, 137, 138, 139, 140, 141, 142, 143, 144, 145, 146, 147, 148, 149, 150, 151, 152, 153, 154, 155, 156, 157, 158, 159, 160, 161, 162, 163, 164, 165, 166, 167, 168, 169, 170, 171, 172, 173, 174, 175, 176, 177, 178, 179, 180, 181, 182, 183, 184, 185, 186, 187, 188, 189, 190, 191, 192, 193, 194, 195, 196, 197, 198, 199, 200, 201, 202, 203, 204, 205, 206, 207, 208, 209, 210, 211, 212, 213, 214, 215, 216, 217, 218, 219, 220, 221, 222, 223, 224, 225, 226, 227, 228, 229, 230, 231, 232, 233, 234, 235, 236, 237, 238, 239, 240, 241, 242, 243, 244, 245, 246, 247, 248, 249, 250, 251, 252, 253, 254, 255, 256, 257, 258, 259, 260, 261, 262, 263, 264, 265, 266, 267, 268, 269, 270, 271, 272, 273, 274, 275, 276, 277, 278, 279, 280, 281, 282, 283, 284, 285, 286, 287, 288, 289, 290, 291, 292, 293, 294, 295, 296, 297, 298, 299, 300, 301, 302, 303, 304, 305, 306, 307, 308, 309, 310, 311, 312, 313, 314, 315, 316, 317, 318, 319, 320, 321, 322, 323, 324, 325, 326, 327, 328, 329, 330, 331, 332, 333, 334, 335, 336, 337, 338, 339, 340, 341, 342, 343, 344, 345, 346, 347, 348, 349, 350, 351, 352, 353, 354, 355, 356, 357, 358, 359, 360, 361, 362, 363, 364, 365, 366, 367, 368, 369, 370, 371, 372, 373, 374, 375, 376, 377, 378, 379, 380, 381, 382, 383, 384, 385, 386, 387, 388, 389, 390, 391, 392, 393, 394, 395, 396, 397, 398, 399, 400, 401, 402, 403, 404, 405, 406, 407, 408, 409, 410, 411, 412, 413, 414, 415, 416, 417, 418, 419, 420, 421, 422, 423, 424, 425, 426, 427, 428, 429, 430, 431, 432, 433, 434, 435, 436, 437, 438, 439, 440, 441, 442, 443, 444, 445, 446, 447, 448, 449, 450, 451, 452, 453, 454, 455, 456, 457, 458, 459, 460, 461, 462, 463, 464, 465, 466, 467, 468, 469, 470, 471, 472, 473, 474, 475, 476, 477, 478, 479, 480, 481, 482, 483, 484, 485, 486, 487, 488, 489, 490, 491, 492, 493, 494, 495, 496, 497, 498, 499, 500, 501, 502, 503, 504, 505, 506, 507, 508, 509, 510, 511, 512, 513, 514, 515, 516, 517, 518, 519, 520, 521, 522, 523, 524, 525, 526, 527, 528, 529, 530, 531, 532, 533, 534, 535, 536, 537, 538, 539, 540, 541, 542, 543, 544, 545, 546, 547, 548, 549, 550, 551, 552, 553, 554, 555, 556, 557, 558, 559, 560, 561, 562, 563, 564, 565, 566, 567, 568, 569, 570, 571, 572, 573, 574, 575, 576, 577, 578, 579, 580, 581],
      "AcquisitionTime": ["112417.740000", "112418.527500", "112419.315000", "112420.105000", "112420.892500", "112421.680000", "112422.467500", "112423.257500", "112424.045000", "112424.832500", "112425.620000", "112426.410000", "112427.197500", "112427.985000", "112428.775000", "112429.562500", "112430.350000", "112431.137500", "112431.927500", "112432.715000", "112433.502500", "112434.290000", "112435.080000", "112435.867500", "112436.655000", "112437.442500", "112438.232500", "112439.020000", "112439.807500", "112440.595000", "112441.385000", "112442.172500", "112442.960000", "112443.747500", "112444.537500", "112445.325000", "112446.112500", "112446.902500", "112447.690000", "112448.477500", "112449.265000", "112450.055000", "112450.842500", "112451.630000", "112452.417500", "112453.207500", "112453.995000", "112454.782500", "112455.570000", "112456.360000", "112457.147500", "112457.935000", "112458.722500", "112459.512500", "112500.300000", "112501.087500", "112501.875000", "112502.665000", "112503.452500", "112504.240000", "112505.030000", "112505.817500", "112506.605000", "112507.392500", "112508.182500", "112508.970000", "112509.757500", "112510.545000", "112511.335000", "112512.122500", "112512.910000", "112513.697500", "112514.487500", "112515.275000", "112516.062500", "112516.850000", "112517.640000", "112518.427500", "112519.215000", "112520.002500", "112520.792500", "112521.580000", "112522.367500", "112523.157500", "112523.945000", "112524.732500", "112525.520000", "112526.310000", "112527.097500", "112527.885000", "112528.672500", "112529.462500", "112530.250000", "112531.037500", "112531.825000", "112532.615000", "112533.402500", "112534.190000", "112534.977500", "112535.767500", "112536.555000", "112537.342500", "112538.130000", "112538.920000", "112539.707500", "112540.495000", "112541.285000", "112542.072500", "112542.860000", "112543.647500", "112544.437500", "112545.225000", "112546.012500", "112546.800000", "112547.590000", "112548.377500", "112549.165000", "112549.952500", "112550.742500", "112551.530000", "112552.317500", "112553.105000", "112553.895000", "112554.682500", "112555.470000", "112556.257500", "112557.047500", "112557.835000", "112558.622500", "112559.412500", "112600.200000", "112600.987500", "112601.775000", "112602.565000", "112603.352500", "112604.140000", "112604.927500", "112605.717500", "112606.505000", "112607.292500", "112608.080000", "112608.870000", "112609.657500", "112610.445000", "112611.232500", "112612.022500", "112612.810000", "112613.597500", "112614.385000", "112615.175000", "112615.962500", "112616.750000", "112617.540000", "112618.327500", "112619.115000", "112619.902500", "112620.692500", "112621.480000", "112622.267500", "112623.055000", "112623.845000", "112624.632500", "112625.420000", "112626.207500", "112626.997500", "112627.785000", "112628.572500", "112629.360000", "112630.150000", "112630.937500", "112631.725000", "112632.512500", "112633.302500", "112634.090000", "112634.877500", "112635.667500", "112636.455000", "112637.242500", "112638.030000", "112638.820000", "112639.607500", "112640.395000", "112641.182500", "112641.972500", "112642.760000", "112643.547500", "112644.335000", "112645.125000", "112645.912500", "112646.700000", "112647.487500", "112648.277500", "112649.065000", "112649.852500", "112650.640000", "112651.430000", "112652.217500", "112653.005000", "112653.795000", "112654.582500", "112655.370000", "112656.157500", "112656.947500", "112657.735000", "112658.522500", "112659.310000", "112700.100000", "112700.887500", "112701.675000", "112702.462500", "112703.252500", "112704.040000", "112704.827500", "112705.615000", "112706.405000", "112707.192500", "112707.980000", "112708.767500", "112709.557500", "112710.345000", "112711.132500", "112711.922500", "112712.710000", "112713.497500", "112714.285000", "112715.075000", "112715.862500", "112716.650000", "112717.437500", "112718.227500", "112719.015000", "112719.802500", "112720.590000", "112721.380000", "112722.167500", "112722.955000", "112723.742500", "112724.532500", "112725.320000", "112726.107500", "112726.897500", "112727.685000", "112728.472500", "112729.260000", "112730.050000", "112730.837500", "112731.625000", "112732.412500", "112733.202500", "112733.990000", "112734.777500", "112735.565000", "112736.355000", "112737.142500", "112737.930000", "112738.717500", "112739.507500", "112740.295000", "112741.082500", "112741.870000", "112742.660000", "112743.447500", "112744.235000", "112745.025000", "112745.812500", "112746.600000", "112747.387500", "112748.177500", "112748.965000", "112749.752500", "112750.540000", "112751.330000", "112752.117500", "112752.905000", "112753.692500", "112754.482500", "112755.270000", "112756.057500", "112756.845000", "112757.635000", "112758.422500", "112759.210000", "112759.997500", "112800.787500", "112801.575000", "112802.362500", "112803.152500", "112803.940000", "112804.727500", "112805.515000", "112806.305000", "112807.092500", "112807.880000", "112808.667500", "112809.457500", "112810.245000", "112811.032500", "112811.820000", "112812.610000", "112813.397500", "112814.185000", "112814.972500", "112815.762500", "112816.550000", "112817.337500", "112818.125000", "112818.915000", "112819.702500", "112820.490000", "112821.280000", "112822.067500", "112822.855000", "112823.642500", "112824.432500", "112825.220000", "112826.007500", "112826.795000", "112827.585000", "112828.372500", "112829.160000", "112829.947500", "112830.737500", "112831.525000", "112832.312500", "112833.100000", "112833.890000", "112834.677500", "112835.465000", "112836.252500", "112837.042500", "112837.830000", "112838.617500", "112839.407500", "112840.195000", "112840.982500", "112841.770000", "112842.560000", "112843.347500", "112844.135000", "112844.922500", "112845.712500", "112846.500000", "112847.287500", "112848.075000", "112848.865000", "112849.652500", "112850.440000", "112851.227500", "112852.017500", "112852.805000", "112853.592500", "112854.380000", "112855.170000", "112855.957500", "112856.745000", "112857.535000", "112858.322500", "112859.110000", "112859.897500", "112900.687500", "112901.475000", "112902.262500", "112903.050000", "112903.840000", "112904.627500", "112905.415000", "112906.202500", "112906.992500", "112907.780000", "112908.567500", "112909.355000", "112910.145000", "112910.932500", "112911.720000", "112912.507500", "112913.297500", "112914.085000", "112914.872500", "112915.662500", "112916.450000", "112917.237500", "112918.025000", "112918.815000", "112919.602500", "112920.390000", "112921.177500", "112921.967500", "112922.755000", "112923.542500", "112924.330000", "112925.120000", "112925.907500", "112926.695000", "112927.482500", "112928.272500", "112929.060000", "112929.847500", "112930.635000", "112931.425000", "112932.212500", "112933.000000", "112933.790000", "112934.577500", "112935.365000", "112936.152500", "112936.942500", "112937.730000", "112938.517500", "112939.305000", "112940.095000", "112940.882500", "112941.670000", "112942.457500", "112943.247500", "112944.035000", "112944.822500", "112945.610000", "112946.400000", "112947.187500", "112947.975000", "112948.762500", "112949.552500", "112950.340000", "112951.127500", "112951.917500", "112952.705000", "112953.492500", "112954.280000", "112955.070000", "112955.857500", "112956.645000", "112957.432500", "112958.222500", "112959.010000", "112959.797500", "113000.585000", "113001.375000", "113002.162500", "113002.950000", "113003.737500", "113004.527500", "113005.315000", "113006.102500", "113006.890000", "113007.680000", "113008.467500", "113009.255000", "113010.045000", "113010.832500", "113011.620000", "113012.407500", "113013.197500", "113013.985000", "113014.772500", "113015.560000", "113016.350000", "113017.137500", "113017.925000", "113018.712500", "113019.502500", "113020.290000", "113021.077500", "113021.865000", "113022.655000", "113023.442500", "113024.230000", "113025.017500", "113025.807500", "113026.595000", "113027.382500", "113028.172500", "113028.960000", "113029.747500", "113030.535000", "113031.325000", "113032.112500", "113032.900000", "113033.687500", "113034.477500", "113035.265000", "113036.052500", "113036.840000", "113037.630000", "113038.417500", "113039.205000", "113039.992500", "113040.782500", "113041.570000", "113042.357500", "113043.147500", "113043.935000", "113044.722500", "113045.510000", "113046.300000", "113047.087500", "113047.875000", "113048.662500", "113049.452500", "113050.240000", "113051.027500", "113051.815000", "113052.605000", "113053.392500", "113054.180000", "113054.967500", "113055.757500", "113056.545000", "113057.332500", "113058.120000", "113058.910000", "113059.697500", "113100.485000", "113101.275000", "113102.062500", "113102.850000", "113103.637500", "113104.427500", "113105.215000", "113106.002500", "113106.790000", "113107.580000", "113108.367500", "113109.155000", "113109.942500", "113110.732500", "113111.520000", "113112.307500", "113113.095000", "113113.885000", "113114.672500", "113115.460000", "113116.247500", "113117.037500", "113117.825000", "113118.612500", "113119.402500", "113120.190000", "113120.977500", "113121.765000", "113122.555000", "113123.342500", "113124.130000", "113124.917500", "113125.707500", "113126.495000", "113127.282500", "113128.070000", "113128.860000", "113129.647500", "113130.435000", "113131.222500", "113132.012500", "113132.800000", "113133.587500", "113134.375000", "113135.165000", "113135.952500", "113136.740000", "113137.530000", "113138.317500", "113139.105000", "113139.892500", "113140.682500", "113141.470000", "113142.257500", "113143.045000", "113143.835000", "113144.622500", "113145.410000", "113146.197500", "113146.987500", "113147.775000", "113148.562500", "113149.350000", "113150.140000", "113150.927500", "113151.715000", "113152.502500", "113153.292500", "113154.080000", "113154.867500"],
      "ContentTime": ["112449.796000", "112449.812000", "112449.812000", "112449.812000", "112449.812000", "112449.812000", "112449.812000", "112449.812000", "112449.812000", "112449.828000", "112449.828000", "112449.828000", "112449.828000", "112449.843000", "112449.843000", "112449.843000", "112449.843000", "112449.843000", "112449.843000", "112449.843000", "112449.843000", "112449.859000", "112449.859000", "112449.859000", "112449.859000", "112449.859000", "112449.859000", "112449.859000", "112449.875000", "112449.875000", "112449.875000", "112449.875000", "112449.875000", "112449.875000", "112449.875000", "112449.875000", "112449.890000", "112449.890000", "112449.890000", "112509.781000", "112509.781000", "112509.781000", "112509.781000", "112509.781000", "112509.796000", "112509.796000", "112509.796000", "112509.796000", "112509.796000", "112509.796000", "112509.796000", "112509.812000", "112509.812000", "112509.812000", "112509.812000", "112509.812000", "112509.812000", "112509.812000", "112509.812000", "112509.828000", "112509.828000", "112509.828000", "112509.828000", "112509.828000", "112529.781000", "112529.781000", "112529.781000", "112529.781000", "112529.781000", "112529.796000", "112529.796000", "112529.796000", "112529.796000", "112529.796000", "112529.796000", "112529.796000", "112529.812000", "112529.812000", "112529.812000", "112529.812000", "112529.812000", "112529.812000", "112529.812000", "112529.812000", "112529.828000", "112529.828000", "112529.828000", "112529.828000", "112529.828000", "112529.828000", "112549.781000", "112549.781000", "112549.781000", "112549.781000", "112549.781000", "112549.796000", "112549.796000", "112549.796000", "112549.796000", "112549.796000", "112549.796000", "112549.796000", "112549.812000", "112549.812000", "112549.812000", "112549.812000", "112549.812000", "112549.812000", "112549.812000", "112549.812000", "112549.828000", "112549.828000", "112549.828000", "112549.828000", "112549.828000", "112609.781000", "112609.781000", "112609.781000", "112609.781000", "112609.781000", "112609.796000", "112609.796000", "112609.796000", "112609.796000", "112609.796000", "112609.796000", "112609.796000", "112609.812000", "112609.812000", "112609.812000", "112609.812000", "112609.812000", "112609.812000", "112609.812000", "112609.812000", "112609.828000", "112609.828000", "112609.828000", "112609.828000", "112609.828000", "112609.828000", "112629.781000", "112629.781000", "112629.781000", "112629.781000", "112629.781000", "112629.796000", "112629.796000", "112629.796000", "112629.796000", "112629.796000", "112629.796000", "112629.796000", "112629.812000", "112629.812000", "112629.812000", "112629.812000", "112629.812000", "112629.812000", "112629.812000", "112629.812000", "112629.828000", "112629.828000", "112629.828000", "112629.828000", "112629.828000", "112649.781000", "112649.781000", "112649.781000", "112649.781000", "112649.796000", "112649.796000", "112649.796000", "112649.796000", "112649.796000", "112649.796000", "112649.796000", "112649.796000", "112649.812000", "112649.812000", "112649.812000", "112649.812000", "112649.812000", "112649.812000", "112649.812000", "112649.812000", "112649.828000", "112649.828000", "112649.828000", "112649.828000", "112649.828000", "112649.828000", "112709.781000", "112709.781000", "112709.781000", "112709.781000", "112709.796000", "112709.796000", "112709.796000", "112709.796000", "112709.796000", "112709.796000", "112709.796000", "112709.812000", "112709.812000", "112709.812000", "112709.812000", "112709.812000", "112709.812000", "112709.812000", "112709.828000", "112709.828000", "112709.828000", "112709.828000", "112709.828000", "112709.828000", "112709.828000", "112729.781000", "112729.781000", "112729.781000", "112729.781000", "112729.796000", "112729.796000", "112729.796000", "112729.796000", "112729.796000", "112729.796000", "112729.796000", "112729.812000", "112729.812000", "112729.812000", "112729.812000", "112729.812000", "112729.812000", "112729.812000", "112729.828000", "112729.828000", "112729.828000", "112729.828000", "112729.828000", "112729.828000", "112729.828000", "112729.828000", "112749.781000", "112749.781000", "112749.781000", "112749.781000", "112749.796000", "112749.796000", "112749.796000", "112749.796000", "112749.796000", "112749.796000", "112749.796000", "112749.796000", "112749.812000", "112749.812000", "112749.812000", "112749.812000", "112749.812000", "112749.812000", "112749.812000", "112749.812000", "112749.828000", "112749.828000", "112749.828000", "112749.828000", "112749.828000", "112809.781000", "112809.781000", "112809.781000", "112809.781000", "112809.781000", "112809.796000", "112809.796000", "112809.796000", "112809.796000", "112809.796000", "112809.796000", "112809.812000", "112809.812000", "112809.812000", "112809.812000", "112809.812000", "112809.828000", "112809.828000", "112809.828000", "112809.828000", "112809.828000", "112809.828000", "112809.828000", "112809.828000", "112809.843000", "112809.843000", "112829.781000", "112829.781000", "112829.781000", "112829.796000", "112829.796000", "112829.796000", "112829.796000", "112829.796000", "112829.796000", "112829.812000", "112829.812000", "112829.812000", "112829.812000", "112829.812000", "112829.812000", "112829.828000", "112829.828000", "112829.828000", "112829.828000", "112829.828000", "112829.828000", "112829.828000", "112829.843000", "112829.843000", "112829.843000", "112849.781000", "112849.781000", "112849.781000", "112849.781000", "112849.781000", "112849.796000", "112849.796000", "112849.796000", "112849.796000", "112849.796000", "112849.796000", "112849.796000", "112849.812000", "112849.812000", "112849.812000", "112849.812000", "112849.812000", "112849.812000", "112849.812000", "112849.812000", "112849.828000", "112849.828000", "112849.828000", "112849.828000", "112849.828000", "112849.828000", "112909.781000", "112909.781000", "112909.781000", "112909.781000", "112909.781000", "112909.796000", "112909.796000", "112909.796000", "112909.796000", "112909.796000", "112909.796000", "112909.796000", "112909.812000", "112909.812000", "112909.812000", "112909.812000", "112909.812000", "112909.812000", "112909.812000", "112909.812000", "112909.828000", "112909.828000", "112909.828000", "112909.828000", "112909.828000", "112929.781000", "112929.781000", "112929.781000", "112929.781000", "112929.781000", "112929.796000", "112929.796000", "112929.796000", "112929.796000", "112929.796000", "112929.812000", "112929.812000", "112929.812000", "112929.812000", "112929.812000", "112929.812000", "112929.812000", "112929.828000", "112929.828000", "112929.828000", "112929.828000", "112929.828000", "112929.828000", "112929.843000", "112929.843000", "112949.781000", "112949.781000", "112949.781000", "112949.781000", "112949.796000", "112949.796000", "112949.796000", "112949.796000", "112949.796000", "112949.796000", "112949.812000", "112949.812000", "112949.812000", "112949.812000", "112949.812000", "112949.812000", "112949.812000", "112949.812000", "112949.828000", "112949.828000", "112949.828000", "112949.828000", "112949.828000", "112949.843000", "112949.843000", "112949.843000", "113009.781000", "113009.781000", "113009.781000", "113009.781000", "113009.796000", "113009.796000", "113009.796000", "113009.796000", "113009.796000", "113009.796000", "113009.796000", "113009.796000", "113009.812000", "113009.812000", "113009.812000", "113009.812000", "113009.812000", "113009.812000", "113009.812000", "113009.828000", "113009.828000", "113009.828000", "113009.828000", "113009.828000", "113009.828000", "113029.781000", "113029.781000", "113029.781000", "113029.781000", "113029.796000", "113029.796000", "113029.796000", "113029.796000", "113029.796000", "113029.812000", "113029.812000", "113029.812000", "113029.812000", "113029.812000", "113029.812000", "113029.812000", "113029.812000", "113029.828000", "113029.828000", "113029.828000", "113029.828000", "113029.828000", "113029.828000", "113029.828000", "113029.843000", "113029.843000", "113049.781000", "113049.781000", "113049.781000", "113049.781000", "113049.796000", "113049.796000", "113049.796000", "113049.796000", "113049.796000", "113049.796000", "113049.796000", "113049.796000", "113049.812000", "113049.812000", "113049.812000", "113049.812000", "113049.812000", "113049.812000", "113049.812000", "113049.828000", "113049.828000", "113049.828000", "113049.828000", "113049.828000", "113049.828000", "113109.781000", "113109.781000", "113109.781000", "113109.781000", "113109.796000", "113109.796000", "113109.796000", "113109.796000", "113109.796000", "113109.796000", "113109.796000", "113109.796000", "113109.812000", "113109.812000", "113109.812000", "113109.812000", "113109.812000", "113109.812000", "113109.812000", "113109.828000", "113109.828000", "113109.828000", "113109.828000", "113109.828000", "113109.828000", "113109.828000", "113129.781000", "113129.781000", "113129.781000", "113129.781000", "113129.796000", "113129.796000", "113129.796000", "113129.796000", "113129.796000", "113129.796000", "113129.796000", "113129.796000", "113129.812000", "113129.812000", "113129.812000", "113129.812000", "113129.812000", "113129.812000", "113129.812000", "113129.828000", "113129.828000", "113129.828000", "113129.828000", "113129.828000", "113129.828000", "113149.781000", "113149.781000", "113149.781000", "113149.781000", "113149.796000", "113149.796000", "113149.796000", "113149.796000", "113149.796000", "113149.796000", "113149.796000", "113149.796000", "113149.812000", "113149.812000", "113149.812000", "113149.812000", "113149.812000", "113149.812000", "113149.812000", "113149.828000", "113149.828000", "113149.828000", "113149.828000", "113149.828000", "113149.828000", "113149.828000", "113155.140000", "113155.140000", "113155.140000", "113155.156000", "113155.156000", "113155.156000", "113155.156000"],
