{
  "AcquisitionMatrixPE": 104,
  "AcquisitionNumber": 1,
  "AcquisitionTime": "11:32:32.722500",
  "BandwidthPerPixelPhaseEncode": 13.935,
  "BaseResolution": 104,
  "CoilString": "C:HEA;HEP",
  "ConversionSoftware": "dcm2niix",
  "ConversionSoftwareVersion": "v1.0.20210317",
  "DerivedVendorReportedEchoSpacing": 0.000690017,
  "DeviceSerialNumber": "35450",
  "DwellTime": 2.5e-06,
  "EchoTime": 0.0348,
  "EffectiveEchoSpacing": 0.000690017,
  "FlipAngle": 55,
  "ImageComments": "Unaliased MB8/PE3 (remote)",
  "ImageOrientationPatientDICOM": [1, 0, 0, 0, 0.949972, -0.312335],
  "ImageType": [
    "ORIGINAL",
    "PRIMARY",
    "M",
    "MB",
    "ND",
    "MOSAIC"
],
  "ImagingFrequency": 123.234,
  "InPlanePhaseEncodingDirectionDICOM": "COL",
  "InstitutionAddress": "Univeristy Ave. 197,Newark,North East,US,07102-1814",
  "InstitutionName": "RUBIC",
  "InstitutionalDepartmentName": "Department",
  "MRAcquisitionType": "2D",
  "MagneticFieldStrength": 3,
  "Manufacturer": "Siemens",
  "ManufacturersModelName": "TrioTim",
  "Modality": "MR",
  "MultibandAccelerationFactor": 8,
  "PartialFourier": 0.875,
  "PatientPosition": "HFS",
  "PercentPhaseFOV": 100,
  "PercentSampling": 100,
  "PhaseEncodingDirection": "j-",
  "PhaseEncodingSteps": 91,
  "PhaseResolution": 1,
  "PixelBandwidth": 1923,
  "ProcedureStepDescription": "Cole^Michael",
  "ProtocolName": "cmrr_mbep2d_bold_2mm_MB8_Task_8x",
  "PulseSequenceDetails": "%CustomerSeq%\\cmrr_mbep2d_bold",
  "ReceiveCoilName": "32Ch_Head",
  "ReconMatrixPE": 104,
  "RepetitionTime": 0.785,
  "SAR": 0.173036,
  "ScanOptions": "PFP\\FS",
  "ScanningSequence": "EP",
  "SequenceName": "epfid2d1_104",
  "SequenceVariant": "SK\\SS",
  "SeriesDescription": "cmrr_mbep2d_bold_2mm_MB8_Task_8x",
  "SeriesNumber": 17,
  "ShimSetting": [2095, -327, -7234, 340, 86, -805, -102, 83],
  "SliceThickness": 2,
  "SliceTiming": [0, 0.4375, 0.0875, 0.525, 0.175, 0.6125, 0.2625, 0.7, 0.35, 0, 0.4375, 0.0875, 0.525, 0.175, 0.6125, 0.2625, 0.7, 0.35, 0, 0.4375, 0.0875, 0.525, 0.175, 0.6125, 0.2625, 0.7, 0.35, 0, 0.4375, 0.0875, 0.525, 0.175, 0.6125, 0.2625, 0.7, 0.35, 0, 0.4375, 0.0875, 0.525, 0.175, 0.6125, 0.2625, 0.7, 0.35, 0, 0.4375, 0.0875, 0.525, 0.175, 0.6125, 0.2625, 0.7, 0.35, 0, 0.4375, 0.0875, 0.525, 0.175, 0.6125, 0.2625, 0.7, 0.35, 0, 0.4375, 0.0875, 0.525, 0.175, 0.6125, 0.2625, 0.7, 0.35],
  "SoftwareVersions": "syngo MR B19",
  "SpacingBetweenSlices": 2,
  "StationName": "MRC35450",
  "TaskName": "cpro",
  "TotalReadoutTime": 0.0710717,
  "TxRefAmp": 406.306,
  "dcmmeta_affine": [
    [-2.0, 0.0, 0.0, 103.32203674316406],
    [0.0, 1.8999440670013428, -0.6246698498725891, -70.30490112304688],
    [0.0, 0.6246698498725891, 1.8999441862106323, -136.6524200439453],
    [0.0, 0.0, 0.0, 1.0]
],
  "dcmmeta_reorient_transform": [
    [0.0, -1.0, 0.0, 103.0],
    [1.0, 0.0, 0.0, 0.0],
    [0.0, 0.0, 1.0, 0.0],
    [0.0, 0.0, 0.0, 1.0]
],
  "dcmmeta_shape": [104, 104, 72, 581],
  "dcmmeta_slice_dim": 2,
  "dcmmeta_version": 0.6,
  "global": {
    "const": {
      "AcquisitionMatrix": [104, 0, 0, 104],
      "AngioFlag": "N",
      "BitsAllocated": 16,
      "BitsStored": 12,
      "Columns": 936,
      "EchoNumbers": 1,
      "EchoTime": 34.8,
      "EchoTrainLength": 1,
      "FlipAngle": 55.0,
      "HighBit": 11,
      "ImageOrientationPatient": [1.0, 0.0, 0.0, 0.0, 0.94997205164204, -0.3123349181552],
      "ImagePositionPatient": [-935.32203388214, -915.76608543888, 187.55121764621],
      "ImageType": [
        "ORIGINAL",
        "PRIMARY",
        "M",
        "MB",
        "ND",
        "MOSAIC"
],
      "ImagedNucleus": "1H",
      "ImagingFrequency": 123.234496,
      "InPlanePhaseEncodingDirection": "COL",
      "MRAcquisitionType": "2D",
      "MagneticFieldStrength": 3.0,
      "Manufacturer": "SIEMENS",
      "ManufacturerModelName": "TrioTim",
      "Modality": "MR",
      "NumberOfAverages": 1.0,
      "NumberOfPhaseEncodingSteps": 91,
      "PercentPhaseFieldOfView": 100.0,
      "PercentSampling": 100.0,
      "PerformedProcedureStepStartTime": "101140.109000",
      "PhotometricInterpretation": "MONOCHROME2",
      "PixelBandwidth": 1923.0,
      "PixelRepresentation": 0,
      "PixelSpacing": [2.0, 2.0],
      "ProtocolName": "cmrr_mbep2d_bold_2mm_MB8_Task_8x",
      "RepetitionTime": 785.0,
      "Rows": 936,
      "SAR": 0.17303574200133,
      "SamplesPerPixel": 1,
      "ScanOptions": [
        "PFP",
        "FS"
],
      "ScanningSequence": "EP",
      "SequenceName": "epfid2d1_104",
      "SequenceVariant": [
        "SK",
        "SS"
],
      "SeriesDescription": "cmrr_mbep2d_bold_2mm_MB8_Task_8x",
      "SeriesNumber": 17,
      "SeriesTime": "113309.781000",
      "SliceLocation": -107.85731032954,
      "SliceThickness": 2.0,
      "SmallestImagePixelValue": 0,
      "SoftwareVersions": "syngo MR B19",
      "SpacingBetweenSlices": 2.0000000402544,
      "SpecificCharacterSet": "ISO_IR 100",
      "StudyID": "1",
      "StudyTime": "101140.078000",
      "TransmitCoilName": "Body",
      "VariableFlipAngleFlag": "N",
      "WindowCenterWidthExplanation": "Algo1",
      "dBdt": 0.0},
    "slices": {}
  },
  "time": {
    "samples": {
      "AcquisitionNumber": [1, 2, 3, 4, 5, 6, 7, 8, 9, 10, 11, 12, 13, 14, 15, 16, 17, 18, 19, 20, 21, 22, 23, 24, 25, 26, 27, 28, 29, 30, 31, 32, 33, 34, 35, 36, 37, 38, 39, 40, 41, 42, 43, 44, 45, 46, 47, 48, 49, 50, 51, 52, 53, 54, 55, 56, 57, 58, 59, 60, 61, 62, 63, 64, 65, 66, 67, 68, 69, 70, 71, 72, 73, 74, 75, 76, 77, 78, 79, 80, 81, 82, 83, 84, 85, 86, 87, 88, 89, 90, 91, 92, 93, 94, 95, 96, 97, 98, 99, 100, 101, 102, 103, 104, 105, 106, 107, 108, 109, 110, 111, 112, 113, 114, 115, 116, 117, 118, 119, 120, 121, 122, 123, 124, 125, 126, 127, 128, 129, 130, 131, 132, 133, 134, 135, 136, 137, 138, 139, 140, 141, 142, 143, 144, 145, 146, 147, 148, 149, 150, 151, 152, 153, 154, 155, 156, 157, 158, 159, 160, 161, 162, 163, 164, 165, 166, 167, 168, 169, 170, 171, 172, 173, 174, 175, 176, 177, 178, 179, 180, 181, 182, 183, 184, 185, 186, 187, 188, 189, 190, 191, 192, 193, 194, 195, 196, 197, 198, 199, 200, 201, 202, 203, 204, 205, 206, 207, 208, 209, 210, 211, 212, 213, 214, 215, 216, 217, 218, 219, 220, 221, 222, 223, 224, 225, 226, 227, 228, 229, 230, 231, 232, 233, 234, 235, 236, 237, 238, 239, 240, 241, 242, 243, 244, 245, 246, 247, 248, 249, 250, 251, 252, 253, 254, 255, 256, 257, 258, 259, 260, 261, 262, 263, 264, 265, 266, 267, 268, 269, 270, 271, 272, 273, 274, 275, 276, 277, 278, 279, 280, 281, 282, 283, 284, 285, 286, 287, 288, 289, 290, 291, 292, 293, 294, 295, 296, 297, 298, 299, 300, 301, 302, 303, 304, 305, 306, 307, 308, 309, 310, 311, 312, 313, 314, 315, 316, 317, 318, 319, 320, 321, 322, 323, 324, 325, 326, 327, 328, 329, 330, 331, 332, 333, 334, 335, 336, 337, 338, 339, 340, 341, 342, 343, 344, 345, 346, 347, 348, 349, 350, 351, 352, 353, 354, 355, 356, 357, 358, 359, 360, 361, 362, 363, 364, 365, 366, 367, 368, 369, 370, 371, 372, 373, 374, 375, 376, 377, 378, 379, 380, 381, 382, 383, 384, 385, 386, 387, 388, 389, 390, 391, 392, 393, 394, 395, 396, 397, 398, 399, 400, 401, 402, 403, 404, 405, 406, 407, 408, 409, 410, 411, 412, 413, 414, 415, 416, 417, 418, 419, 420, 421, 422, 423, 424, 425, 426, 427, 428, 429, 430, 431, 432, 433, 434, 435, 436, 437, 438, 439, 440, 441, 442, 443, 444, 445, 446, 447, 448, 449, 450, 451, 452, 453, 454, 455, 456, 457, 458, 459, 460, 461, 462, 463, 464, 465, 466, 467, 468, 469, 470, 471, 472, 473, 474, 475, 476, 477, 478, 479, 480, 481, 482, 483, 484, 485, 486, 487, 488, 489, 490, 491, 492, 493, 494, 495, 496, 497, 498, 499, 500, 501, 502, 503, 504, 505, 506, 507, 508, 509, 510, 511, 512, 513, 514, 515, 516, 517, 518, 519, 520, 521, 522, 523, 524, 525, 526, 527, 528, 529, 530, 531, 532, 533, 534, 535, 536, 537, 538, 539, 540, 541, 542, 543, 544, 545, 546, 547, 548, 549, 550, 551, 552, 553, 554, 555, 556, 557, 558, 559, 560, 561, 562, 563, 564, 565, 566, 567, 568, 569, 570, 571, 572, 573, 574, 575, 576, 577, 578, 579, 580, 581],
      "AcquisitionTime": ["113232.722500", "113233.512500", "113234.300000", "113235.087500", "113235.875000", "113236.665000", "113237.452500", "113238.240000", "113239.027500", "113239.817500", "113240.605000", "113241.392500", "113242.180000", "113242.970000", "113243.757500", "113244.545000", "113245.332500", "113246.122500", "113246.910000", "113247.697500", "113248.487500", "113249.275000", "113250.062500", "113250.850000", "113251.640000", "113252.427500", "113253.215000", "113254.002500", "113254.792500", "113255.580000", "113256.367500", "113257.155000", "113257.945000", "113258.732500", "113259.520000", "113300.307500", "113301.097500", "113301.885000", "113302.672500", "113303.462500", "113304.250000", "113305.037500", "113305.825000", "113306.615000", "113307.402500", "113308.190000", "113308.977500", "113309.767500", "113310.555000", "113311.342500", "113312.130000", "113312.920000", "113313.707500", "113314.495000", "113315.282500", "113316.072500", "113316.860000", "113317.647500", "113318.435000", "113319.225000", "113320.012500", "113320.800000", "113321.590000", "113322.377500", "113323.165000", "113323.952500", "113324.742500", "113325.530000", "113326.317500", "113327.105000", "113327.895000", "113328.682500", "113329.470000", "113330.257500", "113331.047500", "113331.835000", "113332.622500", "113333.410000", "113334.200000", "113334.987500", "113335.775000", "113336.562500", "113337.352500", "113338.140000", "113338.927500", "113339.717500", "113340.505000", "113341.292500", "113342.080000", "113342.870000", "113343.657500", "113344.445000", "113345.232500", "113346.022500", "113346.810000", "113347.597500", "113348.385000", "113349.175000", "113349.962500", "113350.750000", "113351.537500", "113352.327500", "113353.115000", "113353.902500", "113354.690000", "113355.480000", "113356.267500", "113357.055000", "113357.845000", "113358.632500", "113359.420000", "113400.207500", "113400.997500", "113401.785000", "113402.572500", "113403.360000", "113404.150000", "113404.937500", "113405.725000", "113406.512500", "113407.302500", "113408.090000", "113408.877500", "113409.665000", "113410.455000", "113411.242500", "113412.030000", "113412.817500", "113413.607500", "113414.395000", "113415.182500", "113415.972500", "113416.760000", "113417.547500", "113418.335000", "113419.125000", "113419.912500", "113420.700000", "113421.487500", "113422.277500", "113423.065000", "113423.852500", "113424.640000", "113425.430000", "113426.217500", "113427.005000", "113427.792500", "113428.582500", "113429.370000", "113430.157500", "113430.945000", "113431.735000", "113432.522500", "113433.310000", "113434.100000", "113434.887500", "113435.675000", "113436.462500", "113437.252500", "113438.040000", "113438.827500", "113439.615000", "113440.405000", "113441.192500", "113441.980000", "113442.767500", "113443.557500", "113444.345000", "113445.132500", "113445.920000", "113446.710000", "113447.497500", "113448.285000", "113449.072500", "113449.862500", "113450.650000", "113451.437500", "113452.227500", "113453.015000", "113453.802500", "113454.590000", "113455.380000", "113456.167500", "113456.955000", "113457.742500", "113458.532500", "113459.320000", "113500.107500", "113500.895000", "113501.685000", "113502.472500", "113503.260000", "113504.047500", "113504.837500", "113505.625000", "113506.412500", "113507.200000", "113507.990000", "113508.777500", "113509.565000", "113510.355000", "113511.142500", "113511.930000", "113512.717500", "113513.507500", "113514.295000", "113515.082500", "113515.870000", "113516.660000", "113517.447500", "113518.235000", "113519.022500", "113519.812500", "113520.600000", "113521.387500", "113522.175000", "113522.965000", "113523.752500", "113524.540000", "113525.327500", "113526.117500", "113526.905000", "113527.692500", "113528.482500", "113529.270000", "113530.057500", "113530.845000", "113531.635000", "113532.422500", "113533.210000", "113533.997500", "113534.787500", "113535.575000", "113536.362500", "113537.150000", "113537.940000", "113538.727500", "113539.515000", "113540.302500", "113541.092500", "113541.880000", "113542.667500", "113543.455000", "113544.245000", "113545.032500", "113545.820000", "113546.610000", "113547.397500", "113548.185000", "113548.972500", "113549.762500", "113550.550000", "113551.337500", "113552.125000", "113552.915000", "113553.702500", "113554.490000", "113555.277500", "113556.067500", "113556.855000", "113557.642500", "113558.430000", "113559.220000", "113600.007500", "113600.795000", "113601.582500", "113602.372500", "113603.160000", "113603.947500", "113604.737500", "113605.525000", "113606.312500", "113607.100000", "113607.890000", "113608.677500", "113609.465000", "113610.252500", "113611.042500", "113611.830000", "113612.617500", "113613.405000", "113614.195000", "113614.982500", "113615.770000", "113616.557500", "113617.347500", "113618.135000", "113618.922500", "113619.712500", "113620.500000", "113621.287500", "113622.075000", "113622.865000", "113623.652500", "113624.440000", "113625.227500", "113626.017500", "113626.805000", "113627.592500", "113628.380000", "113629.170000", "113629.957500", "113630.745000", "113631.532500", "113632.322500", "113633.110000", "113633.897500", "113634.685000", "113635.475000", "113636.262500", "113637.050000", "113637.840000", "113638.627500", "113639.415000", "113640.202500", "113640.992500", "113641.780000", "113642.567500", "113643.355000", "113644.145000", "113644.932500", "113645.720000", "113646.507500", "113647.297500", "113648.085000", "113648.872500", "113649.660000", "113650.450000", "113651.237500", "113652.025000", "113652.812500", "113653.602500", "113654.390000", "113655.177500", "113655.967500", "113656.755000", "113657.542500", "113658.330000", "113659.120000", "113659.907500", "113700.695000", "113701.482500", "113702.272500", "113703.060000", "113703.847500", "113704.635000", "113705.425000", "113706.212500", "113707.000000", "113707.787500", "113708.577500", "113709.365000", "113710.152500", "113710.940000", "113711.730000", "113712.517500", "113713.305000", "113714.095000", "113714.882500", "113715.670000", "113716.457500", "113717.247500", "113718.035000", "113718.822500", "113719.610000", "113720.400000", "113721.187500", "113721.975000", "113722.762500", "113723.552500", "113724.340000", "113725.127500", "113725.915000", "113726.705000", "113727.492500", "113728.280000", "113729.067500", "113729.857500", "113730.645000", "113731.432500", "113732.222500", "113733.010000", "113733.797500", "113734.585000", "113735.375000", "113736.162500", "113736.950000", "113737.737500", "113738.527500", "113739.315000", "113740.102500", "113740.890000", "113741.680000", "113742.467500", "113743.255000", "113744.042500", "113744.832500", "113745.620000", "113746.407500", "113747.195000", "113747.985000", "113748.772500", "113749.560000", "113750.350000", "113751.137500", "113751.925000", "113752.712500", "113753.502500", "113754.290000", "113755.077500", "113755.865000", "113756.655000", "113757.442500", "113758.230000", "113759.017500", "113759.807500", "113800.595000", "113801.382500", "113802.170000", "113802.960000", "113803.747500", "113804.535000", "113805.322500", "113806.112500", "113806.900000", "113807.687500", "113808.477500", "113809.265000", "113810.052500", "113810.840000", "113811.630000", "113812.417500", "113813.205000", "113813.992500", "113814.782500", "113815.570000", "113816.357500", "113817.145000", "113817.935000", "113818.722500", "113819.510000", "113820.297500", "113821.087500", "113821.875000", "113822.662500", "113823.450000", "113824.240000", "113825.027500", "113825.815000", "113826.605000", "113827.392500", "113828.180000", "113828.967500", "113829.757500", "113830.545000", "113831.332500", "113832.120000", "113832.910000", "113833.697500", "113834.485000", "113835.272500", "113836.062500", "113836.850000", "113837.637500", "113838.425000", "113839.215000", "113840.002500", "113840.790000", "113841.577500", "113842.367500", "113843.155000", "113843.942500", "113844.732500", "113845.520000", "113846.307500", "113847.095000", "113847.885000", "113848.672500", "113849.460000", "113850.247500", "113851.037500", "113851.825000", "113852.612500", "113853.400000", "113854.190000", "113854.977500", "113855.765000", "113856.552500", "113857.342500", "113858.130000", "113858.917500", "113859.705000", "113900.495000", "113901.282500", "113902.070000", "113902.860000", "113903.647500", "113904.435000", "113905.222500", "113906.012500", "113906.800000", "113907.587500", "113908.375000", "113909.165000", "113909.952500", "113910.740000", "113911.527500", "113912.317500", "113913.105000", "113913.892500", "113914.680000", "113915.470000", "113916.257500", "113917.045000", "113917.832500", "113918.622500", "113919.410000", "113920.197500", "113920.987500", "113921.775000", "113922.562500", "113923.350000", "113924.140000", "113924.927500", "113925.715000", "113926.502500", "113927.292500", "113928.080000", "113928.867500", "113929.655000", "113930.445000", "113931.232500", "113932.020000", "113932.807500", "113933.597500", "113934.385000", "113935.172500", "113935.962500", "113936.750000", "113937.537500", "113938.325000", "113939.115000", "113939.902500", "113940.690000", "113941.477500", "113942.267500", "113943.055000", "113943.842500", "113944.630000", "113945.420000", "113946.207500", "113946.995000", "113947.782500", "113948.572500", "113949.360000", "113950.147500", "113950.935000", "113951.725000", "113952.512500", "113953.300000", "113954.090000", "113954.877500", "113955.665000", "113956.452500", "113957.242500", "113958.030000", "113958.817500", "113959.605000", "114000.395000", "114001.182500", "114001.970000", "114002.757500", "114003.547500", "114004.335000", "114005.122500", "114005.910000", "114006.700000", "114007.487500", "114008.275000", "114009.062500", "114009.852500"],
      "ContentTime": ["113309.781000", "113309.796000", "113309.796000", "113309.796000", "113309.796000", "113309.796000", "113309.796000", "113309.796000", "113309.812000", "113309.812000", "113309.812000", "113309.812000", "113309.812000", "113309.812000", "113309.812000", "113309.812000", "113309.828000", "113309.828000", "113309.828000", "113309.828000", "113309.828000", "113309.828000", "113309.828000", "113309.828000", "113309.843000", "113309.843000", "113309.843000", "113309.843000", "113309.843000", "113309.843000", "113309.843000", "113309.859000", "113309.859000", "113309.859000", "113309.859000", "113309.859000", "113309.859000", "113309.859000", "113309.859000", "113309.875000", "113309.875000", "113309.875000", "113309.875000", "113309.875000", "113309.875000", "113329.765000", "113329.765000", "113329.765000", "113329.765000", "113329.765000", "113329.781000", "113329.781000", "113329.781000", "113329.781000", "113329.781000", "113329.781000", "113329.796000", "113329.796000", "113329.796000", "113329.796000", "113329.796000", "113329.796000", "113329.796000", "113329.796000", "113329.812000", "113329.812000", "113329.812000", "113329.812000", "113329.828000", "113329.828000", "113349.765000", "113349.765000", "113349.765000", "113349.765000", "113349.765000", "113349.781000", "113349.781000", "113349.781000", "113349.781000", "113349.781000", "113349.781000", "113349.781000", "113349.796000", "113349.796000", "113349.796000", "113349.796000", "113349.796000", "113349.796000", "113349.796000", "113349.796000", "113349.812000", "113349.812000", "113349.812000", "113349.812000", "113349.812000", "113349.812000", "113409.765000", "113409.765000", "113409.765000", "113409.765000", "113409.765000", "113409.781000", "113409.781000", "113409.781000", "113409.781000", "113409.781000", "113409.781000", "113409.781000", "113409.796000", "113409.796000", "113409.796000", "113409.796000", "113409.796000", "113409.796000", "113409.812000", "113409.812000", "113409.812000", "113409.812000", "113409.812000", "113409.812000", "113409.812000", "113429.765000", "113429.765000", "113429.765000", "113429.765000", "113429.781000", "113429.781000", "113429.781000", "113429.781000", "113429.781000", "113429.796000", "113429.796000", "113429.796000", "113429.796000", "113429.796000", "113429.796000", "113429.796000", "113429.812000", "113429.812000", "113429.812000", "113429.812000", "113429.812000", "113429.812000", "113429.812000", "113429.812000", "113429.828000", "113429.828000", "113449.765000", "113449.765000", "113449.765000", "113449.765000", "113449.781000", "113449.781000", "113449.781000", "113449.781000", "113449.781000", "113449.781000", "113449.796000", "113449.796000", "113449.796000", "113449.796000", "113449.796000", "113449.796000", "113449.796000", "113449.812000", "113449.812000", "113449.812000", "113449.812000", "113449.812000", "113449.812000", "113449.828000", "113449.828000", "113509.765000", "113509.765000", "113509.765000", "113509.765000", "113509.781000", "113509.781000", "113509.781000", "113509.781000", "113509.781000", "113509.781000", "113509.781000", "113509.781000", "113509.796000", "113509.796000", "113509.796000", "113509.796000", "113509.796000", "113509.796000", "113509.796000", "113509.812000", "113509.812000", "113509.812000", "113509.812000", "113509.812000", "113509.812000", "113509.812000", "113529.765000", "113529.765000", "113529.765000", "113529.765000", "113529.765000", "113529.781000", "113529.781000", "113529.781000", "113529.781000", "113529.781000", "113529.781000", "113529.781000", "113529.796000", "113529.796000", "113529.796000", "113529.796000", "113529.796000", "113529.796000", "113529.796000", "113529.796000", "113529.812000", "113529.812000", "113529.812000", "113529.812000", "113529.812000", "113549.765000", "113549.765000", "113549.765000", "113549.765000", "113549.781000", "113549.781000", "113549.781000", "113549.781000", "113549.781000", "113549.781000", "113549.781000", "113549.781000", "113549.796000", "113549.796000", "113549.796000", "113549.796000", "113549.796000", "113549.796000", "113549.812000", "113549.812000", "113549.812000", "113549.812000", "113549.812000", "113549.828000", "113549.828000", "113549.828000", "113609.765000", "113609.781000", "113609.781000", "113609.796000", "113609.796000", "113609.796000", "113609.796000", "113609.812000", "113609.812000", "113609.812000", "113609.812000", "113609.812000", "113609.812000", "113609.812000", "113609.828000", "113609.828000", "113609.828000", "113609.828000", "113609.828000", "113609.828000", "113609.828000", "113609.843000", "113609.843000", "113609.843000", "113609.843000", "113629.765000", "113629.765000", "113629.765000", "113629.765000", "113629.781000", "113629.781000", "113629.781000", "113629.796000", "113629.796000", "113629.796000", "113629.796000", "113629.796000", "113629.796000", "113629.796000", "113629.812000", "113629.812000", "113629.812000", "113629.812000", "113629.812000", "113629.812000", "113629.812000", "113629.812000", "113629.828000", "113629.828000", "113629.828000", "113629.828000", "113649.765000", "113649.765000", "113649.765000", "113649.765000", "113649.781000", "113649.781000", "113649.781000", "113649.781000", "113649.781000", "113649.781000", "113649.781000", "113649.781000", "113649.796000", "113649.796000", "113649.796000", "113649.796000", "113649.796000", "113649.796000", "113649.812000", "113649.812000", "113649.812000", "113649.812000", "113649.812000", "113649.812000", "113649.812000", "113709.765000", "113709.765000", "113709.765000", "113709.765000", "113709.781000", "113709.781000", "113709.781000", "113709.781000", "113709.781000", "113709.781000", "113709.781000", "113709.796000", "113709.796000", "113709.796000", "113709.796000", "113709.796000", "113709.796000", "113709.796000", "113709.812000", "113709.812000", "113709.812000", "113709.812000", "113709.812000", "113709.812000", "113709.828000", "113709.828000", "113729.765000", "113729.765000", "113729.765000", "113729.765000", "113729.781000", "113729.781000", "113729.796000", "113729.796000", "113729.796000", "113729.796000", "113729.796000", "113729.796000", "113729.796000", "113729.796000", "113729.812000", "113729.812000", "113729.812000", "113729.812000", "113729.812000", "113729.812000", "113729.812000", "113729.828000", "113729.828000", "113729.828000", "113729.828000", "113749.765000", "113749.765000", "113749.765000", "113749.765000", "113749.781000", "113749.781000", "113749.781000", "113749.781000", "113749.781000", "113749.781000", "113749.781000", "113749.781000", "113749.796000", "113749.796000", "113749.796000", "113749.796000", "113749.796000", "113749.796000", "113749.796000", "113749.812000", "113749.812000", "113749.812000", "113749.812000", "113749.812000", "113749.812000", "113809.765000", "113809.765000", "113809.765000", "113809.765000", "113809.781000", "113809.781000", "113809.781000", "113809.781000", "113809.781000", "113809.781000", "113809.781000", "113809.796000", "113809.796000", "113809.796000", "113809.796000", "113809.796000", "113809.796000", "113809.796000", "113809.796000", "113809.812000", "113809.812000", "113809.812000", "113809.812000", "113809.812000", "113809.812000", "113809.812000", "113829.765000", "113829.765000", "113829.765000", "113829.765000", "113829.781000", "113829.781000", "113829.781000", "113829.781000", "113829.781000", "113829.781000", "113829.781000", "113829.796000", "113829.796000", "113829.796000", "113829.796000", "113829.796000", "113829.796000", "113829.796000", "113829.812000", "113829.812000", "113829.812000", "113829.812000", "113829.812000", "113829.812000", "113829.812000", "113849.765000", "113849.765000", "113849.765000", "113849.765000", "113849.781000", "113849.781000", "113849.781000", "113849.781000", "113849.796000", "113849.796000", "113849.796000", "113849.796000", "113849.796000", "113849.812000", "113849.812000", "113849.812000", "113849.812000", "113849.812000", "113849.812000", "113849.812000", "113849.828000", "113849.828000", "113849.828000", "113849.828000", "113849.828000", "113849.828000", "113909.765000", "113909.765000", "113909.765000", "113909.765000", "113909.781000", "113909.781000", "113909.781000", "113909.781000", "113909.781000", "113909.781000", "113909.781000", "113909.781000", "113909.796000", "113909.796000", "113909.796000", "113909.796000", "113909.796000", "113909.812000", "113909.812000", "113909.812000", "113909.812000", "113909.812000", "113909.812000", "113909.812000", "113909.828000", "113929.765000", "113929.765000", "113929.765000", "113929.765000", "113929.781000", "113929.781000", "113929.781000", "113929.781000", "113929.781000", "113929.781000", "113929.781000", "113929.781000", "113929.796000", "113929.796000", "113929.796000", "113929.796000", "113929.796000", "113929.812000", "113929.812000", "113929.812000", "113929.812000", "113929.812000", "113929.828000", "113929.828000", "113929.828000", "113929.828000", "113949.765000", "113949.765000", "113949.765000", "113949.765000", "113949.781000", "113949.781000", "113949.781000", "113949.781000", "113949.781000", "113949.781000", "113949.796000", "113949.796000", "113949.796000", "113949.796000", "113949.796000", "113949.796000", "113949.812000", "113949.812000", "113949.812000", "113949.812000", "113949.812000", "113949.812000", "113949.812000", "113949.828000", "113949.828000", "114009.765000", "114009.765000", "114009.765000", "114009.765000", "114009.781000", "114009.781000", "114009.781000", "114009.781000", "114009.781000", "114009.781000", "114009.796000", "114009.796000", "114009.796000", "114009.796000", "114009.812000", "114009.812000", "114009.812000", "114009.812000", "114009.812000", "114009.812000", "114009.828000", "114009.828000", "114009.828000", "114009.828000", "114009.828000", "114009.828000", "114010.390000"],
