{
  "AcquisitionMatrixPE": 104,
  "AcquisitionNumber": 1,
  "AcquisitionTime": "10:52:49.662500",
  "BandwidthPerPixelPhaseEncode": 13.935,
  "BaseResolution": 104,
  "CoilString": "C:HEA;HEP",
  "ConversionSoftware": "dcm2niix",
  "ConversionSoftwareVersion": "v1.0.20210317",
  "DerivedVendorReportedEchoSpacing": 0.000690017,
  "DeviceSerialNumber": "35450",
  "DwellTime": 2.5e-06,
  "EchoTime": 0.0348,
  "EffectiveEchoSpacing": 0.000690017,
  "FlipAngle": 55,
  "ImageComments": "Unaliased MB8/PE3 (remote)",
  "ImageOrientationPatientDICOM": [1, 0, 0, 0, 0.949972, -0.312335],
  "ImageType": [
    "ORIGINAL",
    "PRIMARY",
    "M",
    "MB",
    "ND",
    "MOSAIC"
],
  "ImagingFrequency": 123.234,
  "InPlanePhaseEncodingDirectionDICOM": "COL",
  "InstitutionAddress": "Univeristy Ave. 197,Newark,North East,US,07102-1814",
  "InstitutionName": "RUBIC",
  "InstitutionalDepartmentName": "Department",
  "MRAcquisitionType": "2D",
  "MagneticFieldStrength": 3,
  "Manufacturer": "Siemens",
  "ManufacturersModelName": "TrioTim",
  "Modality": "MR",
  "MultibandAccelerationFactor": 8,
  "PartialFourier": 0.875,
  "PatientPosition": "HFS",
  "PercentPhaseFOV": 100,
  "PercentSampling": 100,
  "PhaseEncodingDirection": "j-",
  "PhaseEncodingSteps": 91,
  "PhaseResolution": 1,
  "PixelBandwidth": 1923,
  "ProcedureStepDescription": "Cole^Michael",
  "ProtocolName": "cmrr_mbep2d_bold_2mm_MB8_Rest",
  "PulseSequenceDetails": "%CustomerSeq%\\cmrr_mbep2d_bold",
  "ReceiveCoilName": "32Ch_Head",
  "ReconMatrixPE": 104,
  "RepetitionTime": 0.785,
  "SAR": 0.172966,
  "ScanOptions": "PFP\\FS",
  "ScanningSequence": "EP",
  "SequenceName": "epfid2d1_104",
  "SequenceVariant": "SK\\SS",
  "SeriesDescription": "cmrr_mbep2d_bold_2mm_MB8_Rest",
  "SeriesNumber": 9,
  "ShimSetting": [2095, -327, -7234, 340, 86, -805, -102, 83],
  "SliceThickness": 2,
  "SliceTiming": [0, 0.4375, 0.0875, 0.525, 0.175, 0.6125, 0.2625, 0.7, 0.35, 0, 0.4375, 0.0875, 0.525, 0.175, 0.6125, 0.2625, 0.7, 0.35, 0, 0.4375, 0.0875, 0.525, 0.175, 0.6125, 0.2625, 0.7, 0.35, 0, 0.4375, 0.0875, 0.525, 0.175, 0.6125, 0.2625, 0.7, 0.35, 0, 0.4375, 0.0875, 0.525, 0.175, 0.6125, 0.2625, 0.7, 0.35, 0, 0.4375, 0.0875, 0.525, 0.175, 0.6125, 0.2625, 0.7, 0.35, 0, 0.4375, 0.0875, 0.525, 0.175, 0.6125, 0.2625, 0.7, 0.35, 0, 0.4375, 0.0875, 0.525, 0.175, 0.6125, 0.2625, 0.7, 0.35],
  "SoftwareVersions": "syngo MR B19",
  "SpacingBetweenSlices": 2,
  "StationName": "MRC35450",
  "TaskName": "rest",
  "TotalReadoutTime": 0.0710717,
  "TxRefAmp": 406.306,
  "dcmmeta_affine": [
    [-2.0, 0.0, 0.0, 103.32203674316406],
    [0.0, 1.8999440670013428, -0.6246698498725891, -70.30490112304688],
    [0.0, 0.6246698498725891, 1.8999441862106323, -136.6524200439453],
    [0.0, 0.0, 0.0, 1.0]
],
  "dcmmeta_reorient_transform": [
    [0.0, -1.0, 0.0, 103.0],
    [1.0, 0.0, 0.0, 0.0],
    [0.0, 0.0, 1.0, 0.0],
    [0.0, 0.0, 0.0, 1.0]
],
  "dcmmeta_shape": [104, 104, 72, 1070],
  "dcmmeta_slice_dim": 2,
  "dcmmeta_version": 0.6,
  "global": {
    "const": {
      "AcquisitionMatrix": [104, 0, 0, 104],
      "AngioFlag": "N",
      "BitsAllocated": 16,
      "BitsStored": 12,
      "Columns": 936,
      "EchoNumbers": 1,
      "EchoTime": 34.8,
      "EchoTrainLength": 1,
      "FlipAngle": 55.0,
      "HighBit": 11,
      "ImageOrientationPatient": [1.0, 0.0, 0.0, 0.0, 0.94997205164204, -0.3123349181552],
      "ImagePositionPatient": [-935.32203388214, -915.76608543888, 187.55121764621],
      "ImageType": [
        "ORIGINAL",
        "PRIMARY",
        "M",
        "MB",
        "ND",
        "MOSAIC"
],
      "ImagedNucleus": "1H",
      "ImagingFrequency": 123.234441,
      "InPlanePhaseEncodingDirection": "COL",
      "MRAcquisitionType": "2D",
      "MagneticFieldStrength": 3.0,
      "Manufacturer": "SIEMENS",
      "ManufacturerModelName": "TrioTim",
      "Modality": "MR",
      "NumberOfAverages": 1.0,
      "NumberOfPhaseEncodingSteps": 91,
      "PercentPhaseFieldOfView": 100.0,
      "PercentSampling": 100.0,
      "PerformedProcedureStepStartTime": "101140.109000",
      "PhotometricInterpretation": "MONOCHROME2",
      "PixelBandwidth": 1923.0,
      "PixelRepresentation": 0,
      "PixelSpacing": [2.0, 2.0],
      "ProtocolName": "cmrr_mbep2d_bold_2mm_MB8_Rest",
      "RepetitionTime": 785.0,
      "Rows": 936,
      "SAR": 0.17296608655718,
      "SamplesPerPixel": 1,
      "ScanOptions": [
        "PFP",
        "FS"
],
      "ScanningSequence": "EP",
      "SequenceName": "epfid2d1_104",
      "SequenceVariant": [
        "SK",
        "SS"
],
      "SeriesDescription": "cmrr_mbep2d_bold_2mm_MB8_Rest",
      "SeriesNumber": 9,
      "SeriesTime": "105309.796000",
      "SliceLocation": -107.85731032954,
      "SliceThickness": 2.0,
      "SmallestImagePixelValue": 0,
      "SoftwareVersions": "syngo MR B19",
      "SpacingBetweenSlices": 2.0000000402544,
      "SpecificCharacterSet": "ISO_IR 100",
      "StudyID": "1",
      "StudyTime": "101140.078000",
      "TransmitCoilName": "Body",
      "VariableFlipAngleFlag": "N",
      "WindowCenterWidthExplanation": "Algo1",
      "dBdt": 0.0},
    "slices": {}
  },
  "time": {
    "samples": {
      "AcquisitionNumber": [1, 2, 3, 4, 5, 6, 7, 8, 9, 10, 11, 12, 13, 14, 15, 16, 17, 18, 19, 20, 21, 22, 23, 24, 25, 26, 27, 28, 29, 30, 31, 32, 33, 34, 35, 36, 37, 38, 39, 40, 41, 42, 43, 44, 45, 46, 47, 48, 49, 50, 51, 52, 53, 54, 55, 56, 57, 58, 59, 60, 61, 62, 63, 64, 65, 66, 67, 68, 69, 70, 71, 72, 73, 74, 75, 76, 77, 78, 79, 80, 81, 82, 83, 84, 85, 86, 87, 88, 89, 90, 91, 92, 93, 94, 95, 96, 97, 98, 99, 100, 101, 102, 103, 104, 105, 106, 107, 108, 109, 110, 111, 112, 113, 114, 115, 116, 117, 118, 119, 120, 121, 122, 123, 124, 125, 126, 127, 128, 129, 130, 131, 132, 133, 134, 135, 136, 137, 138, 139, 140, 141, 142, 143, 144, 145, 146, 147, 148, 149, 150, 151, 152, 153, 154, 155, 156, 157, 158, 159, 160, 161, 162, 163, 164, 165, 166, 167, 168, 169, 170, 171, 172, 173, 174, 175, 176, 177, 178, 179, 180, 181, 182, 183, 184, 185, 186, 187, 188, 189, 190, 191, 192, 193, 194, 195, 196, 197, 198, 199, 200, 201, 202, 203, 204, 205, 206, 207, 208, 209, 210, 211, 212, 213, 214, 215, 216, 217, 218, 219, 220, 221, 222, 223, 224, 225, 226, 227, 228, 229, 230, 231, 232, 233, 234, 235, 236, 237, 238, 239, 240, 241, 242, 243, 244, 245, 246, 247, 248, 249, 250, 251, 252, 253, 254, 255, 256, 257, 258, 259, 260, 261, 262, 263, 264, 265, 266, 267, 268, 269, 270, 271, 272, 273, 274, 275, 276, 277, 278, 279, 280, 281, 282, 283, 284, 285, 286, 287, 288, 289, 290, 291, 292, 293, 294, 295, 296, 297, 298, 299, 300, 301, 302, 303, 304, 305, 306, 307, 308, 309, 310, 311, 312, 313, 314, 315, 316, 317, 318, 319, 320, 321, 322, 323, 324, 325, 326, 327, 328, 329, 330, 331, 332, 333, 334, 335, 336, 337, 338, 339, 340, 341, 342, 343, 344, 345, 346, 347, 348, 349, 350, 351, 352, 353, 354, 355, 356, 357, 358, 359, 360, 361, 362, 363, 364, 365, 366, 367, 368, 369, 370, 371, 372, 373, 374, 375, 376, 377, 378, 379, 380, 381, 382, 383, 384, 385, 386, 387, 388, 389, 390, 391, 392, 393, 394, 395, 396, 397, 398, 399, 400, 401, 402, 403, 404, 405, 406, 407, 408, 409, 410, 411, 412, 413, 414, 415, 416, 417, 418, 419, 420, 421, 422, 423, 424, 425, 426, 427, 428, 429, 430, 431, 432, 433, 434, 435, 436, 437, 438, 439, 440, 441, 442, 443, 444, 445, 446, 447, 448, 449, 450, 451, 452, 453, 454, 455, 456, 457, 458, 459, 460, 461, 462, 463, 464, 465, 466, 467, 468, 469, 470, 471, 472, 473, 474, 475, 476, 477, 478, 479, 480, 481, 482, 483, 484, 485, 486, 487, 488, 489, 490, 491, 492, 493, 494, 495, 496, 497, 498, 499, 500, 501, 502, 503, 504, 505, 506, 507, 508, 509, 510, 511, 512, 513, 514, 515, 516, 517, 518, 519, 520, 521, 522, 523, 524, 525, 526, 527, 528, 529, 530, 531, 532, 533, 534, 535, 536, 537, 538, 539, 540, 541, 542, 543, 544, 545, 546, 547, 548, 549, 550, 551, 552, 553, 554, 555, 556, 557, 558, 559, 560, 561, 562, 563, 564, 565, 566, 567, 568, 569, 570, 571, 572, 573, 574, 575, 576, 577, 578, 579, 580, 581, 582, 583, 584, 585, 586, 587, 588, 589, 590, 591, 592, 593, 594, 595, 596, 597, 598, 599, 600, 601, 602, 603, 604, 605, 606, 607, 608, 609, 610, 611, 612, 613, 614, 615, 616, 617, 618, 619, 620, 621, 622, 623, 624, 625, 626, 627, 628, 629, 630, 631, 632, 633, 634, 635, 636, 637, 638, 639, 640, 641, 642, 643, 644, 645, 646, 647, 648, 649, 650, 651, 652, 653, 654, 655, 656, 657, 658, 659, 660, 661, 662, 663, 664, 665, 666, 667, 668, 669, 670, 671, 672, 673, 674, 675, 676, 677, 678, 679, 680, 681, 682, 683, 684, 685, 686, 687, 688, 689, 690, 691, 692, 693, 694, 695, 696, 697, 698, 699, 700, 701, 702, 703, 704, 705, 706, 707, 708, 709, 710, 711, 712, 713, 714, 715, 716, 717, 718, 719, 720, 721, 722, 723, 724, 725, 726, 727, 728, 729, 730, 731, 732, 733, 734, 735, 736, 737, 738, 739, 740, 741, 742, 743, 744, 745, 746, 747, 748, 749, 750, 751, 752, 753, 754, 755, 756, 757, 758, 759, 760, 761, 762, 763, 764, 765, 766, 767, 768, 769, 770, 771, 772, 773, 774, 775, 776, 777, 778, 779, 780, 781, 782, 783, 784, 785, 786, 787, 788, 789, 790, 791, 792, 793, 794, 795, 796, 797, 798, 799, 800, 801, 802, 803, 804, 805, 806, 807, 808, 809, 810, 811, 812, 813, 814, 815, 816, 817, 818, 819, 820, 821, 822, 823, 824, 825, 826, 827, 828, 829, 830, 831, 832, 833, 834, 835, 836, 837, 838, 839, 840, 841, 842, 843, 844, 845, 846, 847, 848, 849, 850, 851, 852, 853, 854, 855, 856, 857, 858, 859, 860, 861, 862, 863, 864, 865, 866, 867, 868, 869, 870, 871, 872, 873, 874, 875, 876, 877, 878, 879, 880, 881, 882, 883, 884, 885, 886, 887, 888, 889, 890, 891, 892, 893, 894, 895, 896, 897, 898, 899, 900, 901, 902, 903, 904, 905, 906, 907, 908, 909, 910, 911, 912, 913, 914, 915, 916, 917, 918, 919, 920, 921, 922, 923, 924, 925, 926, 927, 928, 929, 930, 931, 932, 933, 934, 935, 936, 937, 938, 939, 940, 941, 942, 943, 944, 945, 946, 947, 948, 949, 950, 951, 952, 953, 954, 955, 956, 957, 958, 959, 960, 961, 962, 963, 964, 965, 966, 967, 968, 969, 970, 971, 972, 973, 974, 975, 976, 977, 978, 979, 980, 981, 982, 983, 984, 985, 986, 987, 988, 989, 990, 991, 992, 993, 994, 995, 996, 997, 998, 999, 1000, 1001, 1002, 1003, 1004, 1005, 1006, 1007, 1008, 1009, 1010, 1011, 1012, 1013, 1014, 1015, 1016, 1017, 1018, 1019, 1020, 1021, 1022, 1023, 1024, 1025, 1026, 1027, 1028, 1029, 1030, 1031, 1032, 1033, 1034, 1035, 1036, 1037, 1038, 1039, 1040, 1041, 1042, 1043, 1044, 1045, 1046, 1047, 1048, 1049, 1050, 1051, 1052, 1053, 1054, 1055, 1056, 1057, 1058, 1059, 1060, 1061, 1062, 1063, 1064, 1065, 1066, 1067, 1068, 1069, 1070],
      "AcquisitionTime": ["105249.662500", "105250.450000", "105251.237500", "105252.027500", "105252.815000", "105253.602500", "105254.392500", "105255.180000", "105255.967500", "105256.755000", "105257.545000", "105258.332500", "105259.120000", "105259.907500", "105300.697500", "105301.485000", "105302.272500", "105303.060000", "105303.850000", "105304.637500", "105305.425000", "105306.212500", "105307.002500", "105307.790000", "105308.577500", "105309.365000", "105310.155000", "105310.942500", "105311.730000", "105312.520000", "105313.307500", "105314.095000", "105314.882500", "105315.672500", "105316.460000", "105317.247500", "105318.035000", "105318.825000", "105319.612500", "105320.400000", "105321.187500", "105321.977500", "105322.765000", "105323.552500", "105324.340000", "105325.130000", "105325.917500", "105326.705000", "105327.492500", "105328.282500", "105329.070000", "105329.857500", "105330.647500", "105331.435000", "105332.222500", "105333.010000", "105333.800000", "105334.587500", "105335.375000", "105336.162500", "105336.952500", "105337.740000", "105338.527500", "105339.315000", "105340.105000", "105340.892500", "105341.680000", "105342.467500", "105343.257500", "105344.045000", "105344.832500", "105345.620000", "105346.410000", "105347.197500", "105347.985000", "105348.775000", "105349.562500", "105350.350000", "105351.137500", "105351.927500", "105352.715000", "105353.502500", "105354.290000", "105355.080000", "105355.867500", "105356.655000", "105357.442500", "105358.232500", "105359.020000", "105359.807500", "105400.595000", "105401.385000", "105402.172500", "105402.960000", "105403.747500", "105404.537500", "105405.325000", "105406.112500", "105406.902500", "105407.690000", "105408.477500", "105409.265000", "105410.055000", "105410.842500", "105411.630000", "105412.417500", "105413.207500", "105413.995000", "105414.782500", "105415.570000", "105416.360000", "105417.147500", "105417.935000", "105418.722500", "105419.512500", "105420.300000", "105421.087500", "105421.875000", "105422.665000", "105423.452500", "105424.240000", "105425.030000", "105425.817500", "105426.605000", "105427.392500", "105428.182500", "105428.970000", "105429.757500", "105430.545000", "105431.335000", "105432.122500", "105432.910000", "105433.697500", "105434.487500", "105435.275000", "105436.062500", "105436.850000", "105437.640000", "105438.427500", "105439.215000", "105440.002500", "105440.792500", "105441.580000", "105442.367500", "105443.157500", "105443.945000", "105444.732500", "105445.520000", "105446.310000", "105447.097500", "105447.885000", "105448.672500", "105449.462500", "105450.250000", "105451.037500", "105451.825000", "105452.615000", "105453.402500", "105454.190000", "105454.977500", "105455.767500", "105456.555000", "105457.342500", "105458.130000", "105458.920000", "105459.707500", "105500.495000", "105501.285000", "105502.072500", "105502.860000", "105503.647500", "105504.437500", "105505.225000", "105506.012500", "105506.800000", "105507.590000", "105508.377500", "105509.165000", "105509.952500", "105510.742500", "105511.530000", "105512.317500", "105513.105000", "105513.895000", "105514.682500", "105515.470000", "105516.257500", "105517.047500", "105517.835000", "105518.622500", "105519.412500", "105520.200000", "105520.987500", "105521.775000", "105522.565000", "105523.352500", "105524.140000", "105524.927500", "105525.717500", "105526.505000", "105527.292500", "105528.080000", "105528.870000", "105529.657500", "105530.445000", "105531.232500", "105532.022500", "105532.810000", "105533.597500", "105534.387500", "105535.175000", "105535.962500", "105536.750000", "105537.540000", "105538.327500", "105539.115000", "105539.902500", "105540.692500", "105541.480000", "105542.267500", "105543.055000", "105543.845000", "105544.632500", "105545.420000", "105546.207500", "105546.997500", "105547.785000", "105548.572500", "105549.360000", "105550.150000", "105550.937500", "105551.725000", "105552.515000", "105553.302500", "105554.090000", "105554.877500", "105555.667500", "105556.455000", "105557.242500", "105558.030000", "105558.820000", "105559.607500", "105600.395000", "105601.182500", "105601.972500", "105602.760000", "105603.547500", "105604.335000", "105605.125000", "105605.912500", "105606.700000", "105607.487500", "105608.277500", "105609.065000", "105609.852500", "105610.642500", "105611.430000", "105612.217500", "105613.005000", "105613.795000", "105614.582500", "105615.370000", "105616.157500", "105616.947500", "105617.735000", "105618.522500", "105619.310000", "105620.100000", "105620.887500", "105621.675000", "105622.462500", "105623.252500", "105624.040000", "105624.827500", "105625.615000", "105626.405000", "105627.192500", "105627.980000", "105628.770000", "105629.557500", "105630.345000", "105631.132500", "105631.922500", "105632.710000", "105633.497500", "105634.285000", "105635.075000", "105635.862500", "105636.650000", "105637.437500", "105638.227500", "105639.015000", "105639.802500", "105640.590000", "105641.380000", "105642.167500", "105642.955000", "105643.742500", "105644.532500", "105645.320000", "105646.107500", "105646.897500", "105647.685000", "105648.472500", "105649.260000", "105650.050000", "105650.837500", "105651.625000", "105652.412500", "105653.202500", "105653.990000", "105654.777500", "105655.565000", "105656.355000", "105657.142500", "105657.930000", "105658.717500", "105659.507500", "105700.295000", "105701.082500", "105701.870000", "105702.660000", "105703.447500", "105704.235000", "105705.025000", "105705.812500", "105706.600000", "105707.387500", "105708.177500", "105708.965000", "105709.752500", "105710.540000", "105711.330000", "105712.117500", "105712.905000", "105713.692500", "105714.482500", "105715.270000", "105716.057500", "105716.845000", "105717.635000", "105718.422500", "105719.210000", "105719.997500", "105720.787500", "105721.575000", "105722.362500", "105723.152500", "105723.940000", "105724.727500", "105725.515000", "105726.305000", "105727.092500", "105727.880000", "105728.667500", "105729.457500", "105730.245000", "105731.032500", "105731.820000", "105732.610000", "105733.397500", "105734.185000", "105734.972500", "105735.762500", "105736.550000", "105737.337500", "105738.125000", "105738.915000", "105739.702500", "105740.490000", "105741.280000", "105742.067500", "105742.855000", "105743.642500", "105744.432500", "105745.220000", "105746.007500", "105746.795000", "105747.585000", "105748.372500", "105749.160000", "105749.947500", "105750.737500", "105751.525000", "105752.312500", "105753.100000", "105753.890000", "105754.677500", "105755.465000", "105756.252500", "105757.042500", "105757.830000", "105758.617500", "105759.407500", "105800.195000", "105800.982500", "105801.770000", "105802.560000", "105803.347500", "105804.135000", "105804.922500", "105805.712500", "105806.500000", "105807.287500", "105808.075000", "105808.865000", "105809.652500", "105810.440000", "105811.227500", "105812.017500", "105812.805000", "105813.592500", "105814.380000", "105815.170000", "105815.957500", "105816.745000", "105817.535000", "105818.322500", "105819.110000", "105819.897500", "105820.687500", "105821.475000", "105822.262500", "105823.050000", "105823.840000", "105824.627500", "105825.415000", "105826.202500", "105826.992500", "105827.780000", "105828.567500", "105829.355000", "105830.145000", "105830.932500", "105831.720000", "105832.507500", "105833.297500", "105834.085000", "105834.872500", "105835.662500", "105836.450000", "105837.237500", "105838.025000", "105838.815000", "105839.602500", "105840.390000", "105841.177500", "105841.967500", "105842.755000", "105843.542500", "105844.330000", "105845.120000", "105845.907500", "105846.695000", "105847.482500", "105848.272500", "105849.060000", "105849.847500", "105850.637500", "105851.425000", "105852.212500", "105853.000000", "105853.790000", "105854.577500", "105855.365000", "105856.152500", "105856.942500", "105857.730000", "105858.517500", "105859.305000", "105900.095000", "105900.882500", "105901.670000", "105902.457500", "105903.247500", "105904.035000", "105904.822500", "105905.610000", "105906.400000", "105907.187500", "105907.975000", "105908.765000", "105909.552500", "105910.340000", "105911.127500", "105911.917500", "105912.705000", "105913.492500", "105914.280000", "105915.070000", "105915.857500", "105916.645000", "105917.432500", "105918.222500", "105919.010000", "105919.797500", "105920.585000", "105921.375000", "105922.162500", "105922.950000", "105923.737500", "105924.527500", "105925.315000", "105926.102500", "105926.892500", "105927.680000", "105928.467500", "105929.255000", "105930.045000", "105930.832500", "105931.620000", "105932.407500", "105933.197500", "105933.985000", "105934.772500", "105935.560000", "105936.350000", "105937.137500", "105937.925000", "105938.712500", "105939.502500", "105940.290000", "105941.077500", "105941.865000", "105942.655000", "105943.442500", "105944.230000", "105945.020000", "105945.807500", "105946.595000", "105947.382500", "105948.172500", "105948.960000", "105949.747500", "105950.535000", "105951.325000", "105952.112500", "105952.900000", "105953.687500", "105954.477500", "105955.265000", "105956.052500", "105956.840000", "105957.630000", "105958.417500", "105959.205000", "105959.992500", "110000.782500", "110001.570000", "110002.357500", "110003.147500", "110003.935000", "110004.722500", "110005.510000", "110006.300000", "110007.087500", "110007.875000", "110008.662500", "110009.452500", "110010.240000", "110011.027500", "110011.815000", "110012.605000", "110013.392500", "110014.180000", "110014.967500", "110015.757500", "110016.545000", "110017.332500", "110018.120000", "110018.910000", "110019.697500", "110020.485000", "110021.275000", "110022.062500", "110022.850000", "110023.637500", "110024.427500", "110025.215000", "110026.002500", "110026.790000", "110027.580000", "110028.367500", "110029.155000", "110029.942500", "110030.732500", "110031.520000", "110032.307500", "110033.095000", "110033.885000", "110034.672500", "110035.460000", "110036.247500", "110037.037500", "110037.825000", "110038.612500", "110039.402500", "110040.190000", "110040.977500", "110041.765000", "110042.555000", "110043.342500", "110044.130000", "110044.917500", "110045.707500", "110046.495000", "110047.282500", "110048.070000", "110048.860000", "110049.647500", "110050.435000", "110051.222500", "110052.012500", "110052.800000", "110053.587500", "110054.375000", "110055.165000", "110055.952500", "110056.740000", "110057.530000", "110058.317500", "110059.105000", "110059.892500", "110100.682500", "110101.470000", "110102.257500", "110103.045000", "110103.835000", "110104.622500", "110105.410000", "110106.197500", "110106.987500", "110107.775000", "110108.562500", "110109.350000", "110110.140000", "110110.927500", "110111.715000", "110112.502500", "110113.292500", "110114.080000", "110114.867500", "110115.657500", "110116.445000", "110117.232500", "110118.020000", "110118.810000", "110119.597500", "110120.385000", "110121.172500", "110121.962500", "110122.750000", "110123.537500", "110124.325000", "110125.115000", "110125.902500", "110126.690000", "110127.477500", "110128.267500", "110129.055000", "110129.842500", "110130.630000", "110131.420000", "110132.207500", "110132.995000", "110133.785000", "110134.572500", "110135.360000", "110136.147500", "110136.937500", "110137.725000", "110138.512500", "110139.300000", "110140.090000", "110140.877500", "110141.665000", "110142.452500", "110143.242500", "110144.030000", "110144.817500", "110145.605000", "110146.395000", "110147.182500", "110147.970000", "110148.757500", "110149.547500", "110150.335000", "110151.122500", "110151.912500", "110152.700000", "110153.487500", "110154.275000", "110155.065000", "110155.852500", "110156.640000", "110157.427500", "110158.217500", "110159.005000", "110159.792500", "110200.580000", "110201.370000", "110202.157500", "110202.945000", "110203.732500", "110204.522500", "110205.310000", "110206.097500", "110206.887500", "110207.675000", "110208.462500", "110209.250000", "110210.040000", "110210.827500", "110211.615000", "110212.402500", "110213.192500", "110213.980000", "110214.767500", "110215.555000", "110216.345000", "110217.132500", "110217.920000", "110218.707500", "110219.497500", "110220.285000", "110221.072500", "110221.860000", "110222.650000", "110223.437500", "110224.225000", "110225.015000", "110225.802500", "110226.590000", "110227.377500", "110228.167500", "110228.955000", "110229.742500", "110230.530000", "110231.320000", "110232.107500", "110232.895000", "110233.682500", "110234.472500", "110235.260000", "110236.047500", "110236.835000", "110237.625000", "110238.412500", "110239.200000", "110239.987500", "110240.777500", "110241.565000", "110242.352500", "110243.142500", "110243.930000", "110244.717500", "110245.505000", "110246.295000", "110247.082500", "110247.870000", "110248.657500", "110249.447500", "110250.235000", "110251.022500", "110251.810000", "110252.600000", "110253.387500", "110254.175000", "110254.962500", "110255.752500", "110256.540000", "110257.327500", "110258.115000", "110258.905000", "110259.692500", "110300.480000", "110301.270000", "110302.057500", "110302.845000", "110303.632500", "110304.422500", "110305.210000", "110305.997500", "110306.785000", "110307.575000", "110308.362500", "110309.150000", "110309.937500", "110310.727500", "110311.515000", "110312.302500", "110313.090000", "110313.880000", "110314.667500", "110315.455000", "110316.242500", "110317.032500", "110317.820000", "110318.607500", "110319.397500", "110320.185000", "110320.972500", "110321.760000", "110322.550000", "110323.337500", "110324.125000", "110324.912500", "110325.702500", "110326.490000", "110327.277500", "110328.065000", "110328.855000", "110329.642500", "110330.430000", "110331.217500", "110332.007500", "110332.795000", "110333.582500", "110334.370000", "110335.160000", "110335.947500", "110336.735000", "110337.525000", "110338.312500", "110339.100000", "110339.887500", "110340.677500", "110341.465000", "110342.252500", "110343.040000", "110343.830000", "110344.617500", "110345.405000", "110346.192500", "110346.982500", "110347.770000", "110348.557500", "110349.345000", "110350.135000", "110350.922500", "110351.710000", "110352.497500", "110353.287500", "110354.075000", "110354.862500", "110355.652500", "110356.440000", "110357.227500", "110358.015000", "110358.805000", "110359.592500", "110400.380000", "110401.167500", "110401.957500", "110402.745000", "110403.532500", "110404.320000", "110405.110000", "110405.897500", "110406.685000", "110407.472500", "110408.262500", "110409.050000", "110409.837500", "110410.625000", "110411.415000", "110412.202500", "110412.990000", "110413.780000", "110414.567500", "110415.355000", "110416.142500", "110416.932500", "110417.720000", "110418.507500", "110419.295000", "110420.085000", "110420.872500", "110421.660000", "110422.447500", "110423.237500", "110424.025000", "110424.812500", "110425.600000", "110426.390000", "110427.177500", "110427.965000", "110428.752500", "110429.542500", "110430.330000", "110431.117500", "110431.907500", "110432.695000", "110433.482500", "110434.270000", "110435.060000", "110435.847500", "110436.635000", "110437.422500", "110438.212500", "110439.000000", "110439.787500", "110440.575000", "110441.365000", "110442.152500", "110442.940000", "110443.727500", "110444.517500", "110445.305000", "110446.092500", "110446.880000", "110447.670000", "110448.457500", "110449.245000", "110450.035000", "110450.822500", "110451.610000", "110452.397500", "110453.187500", "110453.975000", "110454.762500", "110455.550000", "110456.340000", "110457.127500", "110457.915000", "110458.702500", "110459.492500", "110500.280000", "110501.067500", "110501.855000", "110502.645000", "110503.432500", "110504.220000", "110505.007500", "110505.797500", "110506.585000", "110507.372500", "110508.162500", "110508.950000", "110509.737500", "110510.525000", "110511.315000", "110512.102500", "110512.890000", "110513.677500", "110514.467500", "110515.255000", "110516.042500", "110516.830000", "110517.620000", "110518.407500", "110519.195000", "110519.982500", "110520.772500", "110521.560000", "110522.347500", "110523.137500", "110523.925000", "110524.712500", "110525.500000", "110526.290000", "110527.077500", "110527.865000", "110528.652500", "110529.442500", "110530.230000", "110531.017500", "110531.805000", "110532.595000", "110533.382500", "110534.170000", "110534.957500", "110535.747500", "110536.535000", "110537.322500", "110538.110000", "110538.900000", "110539.687500", "110540.475000", "110541.265000", "110542.052500", "110542.840000", "110543.627500", "110544.417500", "110545.205000", "110545.992500", "110546.780000", "110547.570000", "110548.357500", "110549.145000", "110549.932500", "110550.722500", "110551.510000", "110552.297500", "110553.085000", "110553.875000", "110554.662500", "110555.450000", "110556.237500", "110557.027500", "110557.815000", "110558.602500", "110559.392500", "110600.180000", "110600.967500", "110601.755000", "110602.545000", "110603.332500", "110604.120000", "110604.907500", "110605.697500", "110606.485000", "110607.272500", "110608.060000", "110608.850000", "110609.637500", "110610.425000", "110611.212500", "110612.002500", "110612.790000", "110613.577500", "110614.365000", "110615.155000", "110615.942500", "110616.730000", "110617.520000", "110618.307500", "110619.095000", "110619.882500", "110620.672500", "110621.460000", "110622.247500", "110623.035000", "110623.825000", "110624.612500", "110625.400000", "110626.187500", "110626.977500", "110627.765000", "110628.552500", "110629.340000", "110630.130000", "110630.917500", "110631.705000", "110632.492500", "110633.282500", "110634.070000", "110634.857500", "110635.647500", "110636.435000", "110637.222500", "110638.010000", "110638.800000", "110639.587500", "110640.375000", "110641.162500", "110641.952500", "110642.740000", "110643.527500", "110644.315000", "110645.105000", "110645.892500", "110646.680000", "110647.467500", "110648.257500", "110649.045000", "110649.832500", "110650.620000", "110651.410000", "110652.197500"],
