{
  "AcquisitionMatrixPE": 104,
  "AcquisitionNumber": 1,
  "AcquisitionTime": "12:04:45.717500",
  "BandwidthPerPixelPhaseEncode": 13.935,
  "BaseResolution": 104,
  "CoilString": "C:HEA;HEP",
  "ConversionSoftware": "dcm2niix",
  "ConversionSoftwareVersion": "v1.0.20210317",
  "DerivedVendorReportedEchoSpacing": 0.000690017,
  "DeviceSerialNumber": "35450",
  "DwellTime": 2.5e-06,
  "EchoTime": 0.0348,
  "EffectiveEchoSpacing": 0.000690017,
  "FlipAngle": 55,
  "ImageComments": "Unaliased MB8/PE3 (remote)",
  "ImageOrientationPatientDICOM": [1, 0, 0, 0, 0.949972, -0.312335],
  "ImageType": [
    "ORIGINAL",
    "PRIMARY",
    "M",
    "MB",
    "ND",
    "MOSAIC"
],
  "ImagingFrequency": 123.234,
  "InPlanePhaseEncodingDirectionDICOM": "COL",
  "InstitutionAddress": "Univeristy Ave. 197,Newark,North East,US,07102-1814",
  "InstitutionName": "RUBIC",
  "InstitutionalDepartmentName": "Department",
  "MRAcquisitionType": "2D",
  "MagneticFieldStrength": 3,
  "Manufacturer": "Siemens",
  "ManufacturersModelName": "TrioTim",
  "Modality": "MR",
  "MultibandAccelerationFactor": 8,
  "PartialFourier": 0.875,
  "PatientPosition": "HFS",
  "PercentPhaseFOV": 100,
  "PercentSampling": 100,
  "PhaseEncodingDirection": "j-",
  "PhaseEncodingSteps": 91,
  "PhaseResolution": 1,
  "PixelBandwidth": 1923,
  "ProcedureStepDescription": "Cole^Michael",
  "ProtocolName": "cmrr_mbep2d_bold_2mm_MB8_Task_8x",
  "PulseSequenceDetails": "%CustomerSeq%\\cmrr_mbep2d_bold",
  "ReceiveCoilName": "32Ch_Head",
  "ReconMatrixPE": 104,
  "RepetitionTime": 0.785,
  "SAR": 0.173036,
  "ScanOptions": "PFP\\FS",
  "ScanningSequence": "EP",
  "SequenceName": "epfid2d1_104",
  "SequenceVariant": "SK\\SS",
  "SeriesDescription": "cmrr_mbep2d_bold_2mm_MB8_Task_8x",
  "SeriesNumber": 25,
  "ShimSetting": [2095, -327, -7234, 340, 86, -805, -102, 83],
  "SliceThickness": 2,
  "SliceTiming": [0, 0.4375, 0.0875, 0.525, 0.175, 0.6125, 0.2625, 0.7, 0.35, 0, 0.4375, 0.0875, 0.525, 0.175, 0.6125, 0.2625, 0.7, 0.35, 0, 0.4375, 0.0875, 0.525, 0.175, 0.6125, 0.2625, 0.7, 0.35, 0, 0.4375, 0.0875, 0.525, 0.175, 0.6125, 0.2625, 0.7, 0.35, 0, 0.4375, 0.0875, 0.525, 0.175, 0.6125, 0.2625, 0.7, 0.35, 0, 0.4375, 0.0875, 0.525, 0.175, 0.6125, 0.2625, 0.7, 0.35, 0, 0.4375, 0.0875, 0.525, 0.175, 0.6125, 0.2625, 0.7, 0.35, 0, 0.4375, 0.0875, 0.525, 0.175, 0.6125, 0.2625, 0.7, 0.35],
  "SoftwareVersions": "syngo MR B19",
  "SpacingBetweenSlices": 2,
  "StationName": "MRC35450",
  "TaskName": "cpro",
  "TotalReadoutTime": 0.0710717,
  "TxRefAmp": 406.306,
  "dcmmeta_affine": [
    [-2.0, 0.0, 0.0, 103.32203674316406],
    [0.0, 1.8999440670013428, -0.6246698498725891, -70.30490112304688],
    [0.0, 0.6246698498725891, 1.8999441862106323, -136.6524200439453],
    [0.0, 0.0, 0.0, 1.0]
],
  "dcmmeta_reorient_transform": [
    [0.0, -1.0, 0.0, 103.0],
    [1.0, 0.0, 0.0, 0.0],
    [0.0, 0.0, 1.0, 0.0],
    [0.0, 0.0, 0.0, 1.0]
],
  "dcmmeta_shape": [104, 104, 72, 581],
  "dcmmeta_slice_dim": 2,
  "dcmmeta_version": 0.6,
  "global": {
    "const": {
      "AcquisitionMatrix": [104, 0, 0, 104],
      "AngioFlag": "N",
      "BitsAllocated": 16,
      "BitsStored": 12,
      "Columns": 936,
      "EchoNumbers": 1,
      "EchoTime": 34.8,
      "EchoTrainLength": 1,
      "FlipAngle": 55.0,
      "HighBit": 11,
      "ImageOrientationPatient": [1.0, 0.0, 0.0, 0.0, 0.94997205164204, -0.3123349181552],
      "ImagePositionPatient": [-935.32203388214, -915.76608543888, 187.55121764621],
      "ImageType": [
        "ORIGINAL",
        "PRIMARY",
        "M",
        "MB",
        "ND",
        "MOSAIC"
],
      "ImagedNucleus": "1H",
      "ImagingFrequency": 123.234496,
      "InPlanePhaseEncodingDirection": "COL",
      "MRAcquisitionType": "2D",
      "MagneticFieldStrength": 3.0,
      "Manufacturer": "SIEMENS",
      "ManufacturerModelName": "TrioTim",
      "Modality": "MR",
      "NumberOfAverages": 1.0,
      "NumberOfPhaseEncodingSteps": 91,
      "PercentPhaseFieldOfView": 100.0,
      "PercentSampling": 100.0,
      "PerformedProcedureStepStartTime": "101140.109000",
      "PhotometricInterpretation": "MONOCHROME2",
      "PixelBandwidth": 1923.0,
      "PixelRepresentation": 0,
      "PixelSpacing": [2.0, 2.0],
      "ProtocolName": "cmrr_mbep2d_bold_2mm_MB8_Task_8x",
      "RepetitionTime": 785.0,
      "Rows": 936,
      "SAR": 0.17303574200133,
      "SamplesPerPixel": 1,
      "ScanOptions": [
        "PFP",
        "FS"
],
      "ScanningSequence": "EP",
      "SequenceName": "epfid2d1_104",
      "SequenceVariant": [
        "SK",
        "SS"
],
      "SeriesDescription": "cmrr_mbep2d_bold_2mm_MB8_Task_8x",
      "SeriesNumber": 25,
      "SeriesTime": "120505.437000",
      "SliceLocation": -107.85731032954,
      "SliceThickness": 2.0,
      "SmallestImagePixelValue": 0,
      "SoftwareVersions": "syngo MR B19",
      "SpacingBetweenSlices": 2.0000000402544,
      "SpecificCharacterSet": "ISO_IR 100",
      "StudyID": "1",
      "StudyTime": "101140.078000",
      "TransmitCoilName": "Body",
      "VariableFlipAngleFlag": "N",
      "WindowCenterWidthExplanation": "Algo1",
      "dBdt": 0.0},
    "slices": {}
  },
  "time": {
    "samples": {
      "AcquisitionNumber": [1, 2, 3, 4, 5, 6, 7, 8, 9, 10, 11, 12, 13, 14, 15, 16, 17, 18, 19, 20, 21, 22, 23, 24, 25, 26, 27, 28, 29, 30, 31, 32, 33, 34, 35, 36, 37, 38, 39, 40, 41, 42, 43, 44, 45, 46, 47, 48, 49, 50, 51, 52, 53, 54, 55, 56, 57, 58, 59, 60, 61, 62, 63, 64, 65, 66, 67, 68, 69, 70, 71, 72, 73, 74, 75, 76, 77, 78, 79, 80, 81, 82, 83, 84, 85, 86, 87, 88, 89, 90, 91, 92, 93, 94, 95, 96, 97, 98, 99, 100, 101, 102, 103, 104, 105, 106, 107, 108, 109, 110, 111, 112, 113, 114, 115, 116, 117, 118, 119, 120, 121, 122, 123, 124, 125, 126, 127, 128, 129, 130, 131, 132, 133, 134, 135, 136, 137, 138, 139, 140, 141, 142, 143, 144, 145, 146, 147, 148, 149, 150, 151, 152, 153, 154, 155, 156, 157, 158, 159, 160, 161, 162, 163, 164, 165, 166, 167, 168, 169, 170, 171, 172, 173, 174, 175, 176, 177, 178, 179, 180, 181, 182, 183, 184, 185, 186, 187, 188, 189, 190, 191, 192, 193, 194, 195, 196, 197, 198, 199, 200, 201, 202, 203, 204, 205, 206, 207, 208, 209, 210, 211, 212, 213, 214, 215, 216, 217, 218, 219, 220, 221, 222, 223, 224, 225, 226, 227, 228, 229, 230, 231, 232, 233, 234, 235, 236, 237, 238, 239, 240, 241, 242, 243, 244, 245, 246, 247, 248, 249, 250, 251, 252, 253, 254, 255, 256, 257, 258, 259, 260, 261, 262, 263, 264, 265, 266, 267, 268, 269, 270, 271, 272, 273, 274, 275, 276, 277, 278, 279, 280, 281, 282, 283, 284, 285, 286, 287, 288, 289, 290, 291, 292, 293, 294, 295, 296, 297, 298, 299, 300, 301, 302, 303, 304, 305, 306, 307, 308, 309, 310, 311, 312, 313, 314, 315, 316, 317, 318, 319, 320, 321, 322, 323, 324, 325, 326, 327, 328, 329, 330, 331, 332, 333, 334, 335, 336, 337, 338, 339, 340, 341, 342, 343, 344, 345, 346, 347, 348, 349, 350, 351, 352, 353, 354, 355, 356, 357, 358, 359, 360, 361, 362, 363, 364, 365, 366, 367, 368, 369, 370, 371, 372, 373, 374, 375, 376, 377, 378, 379, 380, 381, 382, 383, 384, 385, 386, 387, 388, 389, 390, 391, 392, 393, 394, 395, 396, 397, 398, 399, 400, 401, 402, 403, 404, 405, 406, 407, 408, 409, 410, 411, 412, 413, 414, 415, 416, 417, 418, 419, 420, 421, 422, 423, 424, 425, 426, 427, 428, 429, 430, 431, 432, 433, 434, 435, 436, 437, 438, 439, 440, 441, 442, 443, 444, 445, 446, 447, 448, 449, 450, 451, 452, 453, 454, 455, 456, 457, 458, 459, 460, 461, 462, 463, 464, 465, 466, 467, 468, 469, 470, 471, 472, 473, 474, 475, 476, 477, 478, 479, 480, 481, 482, 483, 484, 485, 486, 487, 488, 489, 490, 491, 492, 493, 494, 495, 496, 497, 498, 499, 500, 501, 502, 503, 504, 505, 506, 507, 508, 509, 510, 511, 512, 513, 514, 515, 516, 517, 518, 519, 520, 521, 522, 523, 524, 525, 526, 527, 528, 529, 530, 531, 532, 533, 534, 535, 536, 537, 538, 539, 540, 541, 542, 543, 544, 545, 546, 547, 548, 549, 550, 551, 552, 553, 554, 555, 556, 557, 558, 559, 560, 561, 562, 563, 564, 565, 566, 567, 568, 569, 570, 571, 572, 573, 574, 575, 576, 577, 578, 579, 580, 581],
      "AcquisitionTime": ["120445.717500", "120446.505000", "120447.295000", "120448.082500", "120448.870000", "120449.657500", "120450.447500", "120451.235000", "120452.022500", "120452.810000", "120453.600000", "120454.387500", "120455.175000", "120455.962500", "120456.752500", "120457.540000", "120458.327500", "120459.115000", "120459.905000", "120500.692500", "120501.480000", "120502.267500", "120503.057500", "120503.845000", "120504.632500", "120505.422500", "120506.210000", "120506.997500", "120507.785000", "120508.575000", "120509.362500", "120510.150000", "120510.937500", "120511.727500", "120512.515000", "120513.302500", "120514.090000", "120514.880000", "120515.667500", "120516.455000", "120517.242500", "120518.032500", "120518.820000", "120519.607500", "120520.395000", "120521.185000", "120521.972500", "120522.760000", "120523.550000", "120524.337500", "120525.125000", "120525.912500", "120526.702500", "120527.490000", "120528.277500", "120529.065000", "120529.855000", "120530.642500", "120531.430000", "120532.217500", "120533.007500", "120533.795000", "120534.582500", "120535.370000", "120536.160000", "120536.947500", "120537.735000", "120538.522500", "120539.312500", "120540.100000", "120540.887500", "120541.677500", "120542.465000", "120543.252500", "120544.040000", "120544.830000", "120545.617500", "120546.405000", "120547.192500", "120547.982500", "120548.770000", "120549.557500", "120550.345000", "120551.135000", "120551.922500", "120552.710000", "120553.497500", "120554.287500", "120555.075000", "120555.862500", "120556.650000", "120557.440000", "120558.227500", "120559.015000", "120559.805000", "120600.592500", "120601.380000", "120602.167500", "120602.957500", "120603.745000", "120604.532500", "120605.320000", "120606.110000", "120606.897500", "120607.685000", "120608.472500", "120609.262500", "120610.050000", "120610.837500", "120611.625000", "120612.415000", "120613.202500", "120613.990000", "120614.777500", "120615.567500", "120616.355000", "120617.142500", "120617.932500", "120618.720000", "120619.507500", "120620.295000", "120621.085000", "120621.872500", "120622.660000", "120623.447500", "120624.237500", "120625.025000", "120625.812500", "120626.600000", "120627.390000", "120628.177500", "120628.965000", "120629.752500", "120630.542500", "120631.330000", "120632.117500", "120632.907500", "120633.695000", "120634.482500", "120635.270000", "120636.060000", "120636.847500", "120637.635000", "120638.422500", "120639.212500", "120640.000000", "120640.787500", "120641.575000", "120642.365000", "120643.152500", "120643.940000", "120644.727500", "120645.517500", "120646.305000", "120647.092500", "120647.880000", "120648.670000", "120649.457500", "120650.245000", "120651.035000", "120651.822500", "120652.610000", "120653.397500", "120654.187500", "120654.975000", "120655.762500", "120656.550000", "120657.340000", "120658.127500", "120658.915000", "120659.702500", "120700.492500", "120701.280000", "120702.067500", "120702.855000", "120703.645000", "120704.432500", "120705.220000", "120706.007500", "120706.797500", "120707.585000", "120708.372500", "120709.162500", "120709.950000", "120710.737500", "120711.525000", "120712.315000", "120713.102500", "120713.890000", "120714.677500", "120715.467500", "120716.255000", "120717.042500", "120717.830000", "120718.620000", "120719.407500", "120720.195000", "120720.982500", "120721.772500", "120722.560000", "120723.347500", "120724.135000", "120724.925000", "120725.712500", "120726.500000", "120727.290000", "120728.077500", "120728.865000", "120729.652500", "120730.442500", "120731.230000", "120732.017500", "120732.805000", "120733.595000", "120734.382500", "120735.170000", "120735.957500", "120736.747500", "120737.535000", "120738.322500", "120739.110000", "120739.900000", "120740.687500", "120741.475000", "120742.262500", "120743.052500", "120743.840000", "120744.627500", "120745.417500", "120746.205000", "120746.992500", "120747.780000", "120748.570000", "120749.357500", "120750.145000", "120750.932500", "120751.722500", "120752.510000", "120753.297500", "120754.085000", "120754.875000", "120755.662500", "120756.450000", "120757.237500", "120758.027500", "120758.815000", "120759.602500", "120800.390000", "120801.180000", "120801.967500", "120802.755000", "120803.545000", "120804.332500", "120805.120000", "120805.907500", "120806.697500", "120807.485000", "120808.272500", "120809.060000", "120809.850000", "120810.637500", "120811.425000", "120812.212500", "120813.002500", "120813.790000", "120814.577500", "120815.365000", "120816.155000", "120816.942500", "120817.730000", "120818.517500", "120819.307500", "120820.095000", "120820.882500", "120821.672500", "120822.460000", "120823.247500", "120824.035000", "120824.825000", "120825.612500", "120826.400000", "120827.187500", "120827.977500", "120828.765000", "120829.552500", "120830.340000", "120831.130000", "120831.917500", "120832.705000", "120833.492500", "120834.282500", "120835.070000", "120835.857500", "120836.645000", "120837.435000", "120838.222500", "120839.010000", "120839.800000", "120840.587500", "120841.375000", "120842.162500", "120842.952500", "120843.740000", "120844.527500", "120845.315000", "120846.105000", "120846.892500", "120847.680000", "120848.467500", "120849.257500", "120850.045000", "120850.832500", "120851.620000", "120852.410000", "120853.197500", "120853.985000", "120854.772500", "120855.562500", "120856.350000", "120857.137500", "120857.927500", "120858.715000", "120859.502500", "120900.290000", "120901.080000", "120901.867500", "120902.655000", "120903.442500", "120904.232500", "120905.020000", "120905.807500", "120906.595000", "120907.385000", "120908.172500", "120908.960000", "120909.747500", "120910.537500", "120911.325000", "120912.112500", "120912.900000", "120913.690000", "120914.477500", "120915.265000", "120916.055000", "120916.842500", "120917.630000", "120918.417500", "120919.207500", "120919.995000", "120920.782500", "120921.570000", "120922.360000", "120923.147500", "120923.935000", "120924.722500", "120925.512500", "120926.300000", "120927.087500", "120927.875000", "120928.665000", "120929.452500", "120930.240000", "120931.027500", "120931.817500", "120932.605000", "120933.392500", "120934.182500", "120934.970000", "120935.757500", "120936.545000", "120937.335000", "120938.122500", "120938.910000", "120939.697500", "120940.487500", "120941.275000", "120942.062500", "120942.850000", "120943.640000", "120944.427500", "120945.215000", "120946.002500", "120946.792500", "120947.580000", "120948.367500", "120949.157500", "120949.945000", "120950.732500", "120951.520000", "120952.310000", "120953.097500", "120953.885000", "120954.672500", "120955.462500", "120956.250000", "120957.037500", "120957.825000", "120958.615000", "120959.402500", "121000.190000", "121000.977500", "121001.767500", "121002.555000", "121003.342500", "121004.130000", "121004.920000", "121005.707500", "121006.495000", "121007.285000", "121008.072500", "121008.860000", "121009.647500", "121010.437500", "121011.225000", "121012.012500", "121012.800000", "121013.590000", "121014.377500", "121015.165000", "121015.952500", "121016.742500", "121017.530000", "121018.317500", "121019.105000", "121019.895000", "121020.682500", "121021.470000", "121022.257500", "121023.047500", "121023.835000", "121024.622500", "121025.412500", "121026.200000", "121026.987500", "121027.775000", "121028.565000", "121029.352500", "121030.140000", "121030.927500", "121031.717500", "121032.505000", "121033.292500", "121034.080000", "121034.870000", "121035.657500", "121036.445000", "121037.232500", "121038.022500", "121038.810000", "121039.597500", "121040.385000", "121041.175000", "121041.962500", "121042.750000", "121043.540000", "121044.327500", "121045.115000", "121045.902500", "121046.692500", "121047.480000", "121048.267500", "121049.055000", "121049.845000", "121050.632500", "121051.420000", "121052.207500", "121052.997500", "121053.785000", "121054.572500", "121055.360000", "121056.150000", "121056.937500", "121057.725000", "121058.512500", "121059.302500", "121100.090000", "121100.877500", "121101.667500", "121102.455000", "121103.242500", "121104.030000", "121104.820000", "121105.607500", "121106.395000", "121107.182500", "121107.972500", "121108.760000", "121109.547500", "121110.335000", "121111.125000", "121111.912500", "121112.700000", "121113.487500", "121114.277500", "121115.065000", "121115.852500", "121116.640000", "121117.430000", "121118.217500", "121119.005000", "121119.795000", "121120.582500", "121121.370000", "121122.157500", "121122.947500", "121123.735000", "121124.522500", "121125.310000", "121126.100000", "121126.887500", "121127.675000", "121128.462500", "121129.252500", "121130.040000", "121130.827500", "121131.615000", "121132.405000", "121133.192500", "121133.980000", "121134.767500", "121135.557500", "121136.345000", "121137.132500", "121137.922500", "121138.710000", "121139.497500", "121140.285000", "121141.075000", "121141.862500", "121142.650000", "121143.437500", "121144.227500", "121145.015000", "121145.802500", "121146.590000", "121147.380000", "121148.167500", "121148.955000", "121149.742500", "121150.532500", "121151.320000", "121152.107500", "121152.895000", "121153.685000", "121154.472500", "121155.260000", "121156.050000", "121156.837500", "121157.625000", "121158.412500", "121159.202500", "121159.990000", "121200.777500", "121201.565000", "121202.355000", "121203.142500", "121203.930000", "121204.717500", "121205.507500", "121206.295000", "121207.082500", "121207.870000", "121208.660000", "121209.447500", "121210.235000", "121211.022500", "121211.812500", "121212.600000", "121213.387500", "121214.177500", "121214.965000", "121215.752500", "121216.540000", "121217.330000", "121218.117500", "121218.905000", "121219.692500", "121220.482500", "121221.270000", "121222.057500", "121222.845000"],
      "ContentTime": ["120505.437000", "120505.437000", "120505.453000", "120505.453000", "120505.453000", "120505.453000", "120505.453000", "120505.468000", "120505.468000", "120505.468000", "120505.468000", "120505.468000", "120505.468000", "120505.468000", "120505.468000", "120505.484000", "120505.484000", "120505.484000", "120505.484000", "120505.484000", "120505.484000", "120505.484000", "120505.484000", "120525.406000", "120525.406000", "120525.406000", "120525.406000", "120525.421000", "120525.421000", "120525.421000", "120525.421000", "120525.421000", "120525.421000", "120525.437000", "120525.437000", "120525.437000", "120525.437000", "120525.437000", "120525.437000", "120525.437000", "120525.453000", "120525.453000", "120525.453000", "120525.453000", "120525.453000", "120525.453000", "120525.453000", "120525.453000", "120545.406000", "120545.406000", "120545.406000", "120545.406000", "120545.406000", "120545.421000", "120545.421000", "120545.421000", "120545.421000", "120545.421000", "120545.421000", "120545.421000", "120545.437000", "120545.437000", "120545.437000", "120545.437000", "120545.437000", "120545.437000", "120545.437000", "120545.437000", "120545.453000", "120545.453000", "120545.453000", "120545.453000", "120545.453000", "120545.453000", "120605.406000", "120605.406000", "120605.406000", "120605.406000", "120605.406000", "120605.421000", "120605.421000", "120605.421000", "120605.421000", "120605.421000", "120605.421000", "120605.421000", "120605.437000", "120605.437000", "120605.437000", "120605.437000", "120605.437000", "120605.437000", "120605.437000", "120605.453000", "120605.453000", "120605.453000", "120605.453000", "120605.453000", "120605.453000", "120625.406000", "120625.406000", "120625.406000", "120625.406000", "120625.421000", "120625.421000", "120625.421000", "120625.421000", "120625.421000", "120625.421000", "120625.421000", "120625.421000", "120625.437000", "120625.437000", "120625.437000", "120625.437000", "120625.437000", "120625.437000", "120625.453000", "120625.453000", "120625.453000", "120625.453000", "120625.453000", "120625.453000", "120625.453000", "120625.468000", "120645.406000", "120645.406000", "120645.406000", "120645.406000", "120645.421000", "120645.421000", "120645.421000", "120645.421000", "120645.421000", "120645.437000", "120645.437000", "120645.437000", "120645.437000", "120645.437000", "120645.437000", "120645.437000", "120645.453000", "120645.453000", "120645.453000", "120645.453000", "120645.453000", "120645.453000", "120645.453000", "120645.453000", "120645.468000", "120705.406000", "120705.406000", "120705.406000", "120705.406000", "120705.406000", "120705.421000", "120705.421000", "120705.421000", "120705.421000", "120705.421000", "120705.421000", "120705.421000", "120705.437000", "120705.437000", "120705.437000", "120705.437000", "120705.437000", "120705.437000", "120705.437000", "120705.437000", "120705.453000", "120705.453000", "120705.453000", "120705.453000", "120705.453000", "120705.468000", "120725.406000", "120725.406000", "120725.406000", "120725.406000", "120725.406000", "120725.421000", "120725.421000", "120725.421000", "120725.421000", "120725.421000", "120725.421000", "120725.421000", "120725.437000", "120725.437000", "120725.437000", "120725.437000", "120725.437000", "120725.437000", "120725.437000", "120725.437000", "120725.453000", "120725.453000", "120725.453000", "120725.453000", "120725.453000", "120745.406000", "120745.406000", "120745.406000", "120745.406000", "120745.421000", "120745.421000", "120745.421000", "120745.421000", "120745.421000", "120745.421000", "120745.421000", "120745.421000", "120745.437000", "120745.437000", "120745.437000", "120745.437000", "120745.437000", "120745.437000", "120745.437000", "120745.453000", "120745.453000", "120745.453000", "120745.453000", "120745.453000", "120745.453000", "120745.453000", "120805.406000", "120805.406000", "120805.406000", "120805.406000", "120805.421000", "120805.421000", "120805.421000", "120805.421000", "120805.421000", "120805.421000", "120805.421000", "120805.421000", "120805.437000", "120805.437000", "120805.437000", "120805.437000", "120805.437000", "120805.437000", "120805.437000", "120805.453000", "120805.453000", "120805.453000", "120805.453000", "120805.453000", "120805.453000", "120825.406000", "120825.406000", "120825.406000", "120825.406000", "120825.406000", "120825.421000", "120825.421000", "120825.421000", "120825.421000", "120825.421000", "120825.421000", "120825.421000", "120825.437000", "120825.437000", "120825.437000", "120825.437000", "120825.437000", "120825.437000", "120825.437000", "120825.437000", "120825.453000", "120825.453000", "120825.453000", "120825.453000", "120825.453000", "120845.406000", "120845.406000", "120845.406000", "120845.406000", "120845.421000", "120845.421000", "120845.421000", "120845.421000", "120845.421000", "120845.421000", "120845.421000", "120845.437000", "120845.437000", "120845.437000", "120845.437000", "120845.437000", "120845.453000", "120845.453000", "120845.453000", "120845.453000", "120845.453000", "120845.453000", "120845.453000", "120845.468000", "120845.468000", "120845.468000", "120905.406000", "120905.406000", "120905.406000", "120905.421000", "120905.421000", "120905.421000", "120905.421000", "120905.421000", "120905.437000", "120905.437000", "120905.437000", "120905.437000", "120905.437000", "120905.437000", "120905.453000", "120905.453000", "120905.453000", "120905.453000", "120905.453000", "120905.453000", "120905.453000", "120905.468000", "120905.468000", "120905.468000", "120905.468000", "120925.406000", "120925.406000", "120925.406000", "120925.406000", "120925.406000", "120925.421000", "120925.421000", "120925.421000", "120925.421000", "120925.437000", "120925.437000", "120925.437000", "120925.437000", "120925.437000", "120925.437000", "120925.437000", "120925.437000", "120925.453000", "120925.453000", "120925.453000", "120925.453000", "120925.453000", "120925.453000", "120925.453000", "120925.468000", "120925.468000", "120945.406000", "120945.406000", "120945.406000", "120945.421000", "120945.421000", "120945.421000", "120945.421000", "120945.421000", "120945.421000", "120945.421000", "120945.437000", "120945.437000", "120945.437000", "120945.437000", "120945.437000", "120945.453000", "120945.453000", "120945.453000", "120945.453000", "120945.453000", "120945.453000", "120945.453000", "120945.468000", "120945.468000", "120945.468000", "121005.406000", "121005.406000", "121005.406000", "121005.406000", "121005.421000", "121005.421000", "121005.421000", "121005.421000", "121005.421000", "121005.421000", "121005.421000", "121005.437000", "121005.437000", "121005.437000", "121005.437000", "121005.437000", "121005.437000", "121005.437000", "121005.437000", "121005.453000", "121005.453000", "121005.453000", "121005.453000", "121005.453000", "121005.453000", "121005.453000", "121025.406000", "121025.406000", "121025.406000", "121025.406000", "121025.421000", "121025.421000", "121025.421000", "121025.421000", "121025.421000", "121025.421000", "121025.437000", "121025.437000", "121025.437000", "121025.437000", "121025.437000", "121025.437000", "121025.437000", "121025.437000", "121025.453000", "121025.453000", "121025.453000", "121025.453000", "121025.453000", "121025.453000", "121025.453000", "121045.406000", "121045.406000", "121045.406000", "121045.406000", "121045.421000", "121045.421000", "121045.421000", "121045.421000", "121045.421000", "121045.421000", "121045.421000", "121045.421000", "121045.437000", "121045.437000", "121045.437000", "121045.437000", "121045.437000", "121045.437000", "121045.453000", "121045.453000", "121045.453000", "121045.453000", "121045.453000", "121045.468000", "121045.468000", "121045.468000", "121105.406000", "121105.406000", "121105.406000", "121105.406000", "121105.421000", "121105.421000", "121105.421000", "121105.421000", "121105.421000", "121105.421000", "121105.421000", "121105.421000", "121105.437000", "121105.437000", "121105.437000", "121105.437000", "121105.437000", "121105.437000", "121105.437000", "121105.453000", "121105.453000", "121105.453000", "121105.453000", "121105.453000", "121105.453000", "121125.406000", "121125.406000", "121125.406000", "121125.406000", "121125.421000", "121125.421000", "121125.421000", "121125.421000", "121125.421000", "121125.437000", "121125.437000", "121125.437000", "121125.437000", "121125.437000", "121125.437000", "121125.437000", "121125.437000", "121125.453000", "121125.453000", "121125.453000", "121125.453000", "121125.453000", "121125.453000", "121125.453000", "121125.468000", "121125.468000", "121145.406000", "121145.406000", "121145.406000", "121145.406000", "121145.421000", "121145.421000", "121145.421000", "121145.421000", "121145.421000", "121145.421000", "121145.421000", "121145.421000", "121145.437000", "121145.437000", "121145.437000", "121145.437000", "121145.437000", "121145.437000", "121145.437000", "121145.437000", "121145.453000", "121145.453000", "121145.453000", "121145.453000", "121145.453000", "121205.406000", "121205.406000", "121205.406000", "121205.406000", "121205.421000", "121205.421000", "121205.421000", "121205.421000", "121205.421000", "121205.421000", "121205.421000", "121205.421000", "121205.437000", "121205.437000", "121205.437000", "121205.437000", "121205.437000", "121205.437000", "121205.437000", "121205.453000", "121205.453000", "121205.453000", "121205.453000", "121205.453000", "121205.453000", "121205.453000", "121223.328000", "121223.328000", "121223.328000", "121223.343000", "121223.343000", "121223.343000", "121223.343000", "121223.343000", "121223.343000", "121223.343000", "121223.359000", "121223.359000", "121223.359000", "121223.359000", "121223.359000", "121223.359000", "121223.359000", "121223.375000", "121223.375000", "121223.375000", "121223.375000", "121223.375000", "121223.375000"],
