{
  "AcquisitionMatrixPE": 104,
  "AcquisitionNumber": 1,
  "AcquisitionTime": "11:48:38.707500",
  "BandwidthPerPixelPhaseEncode": 13.935,
  "BaseResolution": 104,
  "CoilString": "C:HEA;HEP",
  "ConversionSoftware": "dcm2niix",
  "ConversionSoftwareVersion": "v1.0.20210317",
  "DerivedVendorReportedEchoSpacing": 0.000690017,
  "DeviceSerialNumber": "35450",
  "DwellTime": 2.5e-06,
  "EchoTime": 0.0348,
  "EffectiveEchoSpacing": 0.000690017,
  "FlipAngle": 55,
  "ImageComments": "Unaliased MB8/PE3 (remote)",
  "ImageOrientationPatientDICOM": [1, 0, 0, 0, 0.949972, -0.312335],
  "ImageType": [
    "ORIGINAL",
    "PRIMARY",
    "M",
    "MB",
    "ND",
    "MOSAIC"
],
  "ImagingFrequency": 123.234,
  "InPlanePhaseEncodingDirectionDICOM": "COL",
  "InstitutionAddress": "Univeristy Ave. 197,Newark,North East,US,07102-1814",
  "InstitutionName": "RUBIC",
  "InstitutionalDepartmentName": "Department",
  "MRAcquisitionType": "2D",
  "MagneticFieldStrength": 3,
  "Manufacturer": "Siemens",
  "ManufacturersModelName": "TrioTim",
  "Modality": "MR",
  "MultibandAccelerationFactor": 8,
  "PartialFourier": 0.875,
  "PatientPosition": "HFS",
  "PercentPhaseFOV": 100,
  "PercentSampling": 100,
  "PhaseEncodingDirection": "j-",
  "PhaseEncodingSteps": 91,
  "PhaseResolution": 1,
  "PixelBandwidth": 1923,
  "ProcedureStepDescription": "Cole^Michael",
  "ProtocolName": "cmrr_mbep2d_bold_2mm_MB8_Task_8x",
  "PulseSequenceDetails": "%CustomerSeq%\\cmrr_mbep2d_bold",
  "ReceiveCoilName": "32Ch_Head",
  "ReconMatrixPE": 104,
  "RepetitionTime": 0.785,
  "SAR": 0.173036,
  "ScanOptions": "PFP\\FS",
  "ScanningSequence": "EP",
  "SequenceName": "epfid2d1_104",
  "SequenceVariant": "SK\\SS",
  "SeriesDescription": "cmrr_mbep2d_bold_2mm_MB8_Task_8x",
  "SeriesNumber": 21,
  "ShimSetting": [2095, -327, -7234, 340, 86, -805, -102, 83],
  "SliceThickness": 2,
  "SliceTiming": [0, 0.4375, 0.0875, 0.525, 0.175, 0.6125, 0.2625, 0.7, 0.35, 0, 0.4375, 0.0875, 0.525, 0.175, 0.6125, 0.2625, 0.7, 0.35, 0, 0.4375, 0.0875, 0.525, 0.175, 0.6125, 0.2625, 0.7, 0.35, 0, 0.4375, 0.0875, 0.525, 0.175, 0.6125, 0.2625, 0.7, 0.35, 0, 0.4375, 0.0875, 0.525, 0.175, 0.6125, 0.2625, 0.7, 0.35, 0, 0.4375, 0.0875, 0.525, 0.175, 0.6125, 0.2625, 0.7, 0.35, 0, 0.4375, 0.0875, 0.525, 0.175, 0.6125, 0.2625, 0.7, 0.35, 0, 0.4375, 0.0875, 0.525, 0.175, 0.6125, 0.2625, 0.7, 0.35],
  "SoftwareVersions": "syngo MR B19",
  "SpacingBetweenSlices": 2,
  "StationName": "MRC35450",
  "TaskName": "cpro",
  "TotalReadoutTime": 0.0710717,
  "TxRefAmp": 406.306,
  "dcmmeta_affine": [
    [-2.0, 0.0, 0.0, 103.32203674316406],
    [0.0, 1.8999440670013428, -0.6246698498725891, -70.30490112304688],
    [0.0, 0.6246698498725891, 1.8999441862106323, -136.6524200439453],
    [0.0, 0.0, 0.0, 1.0]
],
  "dcmmeta_reorient_transform": [
    [0.0, -1.0, 0.0, 103.0],
    [1.0, 0.0, 0.0, 0.0],
    [0.0, 0.0, 1.0, 0.0],
    [0.0, 0.0, 0.0, 1.0]
],
  "dcmmeta_shape": [104, 104, 72, 581],
  "dcmmeta_slice_dim": 2,
  "dcmmeta_version": 0.6,
  "global": {
    "const": {
      "AcquisitionMatrix": [104, 0, 0, 104],
      "AngioFlag": "N",
      "BitsAllocated": 16,
      "BitsStored": 12,
      "Columns": 936,
      "EchoNumbers": 1,
      "EchoTime": 34.8,
      "EchoTrainLength": 1,
      "FlipAngle": 55.0,
      "HighBit": 11,
      "ImageOrientationPatient": [1.0, 0.0, 0.0, 0.0, 0.94997205164204, -0.3123349181552],
      "ImagePositionPatient": [-935.32203388214, -915.76608543888, 187.55121764621],
      "ImageType": [
        "ORIGINAL",
        "PRIMARY",
        "M",
        "MB",
        "ND",
        "MOSAIC"
],
      "ImagedNucleus": "1H",
      "ImagingFrequency": 123.234496,
      "InPlanePhaseEncodingDirection": "COL",
      "MRAcquisitionType": "2D",
      "MagneticFieldStrength": 3.0,
      "Manufacturer": "SIEMENS",
      "ManufacturerModelName": "TrioTim",
      "Modality": "MR",
      "NumberOfAverages": 1.0,
      "NumberOfPhaseEncodingSteps": 91,
      "PercentPhaseFieldOfView": 100.0,
      "PercentSampling": 100.0,
      "PerformedProcedureStepStartTime": "101140.109000",
      "PhotometricInterpretation": "MONOCHROME2",
      "PixelBandwidth": 1923.0,
      "PixelRepresentation": 0,
      "PixelSpacing": [2.0, 2.0],
      "ProtocolName": "cmrr_mbep2d_bold_2mm_MB8_Task_8x",
      "RepetitionTime": 785.0,
      "Rows": 936,
      "SAR": 0.17303574200133,
      "SamplesPerPixel": 1,
      "ScanOptions": [
        "PFP",
        "FS"
],
      "ScanningSequence": "EP",
      "SequenceName": "epfid2d1_104",
      "SequenceVariant": [
        "SK",
        "SS"
],
      "SeriesDescription": "cmrr_mbep2d_bold_2mm_MB8_Task_8x",
      "SeriesNumber": 21,
      "SeriesTime": "114909.812000",
      "SliceLocation": -107.85731032954,
      "SliceThickness": 2.0,
      "SmallestImagePixelValue": 0,
      "SoftwareVersions": "syngo MR B19",
      "SpacingBetweenSlices": 2.0000000402544,
      "SpecificCharacterSet": "ISO_IR 100",
      "StudyID": "1",
      "StudyTime": "101140.078000",
      "TransmitCoilName": "Body",
      "VariableFlipAngleFlag": "N",
      "WindowCenterWidthExplanation": "Algo1",
      "dBdt": 0.0},
    "slices": {}
  },
  "time": {
    "samples": {
      "AcquisitionNumber": [1, 2, 3, 4, 5, 6, 7, 8, 9, 10, 11, 12, 13, 14, 15, 16, 17, 18, 19, 20, 21, 22, 23, 24, 25, 26, 27, 28, 29, 30, 31, 32, 33, 34, 35, 36, 37, 38, 39, 40, 41, 42, 43, 44, 45, 46, 47, 48, 49, 50, 51, 52, 53, 54, 55, 56, 57, 58, 59, 60, 61, 62, 63, 64, 65, 66, 67, 68, 69, 70, 71, 72, 73, 74, 75, 76, 77, 78, 79, 80, 81, 82, 83, 84, 85, 86, 87, 88, 89, 90, 91, 92, 93, 94, 95, 96, 97, 98, 99, 100, 101, 102, 103, 104, 105, 106, 107, 108, 109, 110, 111, 112, 113, 114, 115, 116, 117, 118, 119, 120, 121, 122, 123, 124, 125, 126, 127, 128, 129, 130, 131, 132, 133, 134, 135, 136, 137, 138, 139, 140, 141, 142, 143, 144, 145, 146, 147, 148, 149, 150, 151, 152, 153, 154, 155, 156, 157, 158, 159, 160, 161, 162, 163, 164, 165, 166, 167, 168, 169, 170, 171, 172, 173, 174, 175, 176, 177, 178, 179, 180, 181, 182, 183, 184, 185, 186, 187, 188, 189, 190, 191, 192, 193, 194, 195, 196, 197, 198, 199, 200, 201, 202, 203, 204, 205, 206, 207, 208, 209, 210, 211, 212, 213, 214, 215, 216, 217, 218, 219, 220, 221, 222, 223, 224, 225, 226, 227, 228, 229, 230, 231, 232, 233, 234, 235, 236, 237, 238, 239, 240, 241, 242, 243, 244, 245, 246, 247, 248, 249, 250, 251, 252, 253, 254, 255, 256, 257, 258, 259, 260, 261, 262, 263, 264, 265, 266, 267, 268, 269, 270, 271, 272, 273, 274, 275, 276, 277, 278, 279, 280, 281, 282, 283, 284, 285, 286, 287, 288, 289, 290, 291, 292, 293, 294, 295, 296, 297, 298, 299, 300, 301, 302, 303, 304, 305, 306, 307, 308, 309, 310, 311, 312, 313, 314, 315, 316, 317, 318, 319, 320, 321, 322, 323, 324, 325, 326, 327, 328, 329, 330, 331, 332, 333, 334, 335, 336, 337, 338, 339, 340, 341, 342, 343, 344, 345, 346, 347, 348, 349, 350, 351, 352, 353, 354, 355, 356, 357, 358, 359, 360, 361, 362, 363, 364, 365, 366, 367, 368, 369, 370, 371, 372, 373, 374, 375, 376, 377, 378, 379, 380, 381, 382, 383, 384, 385, 386, 387, 388, 389, 390, 391, 392, 393, 394, 395, 396, 397, 398, 399, 400, 401, 402, 403, 404, 405, 406, 407, 408, 409, 410, 411, 412, 413, 414, 415, 416, 417, 418, 419, 420, 421, 422, 423, 424, 425, 426, 427, 428, 429, 430, 431, 432, 433, 434, 435, 436, 437, 438, 439, 440, 441, 442, 443, 444, 445, 446, 447, 448, 449, 450, 451, 452, 453, 454, 455, 456, 457, 458, 459, 460, 461, 462, 463, 464, 465, 466, 467, 468, 469, 470, 471, 472, 473, 474, 475, 476, 477, 478, 479, 480, 481, 482, 483, 484, 485, 486, 487, 488, 489, 490, 491, 492, 493, 494, 495, 496, 497, 498, 499, 500, 501, 502, 503, 504, 505, 506, 507, 508, 509, 510, 511, 512, 513, 514, 515, 516, 517, 518, 519, 520, 521, 522, 523, 524, 525, 526, 527, 528, 529, 530, 531, 532, 533, 534, 535, 536, 537, 538, 539, 540, 541, 542, 543, 544, 545, 546, 547, 548, 549, 550, 551, 552, 553, 554, 555, 556, 557, 558, 559, 560, 561, 562, 563, 564, 565, 566, 567, 568, 569, 570, 571, 572, 573, 574, 575, 576, 577, 578, 579, 580, 581],
      "AcquisitionTime": ["114838.707500", "114839.495000", "114840.282500", "114841.072500", "114841.860000", "114842.647500", "114843.435000", "114844.225000", "114845.012500", "114845.800000", "114846.590000", "114847.377500", "114848.165000", "114848.952500", "114849.742500", "114850.530000", "114851.317500", "114852.105000", "114852.895000", "114853.682500", "114854.470000", "114855.257500", "114856.047500", "114856.835000", "114857.622500", "114858.410000", "114859.200000", "114859.987500", "114900.775000", "114901.562500", "114902.352500", "114903.140000", "114903.927500", "114904.717500", "114905.505000", "114906.292500", "114907.080000", "114907.870000", "114908.657500", "114909.445000", "114910.232500", "114911.022500", "114911.810000", "114912.597500", "114913.385000", "114914.175000", "114914.962500", "114915.750000", "114916.537500", "114917.327500", "114918.115000", "114918.902500", "114919.690000", "114920.480000", "114921.267500", "114922.055000", "114922.845000", "114923.632500", "114924.420000", "114925.207500", "114925.997500", "114926.785000", "114927.572500", "114928.360000", "114929.150000", "114929.937500", "114930.725000", "114931.512500", "114932.302500", "114933.090000", "114933.877500", "114934.665000", "114935.455000", "114936.242500", "114937.030000", "114937.817500", "114938.607500", "114939.395000", "114940.182500", "114940.972500", "114941.760000", "114942.547500", "114943.335000", "114944.125000", "114944.912500", "114945.700000", "114946.487500", "114947.277500", "114948.065000", "114948.852500", "114949.640000", "114950.430000", "114951.217500", "114952.005000", "114952.792500", "114953.582500", "114954.370000", "114955.157500", "114955.945000", "114956.735000", "114957.522500", "114958.310000", "114959.100000", "114959.887500", "115000.675000", "115001.462500", "115002.252500", "115003.040000", "115003.827500", "115004.615000", "115005.405000", "115006.192500", "115006.980000", "115007.767500", "115008.557500", "115009.345000", "115010.132500", "115010.920000", "115011.710000", "115012.497500", "115013.285000", "115014.072500", "115014.862500", "115015.650000", "115016.437500", "115017.227500", "115018.015000", "115018.802500", "115019.590000", "115020.380000", "115021.167500", "115021.955000", "115022.742500", "115023.532500", "115024.320000", "115025.107500", "115025.895000", "115026.685000", "115027.472500", "115028.260000", "115029.047500", "115029.837500", "115030.625000", "115031.412500", "115032.202500", "115032.990000", "115033.777500", "115034.565000", "115035.355000", "115036.142500", "115036.930000", "115037.717500", "115038.507500", "115039.295000", "115040.082500", "115040.870000", "115041.660000", "115042.447500", "115043.235000", "115044.022500", "115044.812500", "115045.600000", "115046.387500", "115047.175000", "115047.965000", "115048.752500", "115049.540000", "115050.330000", "115051.117500", "115051.905000", "115052.692500", "115053.482500", "115054.270000", "115055.057500", "115055.845000", "115056.635000", "115057.422500", "115058.210000", "115058.997500", "115059.787500", "115100.575000", "115101.362500", "115102.150000", "115102.940000", "115103.727500", "115104.515000", "115105.302500", "115106.092500", "115106.880000", "115107.667500", "115108.457500", "115109.245000", "115110.032500", "115110.820000", "115111.610000", "115112.397500", "115113.185000", "115113.972500", "115114.762500", "115115.550000", "115116.337500", "115117.125000", "115117.915000", "115118.702500", "115119.490000", "115120.277500", "115121.067500", "115121.855000", "115122.642500", "115123.430000", "115124.220000", "115125.007500", "115125.795000", "115126.585000", "115127.372500", "115128.160000", "115128.947500", "115129.737500", "115130.525000", "115131.312500", "115132.100000", "115132.890000", "115133.677500", "115134.465000", "115135.252500", "115136.042500", "115136.830000", "115137.617500", "115138.405000", "115139.195000", "115139.982500", "115140.770000", "115141.557500", "115142.347500", "115143.135000", "115143.922500", "115144.712500", "115145.500000", "115146.287500", "115147.075000", "115147.865000", "115148.652500", "115149.440000", "115150.227500", "115151.017500", "115151.805000", "115152.592500", "115153.380000", "115154.170000", "115154.957500", "115155.745000", "115156.532500", "115157.322500", "115158.110000", "115158.897500", "115159.685000", "115200.475000", "115201.262500", "115202.050000", "115202.840000", "115203.627500", "115204.415000", "115205.202500", "115205.992500", "115206.780000", "115207.567500", "115208.355000", "115209.145000", "115209.932500", "115210.720000", "115211.507500", "115212.297500", "115213.085000", "115213.872500", "115214.660000", "115215.450000", "115216.237500", "115217.025000", "115217.812500", "115218.602500", "115219.390000", "115220.177500", "115220.967500", "115221.755000", "115222.542500", "115223.330000", "115224.120000", "115224.907500", "115225.695000", "115226.482500", "115227.272500", "115228.060000", "115228.847500", "115229.635000", "115230.425000", "115231.212500", "115232.000000", "115232.787500", "115233.577500", "115234.365000", "115235.152500", "115235.940000", "115236.730000", "115237.517500", "115238.305000", "115239.095000", "115239.882500", "115240.670000", "115241.457500", "115242.247500", "115243.035000", "115243.822500", "115244.610000", "115245.400000", "115246.187500", "115246.975000", "115247.762500", "115248.552500", "115249.340000", "115250.127500", "115250.915000", "115251.705000", "115252.492500", "115253.280000", "115254.067500", "115254.857500", "115255.645000", "115256.432500", "115257.222500", "115258.010000", "115258.797500", "115259.585000", "115300.375000", "115301.162500", "115301.950000", "115302.737500", "115303.527500", "115304.315000", "115305.102500", "115305.890000", "115306.680000", "115307.467500", "115308.255000", "115309.042500", "115309.832500", "115310.620000", "115311.407500", "115312.195000", "115312.985000", "115313.772500", "115314.560000", "115315.350000", "115316.137500", "115316.925000", "115317.712500", "115318.502500", "115319.290000", "115320.077500", "115320.865000", "115321.655000", "115322.442500", "115323.230000", "115324.017500", "115324.807500", "115325.595000", "115326.382500", "115327.170000", "115327.960000", "115328.747500", "115329.535000", "115330.322500", "115331.112500", "115331.900000", "115332.687500", "115333.477500", "115334.265000", "115335.052500", "115335.840000", "115336.630000", "115337.417500", "115338.205000", "115338.992500", "115339.782500", "115340.570000", "115341.357500", "115342.145000", "115342.935000", "115343.722500", "115344.510000", "115345.297500", "115346.087500", "115346.875000", "115347.662500", "115348.452500", "115349.240000", "115350.027500", "115350.815000", "115351.605000", "115352.392500", "115353.180000", "115353.967500", "115354.757500", "115355.545000", "115356.332500", "115357.120000", "115357.910000", "115358.697500", "115359.485000", "115400.272500", "115401.062500", "115401.850000", "115402.637500", "115403.425000", "115404.215000", "115405.002500", "115405.790000", "115406.580000", "115407.367500", "115408.155000", "115408.942500", "115409.732500", "115410.520000", "115411.307500", "115412.095000", "115412.885000", "115413.672500", "115414.460000", "115415.247500", "115416.037500", "115416.825000", "115417.612500", "115418.400000", "115419.190000", "115419.977500", "115420.765000", "115421.552500", "115422.342500", "115423.130000", "115423.917500", "115424.707500", "115425.495000", "115426.282500", "115427.070000", "115427.860000", "115428.647500", "115429.435000", "115430.222500", "115431.012500", "115431.800000", "115432.587500", "115433.375000", "115434.165000", "115434.952500", "115435.740000", "115436.527500", "115437.317500", "115438.105000", "115438.892500", "115439.680000", "115440.470000", "115441.257500", "115442.045000", "115442.835000", "115443.622500", "115444.410000", "115445.197500", "115445.987500", "115446.775000", "115447.562500", "115448.350000", "115449.140000", "115449.927500", "115450.715000", "115451.502500", "115452.292500", "115453.080000", "115453.867500", "115454.655000", "115455.445000", "115456.232500", "115457.020000", "115457.807500", "115458.597500", "115459.385000", "115500.172500", "115500.962500", "115501.750000", "115502.537500", "115503.325000", "115504.115000", "115504.902500", "115505.690000", "115506.477500", "115507.267500", "115508.055000", "115508.842500", "115509.630000", "115510.420000", "115511.207500", "115511.995000", "115512.782500", "115513.572500", "115514.360000", "115515.147500", "115515.935000", "115516.725000", "115517.512500", "115518.300000", "115519.090000", "115519.877500", "115520.665000", "115521.452500", "115522.242500", "115523.030000", "115523.817500", "115524.605000", "115525.395000", "115526.182500", "115526.970000", "115527.757500", "115528.547500", "115529.335000", "115530.122500", "115530.910000", "115531.700000", "115532.487500", "115533.275000", "115534.062500", "115534.852500", "115535.640000", "115536.427500", "115537.217500", "115538.005000", "115538.792500", "115539.580000", "115540.370000", "115541.157500", "115541.945000", "115542.732500", "115543.522500", "115544.310000", "115545.097500", "115545.885000", "115546.675000", "115547.462500", "115548.250000", "115549.037500", "115549.827500", "115550.615000", "115551.402500", "115552.190000", "115552.980000", "115553.767500", "115554.555000", "115555.345000", "115556.132500", "115556.920000", "115557.707500", "115558.497500", "115559.285000", "115600.072500", "115600.860000", "115601.650000", "115602.437500", "115603.225000", "115604.012500", "115604.802500", "115605.590000", "115606.377500", "115607.165000", "115607.955000", "115608.742500", "115609.530000", "115610.317500", "115611.107500", "115611.895000", "115612.682500", "115613.472500", "115614.260000", "115615.047500", "115615.835000"],
      "ContentTime": ["114909.812000", "114909.812000", "114909.812000", "114909.828000", "114909.828000", "114909.828000", "114909.828000", "114909.828000", "114909.828000", "114909.843000", "114909.843000", "114909.843000", "114909.843000", "114909.843000", "114909.843000", "114909.843000", "114909.859000", "114909.859000", "114909.859000", "114909.859000", "114909.859000", "114909.859000", "114909.875000", "114909.875000", "114909.875000", "114909.875000", "114909.875000", "114909.890000", "114909.890000", "114909.890000", "114909.890000", "114909.890000", "114909.890000", "114909.890000", "114909.906000", "114909.906000", "114909.906000", "114929.781000", "114929.781000", "114929.781000", "114929.781000", "114929.796000", "114929.796000", "114929.796000", "114929.796000", "114929.796000", "114929.796000", "114929.812000", "114929.812000", "114929.812000", "114929.812000", "114929.812000", "114929.812000", "114929.812000", "114929.828000", "114929.828000", "114929.828000", "114929.828000", "114929.828000", "114929.828000", "114929.828000", "114929.828000", "114949.781000", "114949.781000", "114949.781000", "114949.781000", "114949.781000", "114949.796000", "114949.796000", "114949.796000", "114949.796000", "114949.796000", "114949.796000", "114949.796000", "114949.812000", "114949.812000", "114949.812000", "114949.812000", "114949.812000", "114949.812000", "114949.812000", "114949.828000", "114949.828000", "114949.828000", "114949.828000", "114949.828000", "114949.828000", "114949.828000", "115009.781000", "115009.781000", "115009.781000", "115009.796000", "115009.796000", "115009.796000", "115009.796000", "115009.796000", "115009.796000", "115009.796000", "115009.812000", "115009.812000", "115009.812000", "115009.812000", "115009.828000", "115009.828000", "115009.828000", "115009.828000", "115009.828000", "115009.828000", "115009.828000", "115009.843000", "115009.843000", "115009.843000", "115009.843000", "115029.781000", "115029.781000", "115029.781000", "115029.781000", "115029.796000", "115029.796000", "115029.796000", "115029.796000", "115029.796000", "115029.796000", "115029.812000", "115029.812000", "115029.812000", "115029.812000", "115029.812000", "115029.812000", "115029.828000", "115029.828000", "115029.828000", "115029.828000", "115029.828000", "115029.828000", "115029.828000", "115029.828000", "115029.843000", "115029.843000", "115049.781000", "115049.781000", "115049.781000", "115049.781000", "115049.781000", "115049.796000", "115049.796000", "115049.796000", "115049.796000", "115049.796000", "115049.796000", "115049.796000", "115049.812000", "115049.812000", "115049.812000", "115049.812000", "115049.812000", "115049.812000", "115049.812000", "115049.812000", "115049.828000", "115049.828000", "115049.828000", "115049.828000", "115049.828000", "115109.781000", "115109.781000", "115109.781000", "115109.781000", "115109.796000", "115109.796000", "115109.796000", "115109.796000", "115109.796000", "115109.796000", "115109.796000", "115109.796000", "115109.812000", "115109.812000", "115109.812000", "115109.812000", "115109.812000", "115109.812000", "115109.828000", "115109.828000", "115109.828000", "115109.828000", "115109.828000", "115109.828000", "115109.828000", "115109.843000", "115129.781000", "115129.781000", "115129.781000", "115129.781000", "115129.796000", "115129.796000", "115129.796000", "115129.796000", "115129.796000", "115129.796000", "115129.796000", "115129.796000", "115129.812000", "115129.812000", "115129.812000", "115129.812000", "115129.812000", "115129.812000", "115129.812000", "115129.828000", "115129.828000", "115129.828000", "115129.828000", "115129.828000", "115129.828000", "115149.781000", "115149.781000", "115149.781000", "115149.781000", "115149.796000", "115149.796000", "115149.796000", "115149.796000", "115149.796000", "115149.796000", "115149.796000", "115149.796000", "115149.812000", "115149.812000", "115149.812000", "115149.812000", "115149.812000", "115149.812000", "115149.812000", "115149.812000", "115149.828000", "115149.828000", "115149.828000", "115149.828000", "115149.843000", "115149.843000", "115209.781000", "115209.781000", "115209.781000", "115209.781000", "115209.781000", "115209.796000", "115209.796000", "115209.796000", "115209.796000", "115209.796000", "115209.796000", "115209.796000", "115209.812000", "115209.812000", "115209.812000", "115209.812000", "115209.812000", "115209.812000", "115209.812000", "115209.812000", "115209.828000", "115209.828000", "115209.828000", "115209.828000", "115209.828000", "115229.781000", "115229.781000", "115229.781000", "115229.781000", "115229.781000", "115229.796000", "115229.796000", "115229.796000", "115229.796000", "115229.796000", "115229.796000", "115229.796000", "115229.812000", "115229.812000", "115229.812000", "115229.812000", "115229.812000", "115229.812000", "115229.812000", "115229.828000", "115229.828000", "115229.828000", "115229.828000", "115229.828000", "115229.828000", "115229.828000", "115249.781000", "115249.781000", "115249.781000", "115249.781000", "115249.796000", "115249.796000", "115249.796000", "115249.796000", "115249.796000", "115249.796000", "115249.796000", "115249.796000", "115249.812000", "115249.812000", "115249.812000", "115249.812000", "115249.812000", "115249.812000", "115249.812000", "115249.828000", "115249.828000", "115249.828000", "115249.828000", "115249.828000", "115249.828000", "115309.781000", "115309.781000", "115309.781000", "115309.781000", "115309.796000", "115309.796000", "115309.796000", "115309.796000", "115309.796000", "115309.796000", "115309.796000", "115309.812000", "115309.812000", "115309.812000", "115309.812000", "115309.812000", "115309.812000", "115309.828000", "115309.828000", "115309.828000", "115309.828000", "115309.828000", "115309.828000", "115309.843000", "115309.843000", "115309.843000", "115329.781000", "115329.781000", "115329.781000", "115329.781000", "115329.796000", "115329.796000", "115329.796000", "115329.796000", "115329.796000", "115329.796000", "115329.796000", "115329.796000", "115329.812000", "115329.812000", "115329.812000", "115329.812000", "115329.812000", "115329.812000", "115329.828000", "115329.828000", "115329.828000", "115329.828000", "115329.828000", "115329.828000", "115329.828000", "115349.781000", "115349.781000", "115349.781000", "115349.781000", "115349.796000", "115349.796000", "115349.796000", "115349.796000", "115349.796000", "115349.796000", "115349.796000", "115349.812000", "115349.812000", "115349.812000", "115349.812000", "115349.812000", "115349.812000", "115349.812000", "115349.812000", "115349.828000", "115349.828000", "115349.828000", "115349.828000", "115349.828000", "115349.828000", "115349.828000", "115409.781000", "115409.781000", "115409.781000", "115409.781000", "115409.796000", "115409.796000", "115409.796000", "115409.796000", "115409.796000", "115409.796000", "115409.796000", "115409.796000", "115409.812000", "115409.812000", "115409.812000", "115409.812000", "115409.812000", "115409.812000", "115409.812000", "115409.828000", "115409.828000", "115409.828000", "115409.828000", "115409.828000", "115409.828000", "115429.781000", "115429.781000", "115429.781000", "115429.781000", "115429.796000", "115429.796000", "115429.796000", "115429.796000", "115429.796000", "115429.796000", "115429.796000", "115429.796000", "115429.812000", "115429.812000", "115429.812000", "115429.812000", "115429.812000", "115429.812000", "115429.828000", "115429.828000", "115429.828000", "115429.828000", "115429.828000", "115429.843000", "115429.843000", "115429.843000", "115449.781000", "115449.781000", "115449.781000", "115449.781000", "115449.796000", "115449.796000", "115449.796000", "115449.796000", "115449.796000", "115449.796000", "115449.796000", "115449.796000", "115449.812000", "115449.812000", "115449.812000", "115449.812000", "115449.812000", "115449.828000", "115449.828000", "115449.828000", "115449.828000", "115449.828000", "115449.828000", "115449.828000", "115449.843000", "115509.781000", "115509.781000", "115509.781000", "115509.781000", "115509.781000", "115509.796000", "115509.796000", "115509.796000", "115509.796000", "115509.796000", "115509.796000", "115509.796000", "115509.812000", "115509.812000", "115509.812000", "115509.812000", "115509.812000", "115509.812000", "115509.812000", "115509.812000", "115509.828000", "115509.828000", "115509.828000", "115509.828000", "115509.828000", "115509.828000", "115529.781000", "115529.781000", "115529.781000", "115529.781000", "115529.796000", "115529.796000", "115529.796000", "115529.796000", "115529.796000", "115529.796000", "115529.796000", "115529.796000", "115529.812000", "115529.812000", "115529.812000", "115529.812000", "115529.812000", "115529.828000", "115529.828000", "115529.828000", "115529.828000", "115529.828000", "115529.828000", "115529.828000", "115529.843000", "115549.781000", "115549.781000", "115549.781000", "115549.781000", "115549.796000", "115549.796000", "115549.796000", "115549.796000", "115549.796000", "115549.812000", "115549.812000", "115549.812000", "115549.812000", "115549.812000", "115549.812000", "115549.828000", "115549.828000", "115549.828000", "115549.828000", "115549.828000", "115549.828000", "115549.828000", "115549.843000", "115549.843000", "115549.843000", "115549.843000", "115609.781000", "115609.781000", "115609.781000", "115609.781000", "115609.781000", "115609.796000", "115609.796000", "115609.796000", "115609.796000", "115609.796000", "115609.796000", "115609.796000", "115609.812000", "115609.812000", "115609.812000", "115609.812000", "115609.812000", "115609.812000", "115609.812000", "115609.828000", "115609.828000", "115609.828000", "115609.828000", "115609.828000", "115609.843000", "115616.500000", "115616.500000", "115616.500000", "115616.500000", "115616.515000", "115616.515000", "115616.515000", "115616.515000", "115616.515000"],
