{
  "AcquisitionMatrixPE": 104,
  "AcquisitionNumber": 1,
  "AcquisitionTime": "11:15:57.005000",
  "BandwidthPerPixelPhaseEncode": 13.935,
  "BaseResolution": 104,
  "CoilString": "C:HEA;HEP",
  "ConversionSoftware": "dcm2niix",
  "ConversionSoftwareVersion": "v1.0.20210317",
  "DerivedVendorReportedEchoSpacing": 0.000690017,
  "DeviceSerialNumber": "35450",
  "DwellTime": 2.5e-06,
  "EchoTime": 0.0348,
  "EffectiveEchoSpacing": 0.000690017,
  "FlipAngle": 55,
  "ImageComments": "Unaliased MB8/PE3 (remote)",
  "ImageOrientationPatientDICOM": [1, 0, 0, 0, 0.949972, -0.312335],
  "ImageType": [
    "ORIGINAL",
    "PRIMARY",
    "M",
    "MB",
    "ND",
    "MOSAIC"
],
  "ImagingFrequency": 123.234,
  "InPlanePhaseEncodingDirectionDICOM": "COL",
  "InstitutionAddress": "Univeristy Ave. 197,Newark,North East,US,07102-1814",
  "InstitutionName": "RUBIC",
  "InstitutionalDepartmentName": "Department",
  "MRAcquisitionType": "2D",
  "MagneticFieldStrength": 3,
  "Manufacturer": "Siemens",
  "ManufacturersModelName": "TrioTim",
  "Modality": "MR",
  "MultibandAccelerationFactor": 8,
  "PartialFourier": 0.875,
  "PatientPosition": "HFS",
  "PercentPhaseFOV": 100,
  "PercentSampling": 100,
  "PhaseEncodingDirection": "j-",
  "PhaseEncodingSteps": 91,
  "PhaseResolution": 1,
  "PixelBandwidth": 1923,
  "ProcedureStepDescription": "Cole^Michael",
  "ProtocolName": "cmrr_mbep2d_bold_2mm_MB8_Task_8x",
  "PulseSequenceDetails": "%CustomerSeq%\\cmrr_mbep2d_bold",
  "ReceiveCoilName": "32Ch_Head",
  "ReconMatrixPE": 104,
  "RepetitionTime": 0.785,
  "SAR": 0.180574,
  "ScanOptions": "PFP\\FS",
  "ScanningSequence": "EP",
  "SequenceName": "epfid2d1_104",
  "SequenceVariant": "SK\\SS",
  "SeriesDescription": "cmrr_mbep2d_bold_2mm_MB8_Task_8x",
  "SeriesNumber": 13,
  "ShimSetting": [2095, -327, -7234, 340, 86, -805, -102, 83],
  "SliceThickness": 2,
  "SliceTiming": [0, 0.4375, 0.0875, 0.525, 0.175, 0.6125, 0.2625, 0.7, 0.35, 0, 0.4375, 0.0875, 0.525, 0.175, 0.6125, 0.2625, 0.7, 0.35, 0, 0.4375, 0.0875, 0.525, 0.175, 0.6125, 0.2625, 0.7, 0.35, 0, 0.4375, 0.0875, 0.525, 0.175, 0.6125, 0.2625, 0.7, 0.35, 0, 0.4375, 0.0875, 0.525, 0.175, 0.6125, 0.2625, 0.7, 0.35, 0, 0.4375, 0.0875, 0.525, 0.175, 0.6125, 0.2625, 0.7, 0.35, 0, 0.4375, 0.0875, 0.525, 0.175, 0.6125, 0.2625, 0.7, 0.35, 0, 0.4375, 0.0875, 0.525, 0.175, 0.6125, 0.2625, 0.7, 0.35],
  "SoftwareVersions": "syngo MR B19",
  "SpacingBetweenSlices": 2,
  "StationName": "MRC35450",
  "TaskName": "cpro",
  "TotalReadoutTime": 0.0710717,
  "TxRefAmp": 406.306,
  "dcmmeta_affine": [
    [-2.0, 0.0, 0.0, 103.32203674316406],
    [0.0, 1.8999440670013428, -0.6246698498725891, -70.30490112304688],
    [0.0, 0.6246698498725891, 1.8999441862106323, -136.6524200439453],
    [0.0, 0.0, 0.0, 1.0]
],
  "dcmmeta_reorient_transform": [
    [0.0, -1.0, 0.0, 103.0],
    [1.0, 0.0, 0.0, 0.0],
    [0.0, 0.0, 1.0, 0.0],
    [0.0, 0.0, 0.0, 1.0]
],
  "dcmmeta_shape": [104, 104, 72, 581],
  "dcmmeta_slice_dim": 2,
  "dcmmeta_version": 0.6,
  "global": {
    "const": {
      "AcquisitionMatrix": [104, 0, 0, 104],
      "AngioFlag": "N",
      "BitsAllocated": 16,
      "BitsStored": 12,
      "Columns": 936,
      "EchoNumbers": 1,
      "EchoTime": 34.8,
      "EchoTrainLength": 1,
      "FlipAngle": 55.0,
      "HighBit": 11,
      "ImageOrientationPatient": [1.0, 0.0, 0.0, 0.0, 0.94997205164204, -0.3123349181552],
      "ImagePositionPatient": [-935.32203388214, -915.76608543888, 187.55121764621],
      "ImageType": [
        "ORIGINAL",
        "PRIMARY",
        "M",
        "MB",
        "ND",
        "MOSAIC"
],
      "ImagedNucleus": "1H",
      "ImagingFrequency": 123.234496,
      "InPlanePhaseEncodingDirection": "COL",
      "MRAcquisitionType": "2D",
      "MagneticFieldStrength": 3.0,
      "Manufacturer": "SIEMENS",
      "ManufacturerModelName": "TrioTim",
      "Modality": "MR",
      "NumberOfAverages": 1.0,
      "NumberOfPhaseEncodingSteps": 91,
      "PercentPhaseFieldOfView": 100.0,
      "PercentSampling": 100.0,
      "PerformedProcedureStepStartTime": "101140.109000",
      "PhotometricInterpretation": "MONOCHROME2",
      "PixelBandwidth": 1923.0,
      "PixelRepresentation": 0,
      "PixelSpacing": [2.0, 2.0],
      "ProtocolName": "cmrr_mbep2d_bold_2mm_MB8_Task_8x",
      "RepetitionTime": 785.0,
      "Rows": 936,
      "SAR": 0.18057408205522,
      "SamplesPerPixel": 1,
      "ScanOptions": [
        "PFP",
        "FS"
],
      "ScanningSequence": "EP",
      "SequenceName": "epfid2d1_104",
      "SequenceVariant": [
        "SK",
        "SS"
],
      "SeriesDescription": "cmrr_mbep2d_bold_2mm_MB8_Task_8x",
      "SeriesNumber": 13,
      "SeriesTime": "111625.421000",
      "SliceLocation": -107.85731032954,
      "SliceThickness": 2.0,
      "SmallestImagePixelValue": 0,
      "SoftwareVersions": "syngo MR B19",
      "SpacingBetweenSlices": 2.0000000402544,
      "SpecificCharacterSet": "ISO_IR 100",
      "StudyID": "1",
      "StudyTime": "101140.078000",
      "TransmitCoilName": "Body",
      "VariableFlipAngleFlag": "N",
      "WindowCenterWidthExplanation": "Algo1",
      "dBdt": 0.0},
    "slices": {}
  },
  "time": {
    "samples": {
      "AcquisitionNumber": [1, 2, 3, 4, 5, 6, 7, 8, 9, 10, 11, 12, 13, 14, 15, 16, 17, 18, 19, 20, 21, 22, 23, 24, 25, 26, 27, 28, 29, 30, 31, 32, 33, 34, 35, 36, 37, 38, 39, 40, 41, 42, 43, 44, 45, 46, 47, 48, 49, 50, 51, 52, 53, 54, 55, 56, 57, 58, 59, 60, 61, 62, 63, 64, 65, 66, 67, 68, 69, 70, 71, 72, 73, 74, 75, 76, 77, 78, 79, 80, 81, 82, 83, 84, 85, 86, 87, 88, 89, 90, 91, 92, 93, 94, 95, 96, 97, 98, 99, 100, 101, 102, 103, 104, 105, 106, 107, 108, 109, 110, 111, 112, 113, 114, 115, 116, 117, 118, 119, 120, 121, 122, 123, 124, 125, 126, 127, 128, 129, 130, 131, 132, 133, 134, 135, 136, 137, 138, 139, 140, 141, 142, 143, 144, 145, 146, 147, 148, 149, 150, 151, 152, 153, 154, 155, 156, 157, 158, 159, 160, 161, 162, 163, 164, 165, 166, 167, 168, 169, 170, 171, 172, 173, 174, 175, 176, 177, 178, 179, 180, 181, 182, 183, 184, 185, 186, 187, 188, 189, 190, 191, 192, 193, 194, 195, 196, 197, 198, 199, 200, 201, 202, 203, 204, 205, 206, 207, 208, 209, 210, 211, 212, 213, 214, 215, 216, 217, 218, 219, 220, 221, 222, 223, 224, 225, 226, 227, 228, 229, 230, 231, 232, 233, 234, 235, 236, 237, 238, 239, 240, 241, 242, 243, 244, 245, 246, 247, 248, 249, 250, 251, 252, 253, 254, 255, 256, 257, 258, 259, 260, 261, 262, 263, 264, 265, 266, 267, 268, 269, 270, 271, 272, 273, 274, 275, 276, 277, 278, 279, 280, 281, 282, 283, 284, 285, 286, 287, 288, 289, 290, 291, 292, 293, 294, 295, 296, 297, 298, 299, 300, 301, 302, 303, 304, 305, 306, 307, 308, 309, 310, 311, 312, 313, 314, 315, 316, 317, 318, 319, 320, 321, 322, 323, 324, 325, 326, 327, 328, 329, 330, 331, 332, 333, 334, 335, 336, 337, 338, 339, 340, 341, 342, 343, 344, 345, 346, 347, 348, 349, 350, 351, 352, 353, 354, 355, 356, 357, 358, 359, 360, 361, 362, 363, 364, 365, 366, 367, 368, 369, 370, 371, 372, 373, 374, 375, 376, 377, 378, 379, 380, 381, 382, 383, 384, 385, 386, 387, 388, 389, 390, 391, 392, 393, 394, 395, 396, 397, 398, 399, 400, 401, 402, 403, 404, 405, 406, 407, 408, 409, 410, 411, 412, 413, 414, 415, 416, 417, 418, 419, 420, 421, 422, 423, 424, 425, 426, 427, 428, 429, 430, 431, 432, 433, 434, 435, 436, 437, 438, 439, 440, 441, 442, 443, 444, 445, 446, 447, 448, 449, 450, 451, 452, 453, 454, 455, 456, 457, 458, 459, 460, 461, 462, 463, 464, 465, 466, 467, 468, 469, 470, 471, 472, 473, 474, 475, 476, 477, 478, 479, 480, 481, 482, 483, 484, 485, 486, 487, 488, 489, 490, 491, 492, 493, 494, 495, 496, 497, 498, 499, 500, 501, 502, 503, 504, 505, 506, 507, 508, 509, 510, 511, 512, 513, 514, 515, 516, 517, 518, 519, 520, 521, 522, 523, 524, 525, 526, 527, 528, 529, 530, 531, 532, 533, 534, 535, 536, 537, 538, 539, 540, 541, 542, 543, 544, 545, 546, 547, 548, 549, 550, 551, 552, 553, 554, 555, 556, 557, 558, 559, 560, 561, 562, 563, 564, 565, 566, 567, 568, 569, 570, 571, 572, 573, 574, 575, 576, 577, 578, 579, 580, 581],
      "AcquisitionTime": ["111557.005000", "111557.792500", "111558.580000", "111559.367500", "111600.157500", "111600.945000", "111601.732500", "111602.520000", "111603.310000", "111604.097500", "111604.885000", "111605.672500", "111606.462500", "111607.250000", "111608.037500", "111608.825000", "111609.615000", "111610.402500", "111611.190000", "111611.977500", "111612.767500", "111613.555000", "111614.342500", "111615.132500", "111615.920000", "111616.707500", "111617.495000", "111618.285000", "111619.072500", "111619.860000", "111620.647500", "111621.437500", "111622.225000", "111623.012500", "111623.800000", "111624.590000", "111625.377500", "111626.165000", "111626.952500", "111627.742500", "111628.530000", "111629.317500", "111630.105000", "111630.895000", "111631.682500", "111632.470000", "111633.260000", "111634.047500", "111634.835000", "111635.622500", "111636.412500", "111637.200000", "111637.987500", "111638.775000", "111639.565000", "111640.352500", "111641.140000", "111641.927500", "111642.717500", "111643.505000", "111644.292500", "111645.080000", "111645.870000", "111646.657500", "111647.445000", "111648.232500", "111649.022500", "111649.810000", "111650.597500", "111651.387500", "111652.175000", "111652.962500", "111653.750000", "111654.540000", "111655.327500", "111656.115000", "111656.902500", "111657.692500", "111658.480000", "111659.267500", "111700.055000", "111700.845000", "111701.632500", "111702.420000", "111703.207500", "111703.997500", "111704.785000", "111705.572500", "111706.360000", "111707.150000", "111707.937500", "111708.725000", "111709.515000", "111710.302500", "111711.090000", "111711.877500", "111712.667500", "111713.455000", "111714.242500", "111715.030000", "111715.820000", "111716.607500", "111717.395000", "111718.182500", "111718.972500", "111719.760000", "111720.547500", "111721.335000", "111722.125000", "111722.912500", "111723.700000", "111724.487500", "111725.277500", "111726.065000", "111726.852500", "111727.642500", "111728.430000", "111729.217500", "111730.005000", "111730.795000", "111731.582500", "111732.370000", "111733.157500", "111733.947500", "111734.735000", "111735.522500", "111736.310000", "111737.100000", "111737.887500", "111738.675000", "111739.462500", "111740.252500", "111741.040000", "111741.827500", "111742.615000", "111743.405000", "111744.192500", "111744.980000", "111745.770000", "111746.557500", "111747.345000", "111748.132500", "111748.922500", "111749.710000", "111750.497500", "111751.285000", "111752.075000", "111752.862500", "111753.650000", "111754.437500", "111755.227500", "111756.015000", "111756.802500", "111757.590000", "111758.380000", "111759.167500", "111759.955000", "111800.742500", "111801.532500", "111802.320000", "111803.107500", "111803.897500", "111804.685000", "111805.472500", "111806.260000", "111807.050000", "111807.837500", "111808.625000", "111809.412500", "111810.202500", "111810.990000", "111811.777500", "111812.565000", "111813.355000", "111814.142500", "111814.930000", "111815.717500", "111816.507500", "111817.295000", "111818.082500", "111818.872500", "111819.660000", "111820.447500", "111821.235000", "111822.025000", "111822.812500", "111823.600000", "111824.387500", "111825.177500", "111825.965000", "111826.752500", "111827.540000", "111828.330000", "111829.117500", "111829.905000", "111830.692500", "111831.482500", "111832.270000", "111833.057500", "111833.845000", "111834.635000", "111835.422500", "111836.210000", "111837.000000", "111837.787500", "111838.575000", "111839.362500", "111840.152500", "111840.940000", "111841.727500", "111842.515000", "111843.305000", "111844.092500", "111844.880000", "111845.667500", "111846.457500", "111847.245000", "111848.032500", "111848.820000", "111849.610000", "111850.397500", "111851.185000", "111851.972500", "111852.762500", "111853.550000", "111854.337500", "111855.127500", "111855.915000", "111856.702500", "111857.490000", "111858.280000", "111859.067500", "111859.855000", "111900.642500", "111901.432500", "111902.220000", "111903.007500", "111903.795000", "111904.585000", "111905.372500", "111906.160000", "111906.947500", "111907.737500", "111908.525000", "111909.312500", "111910.100000", "111910.890000", "111911.677500", "111912.465000", "111913.255000", "111914.042500", "111914.830000", "111915.617500", "111916.407500", "111917.195000", "111917.982500", "111918.770000", "111919.560000", "111920.347500", "111921.135000", "111921.922500", "111922.712500", "111923.500000", "111924.287500", "111925.075000", "111925.865000", "111926.652500", "111927.440000", "111928.227500", "111929.017500", "111929.805000", "111930.592500", "111931.382500", "111932.170000", "111932.957500", "111933.745000", "111934.535000", "111935.322500", "111936.110000", "111936.897500", "111937.687500", "111938.475000", "111939.262500", "111940.050000", "111940.840000", "111941.627500", "111942.415000", "111943.202500", "111943.992500", "111944.780000", "111945.567500", "111946.355000", "111947.145000", "111947.932500", "111948.720000", "111949.510000", "111950.297500", "111951.085000", "111951.872500", "111952.662500", "111953.450000", "111954.237500", "111955.025000", "111955.815000", "111956.602500", "111957.390000", "111958.177500", "111958.967500", "111959.755000", "112000.542500", "112001.330000", "112002.120000", "112002.907500", "112003.695000", "112004.482500", "112005.272500", "112006.060000", "112006.847500", "112007.637500", "112008.425000", "112009.212500", "112010.000000", "112010.790000", "112011.577500", "112012.365000", "112013.152500", "112013.942500", "112014.730000", "112015.517500", "112016.305000", "112017.095000", "112017.882500", "112018.670000", "112019.457500", "112020.247500", "112021.035000", "112021.822500", "112022.610000", "112023.400000", "112024.187500", "112024.975000", "112025.765000", "112026.552500", "112027.340000", "112028.127500", "112028.917500", "112029.705000", "112030.492500", "112031.280000", "112032.070000", "112032.857500", "112033.645000", "112034.432500", "112035.222500", "112036.010000", "112036.797500", "112037.585000", "112038.375000", "112039.162500", "112039.950000", "112040.737500", "112041.527500", "112042.315000", "112043.102500", "112043.892500", "112044.680000", "112045.467500", "112046.255000", "112047.045000", "112047.832500", "112048.620000", "112049.407500", "112050.197500", "112050.985000", "112051.772500", "112052.560000", "112053.350000", "112054.137500", "112054.925000", "112055.712500", "112056.502500", "112057.290000", "112058.077500", "112058.865000", "112059.655000", "112100.442500", "112101.230000", "112102.020000", "112102.807500", "112103.595000", "112104.382500", "112105.172500", "112105.960000", "112106.747500", "112107.535000", "112108.325000", "112109.112500", "112109.900000", "112110.687500", "112111.477500", "112112.265000", "112113.052500", "112113.840000", "112114.630000", "112115.417500", "112116.205000", "112116.992500", "112117.782500", "112118.570000", "112119.357500", "112120.147500", "112120.935000", "112121.722500", "112122.510000", "112123.300000", "112124.087500", "112124.875000", "112125.662500", "112126.452500", "112127.240000", "112128.027500", "112128.815000", "112129.605000", "112130.392500", "112131.180000", "112131.967500", "112132.757500", "112133.545000", "112134.332500", "112135.122500", "112135.910000", "112136.697500", "112137.485000", "112138.275000", "112139.062500", "112139.850000", "112140.637500", "112141.427500", "112142.215000", "112143.002500", "112143.790000", "112144.580000", "112145.367500", "112146.155000", "112146.942500", "112147.732500", "112148.520000", "112149.307500", "112150.095000", "112150.885000", "112151.672500", "112152.460000", "112153.250000", "112154.037500", "112154.825000", "112155.612500", "112156.402500", "112157.190000", "112157.977500", "112158.765000", "112159.555000", "112200.342500", "112201.130000", "112201.917500", "112202.707500", "112203.495000", "112204.282500", "112205.070000", "112205.860000", "112206.647500", "112207.435000", "112208.222500", "112209.012500", "112209.800000", "112210.587500", "112211.377500", "112212.165000", "112212.952500", "112213.740000", "112214.530000", "112215.317500", "112216.105000", "112216.892500", "112217.682500", "112218.470000", "112219.257500", "112220.045000", "112220.835000", "112221.622500", "112222.410000", "112223.197500", "112223.987500", "112224.775000", "112225.562500", "112226.350000", "112227.140000", "112227.927500", "112228.715000", "112229.505000", "112230.292500", "112231.080000", "112231.867500", "112232.657500", "112233.445000", "112234.232500", "112235.020000", "112235.810000", "112236.597500", "112237.385000", "112238.172500", "112238.962500", "112239.750000", "112240.537500", "112241.325000", "112242.115000", "112242.902500", "112243.690000", "112244.477500", "112245.267500", "112246.055000", "112246.842500", "112247.632500", "112248.420000", "112249.207500", "112249.995000", "112250.785000", "112251.572500", "112252.360000", "112253.147500", "112253.937500", "112254.725000", "112255.512500", "112256.300000", "112257.090000", "112257.877500", "112258.665000", "112259.452500", "112300.242500", "112301.030000", "112301.817500", "112302.605000", "112303.395000", "112304.182500", "112304.970000", "112305.760000", "112306.547500", "112307.335000", "112308.122500", "112308.912500", "112309.700000", "112310.487500", "112311.275000", "112312.065000", "112312.852500", "112313.640000", "112314.427500", "112315.217500", "112316.005000", "112316.792500", "112317.580000", "112318.370000", "112319.157500", "112319.945000", "112320.732500", "112321.522500", "112322.310000", "112323.097500", "112323.887500", "112324.675000", "112325.462500", "112326.250000", "112327.040000", "112327.827500", "112328.615000", "112329.402500", "112330.192500", "112330.980000", "112331.767500", "112332.555000", "112333.345000", "112334.132500"],
      "ContentTime": ["111625.437000", "111625.437000", "111625.437000", "111625.437000", "111625.437000", "111625.437000", "111625.437000", "111625.437000", "111625.453000", "111625.453000", "111625.453000", "111625.453000", "111625.453000", "111625.453000", "111625.453000", "111625.468000", "111625.468000", "111625.468000", "111625.468000", "111625.468000", "111625.468000", "111625.468000", "111625.468000", "111625.484000", "111625.484000", "111625.484000", "111625.484000", "111625.484000", "111625.484000", "111625.484000", "111625.500000", "111625.500000", "111625.500000", "111625.500000", "111645.406000", "111645.406000", "111645.406000", "111645.406000", "111645.421000", "111645.421000", "111645.421000", "111645.421000", "111645.421000", "111645.421000", "111645.421000", "111645.421000", "111645.437000", "111645.437000", "111645.437000", "111645.437000", "111645.437000", "111645.437000", "111645.437000", "111645.453000", "111645.453000", "111645.453000", "111645.453000", "111645.453000", "111645.453000", "111645.453000", "111705.406000", "111705.406000", "111705.406000", "111705.406000", "111705.421000", "111705.421000", "111705.421000", "111705.421000", "111705.421000", "111705.421000", "111705.421000", "111705.421000", "111705.437000", "111705.437000", "111705.437000", "111705.437000", "111705.437000", "111705.437000", "111705.437000", "111705.453000", "111705.453000", "111705.453000", "111705.453000", "111705.453000", "111705.453000", "111725.406000", "111725.406000", "111725.406000", "111725.406000", "111725.421000", "111725.421000", "111725.421000", "111725.421000", "111725.421000", "111725.421000", "111725.421000", "111725.421000", "111725.437000", "111725.437000", "111725.437000", "111725.437000", "111725.437000", "111725.437000", "111725.453000", "111725.453000", "111725.453000", "111725.453000", "111725.453000", "111725.453000", "111725.453000", "111725.453000", "111745.406000", "111745.406000", "111745.406000", "111745.406000", "111745.421000", "111745.421000", "111745.421000", "111745.421000", "111745.421000", "111745.437000", "111745.437000", "111745.437000", "111745.437000", "111745.437000", "111745.437000", "111745.437000", "111745.437000", "111745.453000", "111745.453000", "111745.453000", "111745.453000", "111745.453000", "111745.453000", "111745.468000", "111745.468000", "111805.406000", "111805.406000", "111805.406000", "111805.406000", "111805.421000", "111805.421000", "111805.421000", "111805.421000", "111805.421000", "111805.421000", "111805.421000", "111805.421000", "111805.437000", "111805.437000", "111805.437000", "111805.437000", "111805.437000", "111805.437000", "111805.437000", "111805.453000", "111805.453000", "111805.453000", "111805.453000", "111805.453000", "111805.453000", "111805.453000", "111825.406000", "111825.406000", "111825.406000", "111825.406000", "111825.421000", "111825.421000", "111825.421000", "111825.421000", "111825.421000", "111825.421000", "111825.421000", "111825.421000", "111825.437000", "111825.437000", "111825.437000", "111825.437000", "111825.437000", "111825.437000", "111825.437000", "111825.453000", "111825.453000", "111825.453000", "111825.453000", "111825.453000", "111825.453000", "111845.406000", "111845.406000", "111845.406000", "111845.406000", "111845.421000", "111845.421000", "111845.421000", "111845.421000", "111845.421000", "111845.421000", "111845.421000", "111845.421000", "111845.437000", "111845.437000", "111845.437000", "111845.437000", "111845.437000", "111845.437000", "111845.437000", "111845.453000", "111845.453000", "111845.453000", "111845.453000", "111845.453000", "111845.453000", "111845.453000", "111905.406000", "111905.406000", "111905.406000", "111905.406000", "111905.421000", "111905.421000", "111905.421000", "111905.421000", "111905.421000", "111905.421000", "111905.437000", "111905.437000", "111905.437000", "111905.437000", "111905.437000", "111905.437000", "111905.453000", "111905.453000", "111905.453000", "111905.453000", "111905.453000", "111905.453000", "111905.453000", "111905.468000", "111905.468000", "111925.406000", "111925.406000", "111925.406000", "111925.406000", "111925.421000", "111925.421000", "111925.421000", "111925.421000", "111925.421000", "111925.421000", "111925.421000", "111925.421000", "111925.437000", "111925.437000", "111925.437000", "111925.437000", "111925.437000", "111925.437000", "111925.453000", "111925.453000", "111925.453000", "111925.453000", "111925.453000", "111925.453000", "111925.453000", "111945.406000", "111945.406000", "111945.406000", "111945.406000", "111945.421000", "111945.421000", "111945.421000", "111945.421000", "111945.421000", "111945.421000", "111945.421000", "111945.421000", "111945.437000", "111945.437000", "111945.437000", "111945.437000", "111945.437000", "111945.437000", "111945.437000", "111945.453000", "111945.453000", "111945.453000", "111945.453000", "111945.453000", "111945.453000", "111945.453000", "112005.406000", "112005.406000", "112005.406000", "112005.421000", "112005.421000", "112005.421000", "112005.421000", "112005.421000", "112005.421000", "112005.437000", "112005.437000", "112005.437000", "112005.437000", "112005.437000", "112005.437000", "112005.437000", "112005.437000", "112005.453000", "112005.453000", "112005.453000", "112005.453000", "112005.453000", "112005.453000", "112005.453000", "112005.468000", "112025.406000", "112025.406000", "112025.406000", "112025.406000", "112025.421000", "112025.421000", "112025.421000", "112025.421000", "112025.421000", "112025.421000", "112025.421000", "112025.421000", "112025.437000", "112025.437000", "112025.437000", "112025.437000", "112025.437000", "112025.437000", "112025.437000", "112025.453000", "112025.453000", "112025.453000", "112025.453000", "112025.453000", "112025.453000", "112025.453000", "112045.406000", "112045.406000", "112045.406000", "112045.406000", "112045.421000", "112045.421000", "112045.421000", "112045.421000", "112045.421000", "112045.421000", "112045.421000", "112045.421000", "112045.437000", "112045.437000", "112045.437000", "112045.437000", "112045.437000", "112045.437000", "112045.437000", "112045.453000", "112045.453000", "112045.453000", "112045.453000", "112045.453000", "112045.468000", "112105.406000", "112105.406000", "112105.406000", "112105.406000", "112105.421000", "112105.421000", "112105.421000", "112105.421000", "112105.421000", "112105.421000", "112105.421000", "112105.421000", "112105.437000", "112105.437000", "112105.437000", "112105.437000", "112105.437000", "112105.437000", "112105.437000", "112105.437000", "112105.453000", "112105.453000", "112105.453000", "112105.453000", "112105.453000", "112105.453000", "112125.406000", "112125.406000", "112125.406000", "112125.406000", "112125.421000", "112125.421000", "112125.421000", "112125.421000", "112125.421000", "112125.421000", "112125.421000", "112125.421000", "112125.437000", "112125.437000", "112125.437000", "112125.437000", "112125.437000", "112125.453000", "112125.453000", "112125.453000", "112125.453000", "112125.453000", "112125.453000", "112125.453000", "112125.453000", "112145.406000", "112145.406000", "112145.406000", "112145.406000", "112145.421000", "112145.421000", "112145.421000", "112145.421000", "112145.421000", "112145.421000", "112145.421000", "112145.421000", "112145.437000", "112145.437000", "112145.437000", "112145.437000", "112145.437000", "112145.437000", "112145.437000", "112145.453000", "112145.453000", "112145.453000", "112145.453000", "112145.453000", "112145.453000", "112145.453000", "112205.406000", "112205.406000", "112205.406000", "112205.406000", "112205.421000", "112205.421000", "112205.421000", "112205.421000", "112205.421000", "112205.421000", "112205.437000", "112205.437000", "112205.437000", "112205.437000", "112205.437000", "112205.437000", "112205.437000", "112205.453000", "112205.453000", "112205.453000", "112205.453000", "112205.453000", "112205.453000", "112205.468000", "112205.468000", "112225.406000", "112225.406000", "112225.406000", "112225.406000", "112225.421000", "112225.421000", "112225.421000", "112225.421000", "112225.421000", "112225.421000", "112225.437000", "112225.437000", "112225.437000", "112225.437000", "112225.437000", "112225.437000", "112225.437000", "112225.453000", "112225.453000", "112225.453000", "112225.453000", "112225.453000", "112225.453000", "112225.453000", "112225.468000", "112225.468000", "112245.406000", "112245.406000", "112245.406000", "112245.406000", "112245.421000", "112245.421000", "112245.421000", "112245.421000", "112245.421000", "112245.421000", "112245.421000", "112245.437000", "112245.437000", "112245.437000", "112245.437000", "112245.437000", "112245.437000", "112245.453000", "112245.453000", "112245.453000", "112245.453000", "112245.453000", "112245.453000", "112245.468000", "112245.468000", "112305.406000", "112305.406000", "112305.406000", "112305.406000", "112305.421000", "112305.421000", "112305.421000", "112305.421000", "112305.421000", "112305.421000", "112305.421000", "112305.421000", "112305.437000", "112305.437000", "112305.437000", "112305.437000", "112305.437000", "112305.437000", "112305.437000", "112305.453000", "112305.453000", "112305.453000", "112305.453000", "112305.453000", "112305.453000", "112305.453000", "112325.406000", "112325.406000", "112325.406000", "112325.406000", "112325.421000", "112325.421000", "112325.421000", "112325.421000", "112325.421000", "112325.421000", "112325.421000", "112325.421000", "112325.437000", "112325.437000", "112325.437000", "112325.437000", "112325.437000", "112325.437000", "112325.437000", "112325.453000", "112325.453000", "112325.453000", "112325.453000", "112325.453000", "112325.453000", "112334.343000", "112334.343000", "112334.343000", "112334.343000", "112334.343000", "112334.343000", "112334.343000", "112334.359000", "112334.359000", "112334.359000", "112334.359000", "112334.359000"],
