{
  "AcquisitionMatrixPE": 104,
  "AcquisitionNumber": 1,
  "AcquisitionTime": "12:12:46.690000",
  "BandwidthPerPixelPhaseEncode": 13.935,
  "BaseResolution": 104,
  "CoilString": "C:HEA;HEP",
  "ConversionSoftware": "dcm2niix",
  "ConversionSoftwareVersion": "v1.0.20210317",
  "DerivedVendorReportedEchoSpacing": 0.000690017,
  "DeviceSerialNumber": "35450",
  "DwellTime": 2.5e-06,
  "EchoTime": 0.0348,
  "EffectiveEchoSpacing": 0.000690017,
  "FlipAngle": 55,
  "ImageComments": "Unaliased MB8/PE3 (remote)",
  "ImageOrientationPatientDICOM": [1, 0, 0, 0, 0.949972, -0.312335],
  "ImageType": [
    "ORIGINAL",
    "PRIMARY",
    "M",
    "MB",
    "ND",
    "MOSAIC"
],
  "ImagingFrequency": 123.234,
  "InPlanePhaseEncodingDirectionDICOM": "COL",
  "InstitutionAddress": "Univeristy Ave. 197,Newark,North East,US,07102-1814",
  "InstitutionName": "RUBIC",
  "InstitutionalDepartmentName": "Department",
  "MRAcquisitionType": "2D",
  "MagneticFieldStrength": 3,
  "Manufacturer": "Siemens",
  "ManufacturersModelName": "TrioTim",
  "Modality": "MR",
  "MultibandAccelerationFactor": 8,
  "PartialFourier": 0.875,
  "PatientPosition": "HFS",
  "PercentPhaseFOV": 100,
  "PercentSampling": 100,
  "PhaseEncodingDirection": "j-",
  "PhaseEncodingSteps": 91,
  "PhaseResolution": 1,
  "PixelBandwidth": 1923,
  "ProcedureStepDescription": "Cole^Michael",
  "ProtocolName": "cmrr_mbep2d_bold_2mm_MB8_Task_8x",
  "PulseSequenceDetails": "%CustomerSeq%\\cmrr_mbep2d_bold",
  "ReceiveCoilName": "32Ch_Head",
  "ReconMatrixPE": 104,
  "RepetitionTime": 0.785,
  "SAR": 0.173036,
  "ScanOptions": "PFP\\FS",
  "ScanningSequence": "EP",
  "SequenceName": "epfid2d1_104",
  "SequenceVariant": "SK\\SS",
  "SeriesDescription": "cmrr_mbep2d_bold_2mm_MB8_Task_8x",
  "SeriesNumber": 27,
  "ShimSetting": [2095, -327, -7234, 340, 86, -805, -102, 83],
  "SliceThickness": 2,
  "SliceTiming": [0, 0.4375, 0.0875, 0.525, 0.175, 0.6125, 0.2625, 0.7, 0.35, 0, 0.4375, 0.0875, 0.525, 0.175, 0.6125, 0.2625, 0.7, 0.35, 0, 0.4375, 0.0875, 0.525, 0.175, 0.6125, 0.2625, 0.7, 0.35, 0, 0.4375, 0.0875, 0.525, 0.175, 0.6125, 0.2625, 0.7, 0.35, 0, 0.4375, 0.0875, 0.525, 0.175, 0.6125, 0.2625, 0.7, 0.35, 0, 0.4375, 0.0875, 0.525, 0.175, 0.6125, 0.2625, 0.7, 0.35, 0, 0.4375, 0.0875, 0.525, 0.175, 0.6125, 0.2625, 0.7, 0.35, 0, 0.4375, 0.0875, 0.525, 0.175, 0.6125, 0.2625, 0.7, 0.35],
  "SoftwareVersions": "syngo MR B19",
  "SpacingBetweenSlices": 2,
  "StationName": "MRC35450",
  "TaskName": "cpro",
  "TotalReadoutTime": 0.0710717,
  "TxRefAmp": 406.306,
  "dcmmeta_affine": [
    [-2.0, 0.0, 0.0, 103.32203674316406],
    [0.0, 1.8999440670013428, -0.6246698498725891, -70.30490112304688],
    [0.0, 0.6246698498725891, 1.8999441862106323, -136.6524200439453],
    [0.0, 0.0, 0.0, 1.0]
],
  "dcmmeta_reorient_transform": [
    [0.0, -1.0, 0.0, 103.0],
    [1.0, 0.0, 0.0, 0.0],
    [0.0, 0.0, 1.0, 0.0],
    [0.0, 0.0, 0.0, 1.0]
],
  "dcmmeta_shape": [104, 104, 72, 581],
  "dcmmeta_slice_dim": 2,
  "dcmmeta_version": 0.6,
  "global": {
    "const": {
      "AcquisitionMatrix": [104, 0, 0, 104],
      "AngioFlag": "N",
      "BitsAllocated": 16,
      "BitsStored": 12,
      "Columns": 936,
      "EchoNumbers": 1,
      "EchoTime": 34.8,
      "EchoTrainLength": 1,
      "FlipAngle": 55.0,
      "HighBit": 11,
      "ImageOrientationPatient": [1.0, 0.0, 0.0, 0.0, 0.94997205164204, -0.3123349181552],
      "ImagePositionPatient": [-935.32203388214, -915.76608543888, 187.55121764621],
      "ImageType": [
        "ORIGINAL",
        "PRIMARY",
        "M",
        "MB",
        "ND",
        "MOSAIC"
],
      "ImagedNucleus": "1H",
      "ImagingFrequency": 123.234496,
      "InPlanePhaseEncodingDirection": "COL",
      "MRAcquisitionType": "2D",
      "MagneticFieldStrength": 3.0,
      "Manufacturer": "SIEMENS",
      "ManufacturerModelName": "TrioTim",
      "Modality": "MR",
      "NumberOfAverages": 1.0,
      "NumberOfPhaseEncodingSteps": 91,
      "PercentPhaseFieldOfView": 100.0,
      "PercentSampling": 100.0,
      "PerformedProcedureStepStartTime": "101140.109000",
      "PhotometricInterpretation": "MONOCHROME2",
      "PixelBandwidth": 1923.0,
      "PixelRepresentation": 0,
      "PixelSpacing": [2.0, 2.0],
      "ProtocolName": "cmrr_mbep2d_bold_2mm_MB8_Task_8x",
      "RepetitionTime": 785.0,
      "Rows": 936,
      "SAR": 0.17303574200133,
      "SamplesPerPixel": 1,
      "ScanOptions": [
        "PFP",
        "FS"
],
      "ScanningSequence": "EP",
      "SequenceName": "epfid2d1_104",
      "SequenceVariant": [
        "SK",
        "SS"
],
      "SeriesDescription": "cmrr_mbep2d_bold_2mm_MB8_Task_8x",
      "SeriesNumber": 27,
      "SeriesTime": "121309.812000",
      "SliceLocation": -107.85731032954,
      "SliceThickness": 2.0,
      "SmallestImagePixelValue": 0,
      "SoftwareVersions": "syngo MR B19",
      "SpacingBetweenSlices": 2.0000000402544,
      "SpecificCharacterSet": "ISO_IR 100",
      "StudyID": "1",
      "StudyTime": "101140.078000",
      "TransmitCoilName": "Body",
      "VariableFlipAngleFlag": "N",
      "WindowCenterWidthExplanation": "Algo1",
      "dBdt": 0.0},
    "slices": {}
  },
  "time": {
    "samples": {
      "AcquisitionNumber": [1, 2, 3, 4, 5, 6, 7, 8, 9, 10, 11, 12, 13, 14, 15, 16, 17, 18, 19, 20, 21, 22, 23, 24, 25, 26, 27, 28, 29, 30, 31, 32, 33, 34, 35, 36, 37, 38, 39, 40, 41, 42, 43, 44, 45, 46, 47, 48, 49, 50, 51, 52, 53, 54, 55, 56, 57, 58, 59, 60, 61, 62, 63, 64, 65, 66, 67, 68, 69, 70, 71, 72, 73, 74, 75, 76, 77, 78, 79, 80, 81, 82, 83, 84, 85, 86, 87, 88, 89, 90, 91, 92, 93, 94, 95, 96, 97, 98, 99, 100, 101, 102, 103, 104, 105, 106, 107, 108, 109, 110, 111, 112, 113, 114, 115, 116, 117, 118, 119, 120, 121, 122, 123, 124, 125, 126, 127, 128, 129, 130, 131, 132, 133, 134, 135, 136, 137, 138, 139, 140, 141, 142, 143, 144, 145, 146, 147, 148, 149, 150, 151, 152, 153, 154, 155, 156, 157, 158, 159, 160, 161, 162, 163, 164, 165, 166, 167, 168, 169, 170, 171, 172, 173, 174, 175, 176, 177, 178, 179, 180, 181, 182, 183, 184, 185, 186, 187, 188, 189, 190, 191, 192, 193, 194, 195, 196, 197, 198, 199, 200, 201, 202, 203, 204, 205, 206, 207, 208, 209, 210, 211, 212, 213, 214, 215, 216, 217, 218, 219, 220, 221, 222, 223, 224, 225, 226, 227, 228, 229, 230, 231, 232, 233, 234, 235, 236, 237, 238, 239, 240, 241, 242, 243, 244, 245, 246, 247, 248, 249, 250, 251, 252, 253, 254, 255, 256, 257, 258, 259, 260, 261, 262, 263, 264, 265, 266, 267, 268, 269, 270, 271, 272, 273, 274, 275, 276, 277, 278, 279, 280, 281, 282, 283, 284, 285, 286, 287, 288, 289, 290, 291, 292, 293, 294, 295, 296, 297, 298, 299, 300, 301, 302, 303, 304, 305, 306, 307, 308, 309, 310, 311, 312, 313, 314, 315, 316, 317, 318, 319, 320, 321, 322, 323, 324, 325, 326, 327, 328, 329, 330, 331, 332, 333, 334, 335, 336, 337, 338, 339, 340, 341, 342, 343, 344, 345, 346, 347, 348, 349, 350, 351, 352, 353, 354, 355, 356, 357, 358, 359, 360, 361, 362, 363, 364, 365, 366, 367, 368, 369, 370, 371, 372, 373, 374, 375, 376, 377, 378, 379, 380, 381, 382, 383, 384, 385, 386, 387, 388, 389, 390, 391, 392, 393, 394, 395, 396, 397, 398, 399, 400, 401, 402, 403, 404, 405, 406, 407, 408, 409, 410, 411, 412, 413, 414, 415, 416, 417, 418, 419, 420, 421, 422, 423, 424, 425, 426, 427, 428, 429, 430, 431, 432, 433, 434, 435, 436, 437, 438, 439, 440, 441, 442, 443, 444, 445, 446, 447, 448, 449, 450, 451, 452, 453, 454, 455, 456, 457, 458, 459, 460, 461, 462, 463, 464, 465, 466, 467, 468, 469, 470, 471, 472, 473, 474, 475, 476, 477, 478, 479, 480, 481, 482, 483, 484, 485, 486, 487, 488, 489, 490, 491, 492, 493, 494, 495, 496, 497, 498, 499, 500, 501, 502, 503, 504, 505, 506, 507, 508, 509, 510, 511, 512, 513, 514, 515, 516, 517, 518, 519, 520, 521, 522, 523, 524, 525, 526, 527, 528, 529, 530, 531, 532, 533, 534, 535, 536, 537, 538, 539, 540, 541, 542, 543, 544, 545, 546, 547, 548, 549, 550, 551, 552, 553, 554, 555, 556, 557, 558, 559, 560, 561, 562, 563, 564, 565, 566, 567, 568, 569, 570, 571, 572, 573, 574, 575, 576, 577, 578, 579, 580, 581],
      "AcquisitionTime": ["121246.690000", "121247.477500", "121248.267500", "121249.055000", "121249.842500", "121250.630000", "121251.420000", "121252.207500", "121252.995000", "121253.782500", "121254.572500", "121255.360000", "121256.147500", "121256.935000", "121257.725000", "121258.512500", "121259.300000", "121300.087500", "121300.877500", "121301.665000", "121302.452500", "121303.242500", "121304.030000", "121304.817500", "121305.605000", "121306.395000", "121307.182500", "121307.970000", "121308.757500", "121309.547500", "121310.335000", "121311.122500", "121311.910000", "121312.700000", "121313.487500", "121314.275000", "121315.062500", "121315.852500", "121316.640000", "121317.427500", "121318.215000", "121319.005000", "121319.792500", "121320.580000", "121321.370000", "121322.157500", "121322.945000", "121323.732500", "121324.522500", "121325.310000", "121326.097500", "121326.885000", "121327.675000", "121328.462500", "121329.250000", "121330.037500", "121330.827500", "121331.615000", "121332.402500", "121333.190000", "121333.980000", "121334.767500", "121335.555000", "121336.342500", "121337.132500", "121337.920000", "121338.707500", "121339.497500", "121340.285000", "121341.072500", "121341.860000", "121342.650000", "121343.437500", "121344.225000", "121345.012500", "121345.802500", "121346.590000", "121347.377500", "121348.165000", "121348.955000", "121349.742500", "121350.530000", "121351.317500", "121352.107500", "121352.895000", "121353.682500", "121354.472500", "121355.260000", "121356.047500", "121356.835000", "121357.625000", "121358.412500", "121359.200000", "121359.987500", "121400.777500", "121401.565000", "121402.352500", "121403.140000", "121403.930000", "121404.717500", "121405.505000", "121406.292500", "121407.082500", "121407.870000", "121408.657500", "121409.445000", "121410.235000", "121411.022500", "121411.810000", "121412.600000", "121413.387500", "121414.175000", "121414.962500", "121415.752500", "121416.540000", "121417.327500", "121418.115000", "121418.905000", "121419.692500", "121420.480000", "121421.267500", "121422.057500", "121422.845000", "121423.632500", "121424.420000", "121425.210000", "121425.997500", "121426.785000", "121427.572500", "121428.362500", "121429.150000", "121429.937500", "121430.727500", "121431.515000", "121432.302500", "121433.090000", "121433.880000", "121434.667500", "121435.455000", "121436.242500", "121437.032500", "121437.820000", "121438.607500", "121439.395000", "121440.185000", "121440.972500", "121441.760000", "121442.547500", "121443.337500", "121444.125000", "121444.912500", "121445.700000", "121446.490000", "121447.277500", "121448.065000", "121448.855000", "121449.642500", "121450.430000", "121451.217500", "121452.007500", "121452.795000", "121453.582500", "121454.370000", "121455.160000", "121455.947500", "121456.735000", "121457.522500", "121458.312500", "121459.100000", "121459.887500", "121500.675000", "121501.465000", "121502.252500", "121503.040000", "121503.827500", "121504.617500", "121505.405000", "121506.192500", "121506.982500", "121507.770000", "121508.557500", "121509.345000", "121510.135000", "121510.922500", "121511.710000", "121512.497500", "121513.287500", "121514.075000", "121514.862500", "121515.650000", "121516.440000", "121517.227500", "121518.015000", "121518.802500", "121519.592500", "121520.380000", "121521.167500", "121521.955000", "121522.745000", "121523.532500", "121524.320000", "121525.110000", "121525.897500", "121526.685000", "121527.472500", "121528.262500", "121529.050000", "121529.837500", "121530.625000", "121531.415000", "121532.202500", "121532.990000", "121533.777500", "121534.567500", "121535.355000", "121536.142500", "121536.930000", "121537.720000", "121538.507500", "121539.295000", "121540.082500", "121540.872500", "121541.660000", "121542.447500", "121543.237500", "121544.025000", "121544.812500", "121545.600000", "121546.390000", "121547.177500", "121547.965000", "121548.752500", "121549.542500", "121550.330000", "121551.117500", "121551.905000", "121552.695000", "121553.482500", "121554.270000", "121555.057500", "121555.847500", "121556.635000", "121557.422500", "121558.210000", "121559.000000", "121559.787500", "121600.575000", "121601.365000", "121602.152500", "121602.940000", "121603.727500", "121604.517500", "121605.305000", "121606.092500", "121606.880000", "121607.670000", "121608.457500", "121609.245000", "121610.032500", "121610.822500", "121611.610000", "121612.397500", "121613.185000", "121613.975000", "121614.762500", "121615.550000", "121616.337500", "121617.127500", "121617.915000", "121618.702500", "121619.492500", "121620.280000", "121621.067500", "121621.855000", "121622.645000", "121623.432500", "121624.220000", "121625.007500", "121625.797500", "121626.585000", "121627.372500", "121628.160000", "121628.950000", "121629.737500", "121630.525000", "121631.312500", "121632.102500", "121632.890000", "121633.677500", "121634.465000", "121635.255000", "121636.042500", "121636.830000", "121637.620000", "121638.407500", "121639.195000", "121639.982500", "121640.772500", "121641.560000", "121642.347500", "121643.135000", "121643.925000", "121644.712500", "121645.500000", "121646.287500", "121647.077500", "121647.865000", "121648.652500", "121649.440000", "121650.230000", "121651.017500", "121651.805000", "121652.592500", "121653.382500", "121654.170000", "121654.957500", "121655.747500", "121656.535000", "121657.322500", "121658.110000", "121658.900000", "121659.687500", "121700.475000", "121701.262500", "121702.052500", "121702.840000", "121703.627500", "121704.415000", "121705.205000", "121705.992500", "121706.780000", "121707.567500", "121708.357500", "121709.145000", "121709.932500", "121710.722500", "121711.510000", "121712.297500", "121713.085000", "121713.875000", "121714.662500", "121715.450000", "121716.237500", "121717.027500", "121717.815000", "121718.602500", "121719.390000", "121720.180000", "121720.967500", "121721.755000", "121722.542500", "121723.332500", "121724.120000", "121724.907500", "121725.695000", "121726.485000", "121727.272500", "121728.060000", "121728.850000", "121729.637500", "121730.425000", "121731.212500", "121732.002500", "121732.790000", "121733.577500", "121734.365000", "121735.155000", "121735.942500", "121736.730000", "121737.517500", "121738.307500", "121739.095000", "121739.882500", "121740.670000", "121741.460000", "121742.247500", "121743.035000", "121743.822500", "121744.612500", "121745.400000", "121746.187500", "121746.977500", "121747.765000", "121748.552500", "121749.340000", "121750.130000", "121750.917500", "121751.705000", "121752.492500", "121753.282500", "121754.070000", "121754.857500", "121755.645000", "121756.435000", "121757.222500", "121758.010000", "121758.797500", "121759.587500", "121800.375000", "121801.162500", "121801.950000", "121802.740000", "121803.527500", "121804.315000", "121805.105000", "121805.892500", "121806.680000", "121807.467500", "121808.257500", "121809.045000", "121809.832500", "121810.620000", "121811.410000", "121812.197500", "121812.985000", "121813.772500", "121814.562500", "121815.350000", "121816.137500", "121816.925000", "121817.715000", "121818.502500", "121819.290000", "121820.077500", "121820.867500", "121821.655000", "121822.442500", "121823.232500", "121824.020000", "121824.807500", "121825.595000", "121826.385000", "121827.172500", "121827.960000", "121828.747500", "121829.537500", "121830.325000", "121831.112500", "121831.900000", "121832.690000", "121833.477500", "121834.265000", "121835.052500", "121835.842500", "121836.630000", "121837.417500", "121838.205000", "121838.995000", "121839.782500", "121840.570000", "121841.360000", "121842.147500", "121842.935000", "121843.722500", "121844.512500", "121845.300000", "121846.087500", "121846.875000", "121847.665000", "121848.452500", "121849.240000", "121850.027500", "121850.817500", "121851.605000", "121852.392500", "121853.180000", "121853.970000", "121854.757500", "121855.545000", "121856.332500", "121857.122500", "121857.910000", "121858.697500", "121859.487500", "121900.275000", "121901.062500", "121901.850000", "121902.640000", "121903.427500", "121904.215000", "121905.002500", "121905.792500", "121906.580000", "121907.367500", "121908.155000", "121908.945000", "121909.732500", "121910.520000", "121911.307500", "121912.097500", "121912.885000", "121913.672500", "121914.460000", "121915.250000", "121916.037500", "121916.825000", "121917.615000", "121918.402500", "121919.190000", "121919.977500", "121920.767500", "121921.555000", "121922.342500", "121923.130000", "121923.920000", "121924.707500", "121925.495000", "121926.282500", "121927.072500", "121927.860000", "121928.647500", "121929.435000", "121930.225000", "121931.012500", "121931.800000", "121932.587500", "121933.377500", "121934.165000", "121934.952500", "121935.742500", "121936.530000", "121937.317500", "121938.105000", "121938.895000", "121939.682500", "121940.470000", "121941.257500", "121942.047500", "121942.835000", "121943.622500", "121944.410000", "121945.200000", "121945.987500", "121946.775000", "121947.562500", "121948.352500", "121949.140000", "121949.927500", "121950.715000", "121951.505000", "121952.292500", "121953.080000", "121953.870000", "121954.657500", "121955.445000", "121956.232500", "121957.022500", "121957.810000", "121958.597500", "121959.385000", "122000.175000", "122000.962500", "122001.750000", "122002.537500", "122003.327500", "122004.115000", "122004.902500", "122005.690000", "122006.480000", "122007.267500", "122008.055000", "122008.842500", "122009.632500", "122010.420000", "122011.207500", "122011.997500", "122012.785000", "122013.572500", "122014.360000", "122015.150000", "122015.937500", "122016.725000", "122017.512500", "122018.302500", "122019.090000", "122019.877500", "122020.665000", "122021.455000", "122022.242500", "122023.030000", "122023.817500"],
      "ContentTime": ["121309.812000", "121309.812000", "121309.812000", "121309.812000", "121309.812000", "121309.812000", "121309.812000", "121309.828000", "121309.828000", "121309.828000", "121309.828000", "121309.828000", "121309.828000", "121309.828000", "121309.828000", "121309.843000", "121309.843000", "121309.843000", "121309.843000", "121309.843000", "121309.843000", "121309.843000", "121309.859000", "121309.859000", "121309.859000", "121309.859000", "121309.859000", "121329.781000", "121329.781000", "121329.781000", "121329.781000", "121329.781000", "121329.796000", "121329.796000", "121329.796000", "121329.796000", "121329.796000", "121329.796000", "121329.796000", "121329.812000", "121329.812000", "121329.812000", "121329.812000", "121329.812000", "121329.812000", "121329.812000", "121329.812000", "121329.828000", "121329.828000", "121329.828000", "121329.828000", "121329.828000", "121329.828000", "121349.781000", "121349.781000", "121349.781000", "121349.781000", "121349.796000", "121349.796000", "121349.796000", "121349.796000", "121349.796000", "121349.796000", "121349.796000", "121349.796000", "121349.812000", "121349.812000", "121349.812000", "121349.812000", "121349.812000", "121349.812000", "121349.812000", "121349.828000", "121349.828000", "121349.828000", "121349.828000", "121349.828000", "121349.828000", "121409.781000", "121409.781000", "121409.781000", "121409.781000", "121409.781000", "121409.796000", "121409.796000", "121409.796000", "121409.796000", "121409.796000", "121409.796000", "121409.796000", "121409.812000", "121409.812000", "121409.812000", "121409.812000", "121409.812000", "121409.812000", "121409.812000", "121409.812000", "121409.828000", "121409.828000", "121409.828000", "121409.828000", "121409.828000", "121409.828000", "121429.781000", "121429.781000", "121429.781000", "121429.781000", "121429.796000", "121429.796000", "121429.796000", "121429.796000", "121429.796000", "121429.796000", "121429.796000", "121429.796000", "121429.812000", "121429.812000", "121429.812000", "121429.812000", "121429.812000", "121429.812000", "121429.812000", "121429.828000", "121429.828000", "121429.828000", "121429.828000", "121429.828000", "121429.828000", "121449.781000", "121449.781000", "121449.781000", "121449.781000", "121449.796000", "121449.796000", "121449.796000", "121449.796000", "121449.796000", "121449.796000", "121449.796000", "121449.796000", "121449.812000", "121449.812000", "121449.812000", "121449.812000", "121449.812000", "121449.812000", "121449.812000", "121449.812000", "121449.828000", "121449.828000", "121449.828000", "121449.828000", "121449.828000", "121509.781000", "121509.781000", "121509.781000", "121509.781000", "121509.796000", "121509.796000", "121509.796000", "121509.796000", "121509.796000", "121509.796000", "121509.796000", "121509.812000", "121509.812000", "121509.812000", "121509.812000", "121509.812000", "121509.812000", "121509.812000", "121509.812000", "121509.828000", "121509.828000", "121509.828000", "121509.828000", "121509.828000", "121509.828000", "121509.843000", "121529.781000", "121529.781000", "121529.781000", "121529.796000", "121529.796000", "121529.796000", "121529.796000", "121529.796000", "121529.796000", "121529.796000", "121529.796000", "121529.812000", "121529.812000", "121529.812000", "121529.812000", "121529.812000", "121529.812000", "121529.828000", "121529.828000", "121529.828000", "121529.828000", "121529.828000", "121529.843000", "121529.843000", "121529.843000", "121549.781000", "121549.781000", "121549.781000", "121549.781000", "121549.796000", "121549.796000", "121549.796000", "121549.796000", "121549.796000", "121549.796000", "121549.812000", "121549.812000", "121549.812000", "121549.812000", "121549.812000", "121549.812000", "121549.812000", "121549.812000", "121549.828000", "121549.828000", "121549.828000", "121549.828000", "121549.828000", "121549.843000", "121549.843000", "121549.843000", "121609.781000", "121609.781000", "121609.781000", "121609.781000", "121609.796000", "121609.796000", "121609.796000", "121609.796000", "121609.796000", "121609.796000", "121609.796000", "121609.812000", "121609.812000", "121609.812000", "121609.812000", "121609.812000", "121609.812000", "121609.812000", "121609.828000", "121609.828000", "121609.828000", "121609.828000", "121609.843000", "121609.843000", "121609.843000", "121629.781000", "121629.781000", "121629.781000", "121629.781000", "121629.796000", "121629.796000", "121629.796000", "121629.796000", "121629.796000", "121629.796000", "121629.796000", "121629.796000", "121629.812000", "121629.812000", "121629.812000", "121629.812000", "121629.812000", "121629.812000", "121629.812000", "121629.828000", "121629.828000", "121629.828000", "121629.828000", "121629.828000", "121629.828000", "121629.828000", "121649.781000", "121649.781000", "121649.781000", "121649.781000", "121649.796000", "121649.796000", "121649.796000", "121649.796000", "121649.796000", "121649.796000", "121649.812000", "121649.812000", "121649.812000", "121649.812000", "121649.812000", "121649.812000", "121649.812000", "121649.828000", "121649.828000", "121649.828000", "121649.828000", "121649.828000", "121649.828000", "121649.843000", "121649.843000", "121709.781000", "121709.781000", "121709.781000", "121709.781000", "121709.781000", "121709.796000", "121709.796000", "121709.796000", "121709.796000", "121709.796000", "121709.796000", "121709.796000", "121709.812000", "121709.812000", "121709.812000", "121709.812000", "121709.812000", "121709.812000", "121709.812000", "121709.828000", "121709.828000", "121709.828000", "121709.828000", "121709.828000", "121709.828000", "121709.828000", "121729.781000", "121729.781000", "121729.781000", "121729.781000", "121729.781000", "121729.796000", "121729.796000", "121729.796000", "121729.796000", "121729.796000", "121729.796000", "121729.796000", "121729.812000", "121729.812000", "121729.812000", "121729.812000", "121729.812000", "121729.812000", "121729.812000", "121729.812000", "121729.828000", "121729.828000", "121729.828000", "121729.828000", "121729.828000", "121749.781000", "121749.781000", "121749.781000", "121749.781000", "121749.796000", "121749.796000", "121749.796000", "121749.796000", "121749.796000", "121749.796000", "121749.812000", "121749.812000", "121749.812000", "121749.812000", "121749.812000", "121749.812000", "121749.812000", "121749.812000", "121749.828000", "121749.828000", "121749.828000", "121749.828000", "121749.828000", "121749.828000", "121749.828000", "121749.843000", "121809.781000", "121809.781000", "121809.781000", "121809.781000", "121809.796000", "121809.796000", "121809.796000", "121809.796000", "121809.796000", "121809.796000", "121809.796000", "121809.796000", "121809.812000", "121809.812000", "121809.812000", "121809.812000", "121809.812000", "121809.812000", "121809.812000", "121809.828000", "121809.828000", "121809.828000", "121809.828000", "121809.828000", "121809.828000", "121829.781000", "121829.781000", "121829.781000", "121829.781000", "121829.781000", "121829.796000", "121829.796000", "121829.796000", "121829.796000", "121829.796000", "121829.796000", "121829.796000", "121829.812000", "121829.812000", "121829.812000", "121829.812000", "121829.812000", "121829.812000", "121829.812000", "121829.828000", "121829.828000", "121829.828000", "121829.828000", "121829.828000", "121829.828000", "121829.828000", "121849.781000", "121849.781000", "121849.781000", "121849.781000", "121849.796000", "121849.796000", "121849.796000", "121849.796000", "121849.796000", "121849.796000", "121849.796000", "121849.796000", "121849.812000", "121849.812000", "121849.812000", "121849.812000", "121849.812000", "121849.812000", "121849.812000", "121849.828000", "121849.828000", "121849.828000", "121849.828000", "121849.828000", "121849.828000", "121909.781000", "121909.781000", "121909.781000", "121909.781000", "121909.796000", "121909.796000", "121909.796000", "121909.796000", "121909.796000", "121909.796000", "121909.796000", "121909.796000", "121909.812000", "121909.812000", "121909.812000", "121909.812000", "121909.812000", "121909.812000", "121909.828000", "121909.828000", "121909.828000", "121909.828000", "121909.828000", "121909.828000", "121909.828000", "121909.843000", "121929.781000", "121929.781000", "121929.781000", "121929.781000", "121929.796000", "121929.796000", "121929.796000", "121929.796000", "121929.796000", "121929.796000", "121929.796000", "121929.812000", "121929.812000", "121929.812000", "121929.812000", "121929.812000", "121929.812000", "121929.812000", "121929.812000", "121929.828000", "121929.828000", "121929.828000", "121929.828000", "121929.828000", "121929.843000", "121949.781000", "121949.781000", "121949.781000", "121949.781000", "121949.781000", "121949.796000", "121949.796000", "121949.796000", "121949.796000", "121949.796000", "121949.796000", "121949.796000", "121949.812000", "121949.812000", "121949.812000", "121949.812000", "121949.812000", "121949.812000", "121949.812000", "121949.828000", "121949.828000", "121949.828000", "121949.828000", "121949.828000", "121949.828000", "121949.828000", "122009.781000", "122009.781000", "122009.781000", "122009.796000", "122009.796000", "122009.796000", "122009.796000", "122009.796000", "122009.796000", "122009.796000", "122009.812000", "122009.812000", "122009.812000", "122009.812000", "122009.812000", "122009.812000", "122009.812000", "122009.812000", "122009.828000", "122009.828000", "122009.828000", "122009.828000", "122009.828000", "122009.828000", "122009.843000", "122024.250000", "122024.250000", "122024.265000", "122024.265000", "122024.265000", "122024.265000", "122024.265000", "122024.265000", "122024.265000", "122024.265000", "122024.281000", "122024.281000", "122024.281000", "122024.281000", "122024.281000", "122024.281000", "122024.281000", "122024.296000", "122024.296000"],
