{
  "AcquisitionMatrixPE": 104,
  "AcquisitionNumber": 1,
  "AcquisitionTime": "12:33:52.700000",
  "BandwidthPerPixelPhaseEncode": 13.935,
  "BaseResolution": 104,
  "CoilString": "C:HEA;HEP",
  "ConversionSoftware": "dcm2niix",
  "ConversionSoftwareVersion": "v1.0.20210317",
  "DerivedVendorReportedEchoSpacing": 0.000690017,
  "DeviceSerialNumber": "35450",
  "DwellTime": 2.5e-06,
  "EchoTime": 0.0348,
  "EffectiveEchoSpacing": 0.000690017,
  "FlipAngle": 55,
  "ImageComments": "Unaliased MB8/PE3 (remote)",
  "ImageOrientationPatientDICOM": [0.999997, 0.000565318, -0.00257127, -1.44147e-09, 0.976673, 0.21473],
  "ImageType": [
    "ORIGINAL",
    "PRIMARY",
    "M",
    "MB",
    "ND",
    "MOSAIC"
],
  "ImagingFrequency": 123.234,
  "InPlanePhaseEncodingDirectionDICOM": "COL",
  "InstitutionAddress": "Univeristy Ave. 197,Newark,North East,US,07102-1814",
  "InstitutionName": "RUBIC",
  "InstitutionalDepartmentName": "Department",
  "MRAcquisitionType": "2D",
  "MagneticFieldStrength": 3,
  "Manufacturer": "Siemens",
  "ManufacturersModelName": "TrioTim",
  "Modality": "MR",
  "MultibandAccelerationFactor": 8,
  "PartialFourier": 0.875,
  "PatientPosition": "HFS",
  "PercentPhaseFOV": 100,
  "PercentSampling": 100,
  "PhaseEncodingDirection": "j-",
  "PhaseEncodingSteps": 91,
  "PhaseResolution": 1,
  "PixelBandwidth": 1923,
  "ProcedureStepDescription": "Cole^Michael",
  "ProtocolName": "cmrr_mbep2d_bold_2mm_MB8_Task_8x",
  "PulseSequenceDetails": "%CustomerSeq%\\cmrr_mbep2d_bold",
  "ReceiveCoilName": "32Ch_Head",
  "ReconMatrixPE": 104,
  "RepetitionTime": 0.785,
  "SAR": 0.160164,
  "ScanOptions": "PFP\\FS",
  "ScanningSequence": "EP",
  "SequenceName": "epfid2d1_104",
  "SequenceVariant": "SK\\SS",
  "SeriesDescription": "cmrr_mbep2d_bold_2mm_MB8_Task_8x",
  "SeriesNumber": 21,
  "ShimSetting": [2102, -516, -7343, 698, -261, -615, -75, 67],
  "SliceThickness": 2,
  "SliceTiming": [0, 0.4375, 0.0875, 0.525, 0.175, 0.6125, 0.2625, 0.7, 0.35, 0, 0.4375, 0.0875, 0.525, 0.175, 0.6125, 0.2625, 0.7, 0.35, 0, 0.4375, 0.0875, 0.525, 0.175, 0.6125, 0.2625, 0.7, 0.35, 0, 0.4375, 0.0875, 0.525, 0.175, 0.6125, 0.2625, 0.7, 0.35, 0, 0.4375, 0.0875, 0.525, 0.175, 0.6125, 0.2625, 0.7, 0.35, 0, 0.4375, 0.0875, 0.525, 0.175, 0.6125, 0.2625, 0.7, 0.35, 0, 0.4375, 0.0875, 0.525, 0.175, 0.6125, 0.2625, 0.7, 0.35, 0, 0.4375, 0.0875, 0.525, 0.175, 0.6125, 0.2625, 0.7, 0.35],
  "SoftwareVersions": "syngo MR B19",
  "SpacingBetweenSlices": 2,
  "StationName": "MRC35450",
  "TaskName": "cpro",
  "TotalReadoutTime": 0.0710717,
  "TxRefAmp": 321.351,
  "dcmmeta_affine": [
    [-1.999993085861206, -2.882948102467253e-09, -0.005265367217361927, 98.77291870117188],
    [-0.001130635035224259, 1.953346848487854, 0.42945849895477295, -86.51608276367188],
    [-0.005142543464899063, -0.42945995926856995, 1.9533401727676392, -69.7806167602539],
    [0.0, 0.0, 0.0, 1.0]
],
  "dcmmeta_reorient_transform": [
    [0.0, -1.0, 0.0, 103.0],
    [1.0, 0.0, 0.0, 0.0],
    [0.0, 0.0, 1.0, 0.0],
    [0.0, 0.0, 0.0, 1.0]
],
  "dcmmeta_shape": [104, 104, 72, 581],
  "dcmmeta_slice_dim": 2,
  "dcmmeta_version": 0.6,
  "global": {
    "const": {
      "AcquisitionMatrix": [104, 0, 0, 104],
      "AngioFlag": "N",
      "BitsAllocated": 16,
      "BitsStored": 12,
      "Columns": 936,
      "EchoNumbers": 1,
      "EchoTime": 34.8,
      "EchoTrainLength": 1,
      "FlipAngle": 55.0,
      "HighBit": 11,
      "ImageOrientationPatient": [0.99999653448279, 0.00056531750045, -0.0025712717758, -1.441474e-09, 0.97667345256025, 0.21472998641095],
      "ImagePositionPatient": [-930.77003125571, -927.74130329097, -290.53104212796],
      "ImageType": [
        "ORIGINAL",
        "PRIMARY",
        "M",
        "MB",
        "ND",
        "MOSAIC"
],
      "ImagedNucleus": "1H",
      "ImagingFrequency": 123.234388,
      "InPlanePhaseEncodingDirection": "COL",
      "MRAcquisitionType": "2D",
      "MagneticFieldStrength": 3.0,
      "Manufacturer": "SIEMENS",
      "ManufacturerModelName": "TrioTim",
      "Modality": "MR",
      "NumberOfAverages": 1.0,
      "NumberOfPhaseEncodingSteps": 91,
      "PercentPhaseFieldOfView": 100.0,
      "PercentSampling": 100.0,
      "PerformedProcedureStepStartTime": "110212.593000",
      "PhotometricInterpretation": "MONOCHROME2",
      "PixelBandwidth": 1923.0,
      "PixelRepresentation": 0,
      "PixelSpacing": [2.0, 2.0],
      "ProtocolName": "cmrr_mbep2d_bold_2mm_MB8_Task_8x",
      "RepetitionTime": 785.0,
      "Rows": 936,
      "SAR": 0.16016437333175,
      "SamplesPerPixel": 1,
      "ScanOptions": [
        "PFP",
        "FS"
],
      "ScanningSequence": "EP",
      "SequenceName": "epfid2d1_104",
      "SequenceVariant": [
        "SK",
        "SS"
],
      "SeriesDescription": "cmrr_mbep2d_bold_2mm_MB8_Task_8x",
      "SeriesNumber": 21,
      "SeriesTime": "123414.234000",
      "SliceLocation": -86.990208476482,
      "SliceThickness": 2.0,
      "SmallestImagePixelValue": 0,
      "SoftwareVersions": "syngo MR B19",
      "SpacingBetweenSlices": 2.0000000383818,
      "SpecificCharacterSet": "ISO_IR 100",
      "StudyID": "1",
      "StudyTime": "110212.468000",
      "TransmitCoilName": "Body",
      "VariableFlipAngleFlag": "N",
      "WindowCenterWidthExplanation": "Algo1",
      "dBdt": 0.0},
    "slices": {}
  },
  "time": {
    "samples": {
      "AcquisitionNumber": [1, 2, 3, 4, 5, 6, 7, 8, 9, 10, 11, 12, 13, 14, 15, 16, 17, 18, 19, 20, 21, 22, 23, 24, 25, 26, 27, 28, 29, 30, 31, 32, 33, 34, 35, 36, 37, 38, 39, 40, 41, 42, 43, 44, 45, 46, 47, 48, 49, 50, 51, 52, 53, 54, 55, 56, 57, 58, 59, 60, 61, 62, 63, 64, 65, 66, 67, 68, 69, 70, 71, 72, 73, 74, 75, 76, 77, 78, 79, 80, 81, 82, 83, 84, 85, 86, 87, 88, 89, 90, 91, 92, 93, 94, 95, 96, 97, 98, 99, 100, 101, 102, 103, 104, 105, 106, 107, 108, 109, 110, 111, 112, 113, 114, 115, 116, 117, 118, 119, 120, 121, 122, 123, 124, 125, 126, 127, 128, 129, 130, 131, 132, 133, 134, 135, 136, 137, 138, 139, 140, 141, 142, 143, 144, 145, 146, 147, 148, 149, 150, 151, 152, 153, 154, 155, 156, 157, 158, 159, 160, 161, 162, 163, 164, 165, 166, 167, 168, 169, 170, 171, 172, 173, 174, 175, 176, 177, 178, 179, 180, 181, 182, 183, 184, 185, 186, 187, 188, 189, 190, 191, 192, 193, 194, 195, 196, 197, 198, 199, 200, 201, 202, 203, 204, 205, 206, 207, 208, 209, 210, 211, 212, 213, 214, 215, 216, 217, 218, 219, 220, 221, 222, 223, 224, 225, 226, 227, 228, 229, 230, 231, 232, 233, 234, 235, 236, 237, 238, 239, 240, 241, 242, 243, 244, 245, 246, 247, 248, 249, 250, 251, 252, 253, 254, 255, 256, 257, 258, 259, 260, 261, 262, 263, 264, 265, 266, 267, 268, 269, 270, 271, 272, 273, 274, 275, 276, 277, 278, 279, 280, 281, 282, 283, 284, 285, 286, 287, 288, 289, 290, 291, 292, 293, 294, 295, 296, 297, 298, 299, 300, 301, 302, 303, 304, 305, 306, 307, 308, 309, 310, 311, 312, 313, 314, 315, 316, 317, 318, 319, 320, 321, 322, 323, 324, 325, 326, 327, 328, 329, 330, 331, 332, 333, 334, 335, 336, 337, 338, 339, 340, 341, 342, 343, 344, 345, 346, 347, 348, 349, 350, 351, 352, 353, 354, 355, 356, 357, 358, 359, 360, 361, 362, 363, 364, 365, 366, 367, 368, 369, 370, 371, 372, 373, 374, 375, 376, 377, 378, 379, 380, 381, 382, 383, 384, 385, 386, 387, 388, 389, 390, 391, 392, 393, 394, 395, 396, 397, 398, 399, 400, 401, 402, 403, 404, 405, 406, 407, 408, 409, 410, 411, 412, 413, 414, 415, 416, 417, 418, 419, 420, 421, 422, 423, 424, 425, 426, 427, 428, 429, 430, 431, 432, 433, 434, 435, 436, 437, 438, 439, 440, 441, 442, 443, 444, 445, 446, 447, 448, 449, 450, 451, 452, 453, 454, 455, 456, 457, 458, 459, 460, 461, 462, 463, 464, 465, 466, 467, 468, 469, 470, 471, 472, 473, 474, 475, 476, 477, 478, 479, 480, 481, 482, 483, 484, 485, 486, 487, 488, 489, 490, 491, 492, 493, 494, 495, 496, 497, 498, 499, 500, 501, 502, 503, 504, 505, 506, 507, 508, 509, 510, 511, 512, 513, 514, 515, 516, 517, 518, 519, 520, 521, 522, 523, 524, 525, 526, 527, 528, 529, 530, 531, 532, 533, 534, 535, 536, 537, 538, 539, 540, 541, 542, 543, 544, 545, 546, 547, 548, 549, 550, 551, 552, 553, 554, 555, 556, 557, 558, 559, 560, 561, 562, 563, 564, 565, 566, 567, 568, 569, 570, 571, 572, 573, 574, 575, 576, 577, 578, 579, 580, 581],
      "AcquisitionTime": ["123352.700000", "123353.487500", "123354.275000", "123355.065000", "123355.852500", "123356.640000", "123357.427500", "123358.217500", "123359.005000", "123359.792500", "123400.582500", "123401.370000", "123402.157500", "123402.945000", "123403.735000", "123404.522500", "123405.310000", "123406.097500", "123406.887500", "123407.675000", "123408.462500", "123409.250000", "123410.040000", "123410.827500", "123411.615000", "123412.402500", "123413.192500", "123413.980000", "123414.767500", "123415.555000", "123416.345000", "123417.132500", "123417.920000", "123418.710000", "123419.497500", "123420.285000", "123421.072500", "123421.862500", "123422.650000", "123423.437500", "123424.225000", "123425.015000", "123425.802500", "123426.590000", "123427.377500", "123428.167500", "123428.955000", "123429.742500", "123430.530000", "123431.320000", "123432.107500", "123432.895000", "123433.682500", "123434.472500", "123435.260000", "123436.047500", "123436.837500", "123437.625000", "123438.412500", "123439.200000", "123439.990000", "123440.777500", "123441.565000", "123442.352500", "123443.142500", "123443.930000", "123444.717500", "123445.505000", "123446.295000", "123447.082500", "123447.870000", "123448.657500", "123449.447500", "123450.235000", "123451.022500", "123451.810000", "123452.600000", "123453.387500", "123454.175000", "123454.965000", "123455.752500", "123456.540000", "123457.327500", "123458.117500", "123458.905000", "123459.692500", "123500.480000", "123501.270000", "123502.057500", "123502.845000", "123503.632500", "123504.422500", "123505.210000", "123505.997500", "123506.785000", "123507.575000", "123508.362500", "123509.150000", "123509.937500", "123510.727500", "123511.515000", "123512.302500", "123513.092500", "123513.880000", "123514.667500", "123515.455000", "123516.245000", "123517.032500", "123517.820000", "123518.607500", "123519.397500", "123520.185000", "123520.972500", "123521.760000", "123522.550000", "123523.337500", "123524.125000", "123524.912500", "123525.702500", "123526.490000", "123527.277500", "123528.067500", "123528.855000", "123529.642500", "123530.430000", "123531.220000", "123532.007500", "123532.795000", "123533.582500", "123534.372500", "123535.160000", "123535.947500", "123536.735000", "123537.525000", "123538.312500", "123539.100000", "123539.887500", "123540.677500", "123541.465000", "123542.252500", "123543.040000", "123543.830000", "123544.617500", "123545.405000", "123546.195000", "123546.982500", "123547.770000", "123548.557500", "123549.347500", "123550.135000", "123550.922500", "123551.710000", "123552.500000", "123553.287500", "123554.075000", "123554.862500", "123555.652500", "123556.440000", "123557.227500", "123558.015000", "123558.805000", "123559.592500", "123600.380000", "123601.167500", "123601.957500", "123602.745000", "123603.532500", "123604.322500", "123605.110000", "123605.897500", "123606.685000", "123607.475000", "123608.262500", "123609.050000", "123609.837500", "123610.627500", "123611.415000", "123612.202500", "123612.990000", "123613.780000", "123614.567500", "123615.355000", "123616.142500", "123616.932500", "123617.720000", "123618.507500", "123619.295000", "123620.085000", "123620.872500", "123621.660000", "123622.450000", "123623.237500", "123624.025000", "123624.812500", "123625.602500", "123626.390000", "123627.177500", "123627.965000", "123628.755000", "123629.542500", "123630.330000", "123631.117500", "123631.907500", "123632.695000", "123633.482500", "123634.270000", "123635.060000", "123635.847500", "123636.635000", "123637.422500", "123638.212500", "123639.000000", "123639.787500", "123640.577500", "123641.365000", "123642.152500", "123642.940000", "123643.730000", "123644.517500", "123645.305000", "123646.092500", "123646.882500", "123647.670000", "123648.457500", "123649.245000", "123650.035000", "123650.822500", "123651.610000", "123652.397500", "123653.187500", "123653.975000", "123654.762500", "123655.550000", "123656.340000", "123657.127500", "123657.915000", "123658.705000", "123659.492500", "123700.280000", "123701.067500", "123701.857500", "123702.645000", "123703.432500", "123704.220000", "123705.010000", "123705.797500", "123706.585000", "123707.372500", "123708.162500", "123708.950000", "123709.737500", "123710.525000", "123711.315000", "123712.102500", "123712.890000", "123713.677500", "123714.467500", "123715.255000", "123716.042500", "123716.832500", "123717.620000", "123718.407500", "123719.195000", "123719.985000", "123720.772500", "123721.560000", "123722.347500", "123723.137500", "123723.925000", "123724.712500", "123725.500000", "123726.290000", "123727.077500", "123727.865000", "123728.652500", "123729.442500", "123730.230000", "123731.017500", "123731.805000", "123732.595000", "123733.382500", "123734.170000", "123734.960000", "123735.747500", "123736.535000", "123737.322500", "123738.112500", "123738.900000", "123739.687500", "123740.475000", "123741.265000", "123742.052500", "123742.840000", "123743.627500", "123744.417500", "123745.205000", "123745.992500", "123746.780000", "123747.570000", "123748.357500", "123749.145000", "123749.932500", "123750.722500", "123751.510000", "123752.297500", "123753.087500", "123753.875000", "123754.662500", "123755.450000", "123756.240000", "123757.027500", "123757.815000", "123758.602500", "123759.392500", "123800.180000", "123800.967500", "123801.755000", "123802.545000", "123803.332500", "123804.120000", "123804.907500", "123805.697500", "123806.485000", "123807.272500", "123808.060000", "123808.850000", "123809.637500", "123810.425000", "123811.215000", "123812.002500", "123812.790000", "123813.577500", "123814.367500", "123815.155000", "123815.942500", "123816.730000", "123817.520000", "123818.307500", "123819.095000", "123819.882500", "123820.672500", "123821.460000", "123822.247500", "123823.035000", "123823.825000", "123824.612500", "123825.400000", "123826.187500", "123826.977500", "123827.765000", "123828.552500", "123829.342500", "123830.130000", "123830.917500", "123831.705000", "123832.495000", "123833.282500", "123834.070000", "123834.857500", "123835.647500", "123836.435000", "123837.222500", "123838.010000", "123838.800000", "123839.587500", "123840.375000", "123841.162500", "123841.952500", "123842.740000", "123843.527500", "123844.317500", "123845.105000", "123845.892500", "123846.680000", "123847.470000", "123848.257500", "123849.045000", "123849.832500", "123850.622500", "123851.410000", "123852.197500", "123852.985000", "123853.775000", "123854.562500", "123855.350000", "123856.137500", "123856.927500", "123857.715000", "123858.502500", "123859.290000", "123900.080000", "123900.867500", "123901.655000", "123902.445000", "123903.232500", "123904.020000", "123904.807500", "123905.597500", "123906.385000", "123907.172500", "123907.960000", "123908.750000", "123909.537500", "123910.325000", "123911.112500", "123911.902500", "123912.690000", "123913.477500", "123914.265000", "123915.055000", "123915.842500", "123916.630000", "123917.417500", "123918.207500", "123918.995000", "123919.782500", "123920.572500", "123921.360000", "123922.147500", "123922.935000", "123923.725000", "123924.512500", "123925.300000", "123926.087500", "123926.877500", "123927.665000", "123928.452500", "123929.240000", "123930.030000", "123930.817500", "123931.605000", "123932.392500", "123933.182500", "123933.970000", "123934.757500", "123935.545000", "123936.335000", "123937.122500", "123937.910000", "123938.700000", "123939.487500", "123940.275000", "123941.062500", "123941.852500", "123942.640000", "123943.427500", "123944.215000", "123945.005000", "123945.792500", "123946.580000", "123947.367500", "123948.157500", "123948.945000", "123949.732500", "123950.520000", "123951.310000", "123952.097500", "123952.885000", "123953.672500", "123954.462500", "123955.250000", "123956.037500", "123956.827500", "123957.615000", "123958.402500", "123959.190000", "123959.980000", "124000.767500", "124001.555000", "124002.342500", "124003.132500", "124003.920000", "124004.707500", "124005.495000", "124006.285000", "124007.072500", "124007.860000", "124008.647500", "124009.437500", "124010.225000", "124011.012500", "124011.800000", "124012.590000", "124013.377500", "124014.165000", "124014.955000", "124015.742500", "124016.530000", "124017.317500", "124018.107500", "124018.895000", "124019.682500", "124020.470000", "124021.260000", "124022.047500", "124022.835000", "124023.622500", "124024.412500", "124025.200000", "124025.987500", "124026.775000", "124027.565000", "124028.352500", "124029.140000", "124029.927500", "124030.717500", "124031.505000", "124032.292500", "124033.082500", "124033.870000", "124034.657500", "124035.445000", "124036.235000", "124037.022500", "124037.810000", "124038.597500", "124039.387500", "124040.175000", "124040.962500", "124041.750000", "124042.540000", "124043.327500", "124044.115000", "124044.902500", "124045.692500", "124046.480000", "124047.267500", "124048.055000", "124048.845000", "124049.632500", "124050.420000", "124051.210000", "124051.997500", "124052.785000", "124053.572500", "124054.362500", "124055.150000", "124055.937500", "124056.725000", "124057.515000", "124058.302500", "124059.090000", "124059.877500", "124100.667500", "124101.455000", "124102.242500", "124103.030000", "124103.820000", "124104.607500", "124105.395000", "124106.182500", "124106.972500", "124107.760000", "124108.547500", "124109.337500", "124110.125000", "124110.912500", "124111.700000", "124112.490000", "124113.277500", "124114.065000", "124114.852500", "124115.642500", "124116.430000", "124117.217500", "124118.005000", "124118.795000", "124119.582500", "124120.370000", "124121.157500", "124121.947500", "124122.735000", "124123.522500", "124124.310000", "124125.100000", "124125.887500", "124126.675000", "124127.465000", "124128.252500", "124129.040000", "124129.827500"],
      "ContentTime": ["123414.234000", "123414.234000", "123414.234000", "123414.234000", "123414.234000", "123414.234000", "123414.250000", "123414.250000", "123414.250000", "123414.250000", "123414.250000", "123414.250000", "123414.250000", "123414.265000", "123414.265000", "123414.265000", "123414.265000", "123414.265000", "123414.265000", "123414.265000", "123414.265000", "123414.281000", "123414.281000", "123414.281000", "123414.281000", "123434.203000", "123434.203000", "123434.203000", "123434.218000", "123434.218000", "123434.218000", "123434.218000", "123434.218000", "123434.218000", "123434.218000", "123434.218000", "123434.234000", "123434.234000", "123434.234000", "123434.234000", "123434.234000", "123434.234000", "123434.234000", "123434.250000", "123434.250000", "123434.250000", "123434.250000", "123434.250000", "123434.250000", "123434.250000", "123454.203000", "123454.203000", "123454.203000", "123454.218000", "123454.218000", "123454.218000", "123454.218000", "123454.218000", "123454.218000", "123454.218000", "123454.218000", "123454.234000", "123454.234000", "123454.234000", "123454.234000", "123454.234000", "123454.234000", "123454.234000", "123454.234000", "123454.250000", "123454.250000", "123454.250000", "123454.250000", "123454.250000", "123454.265000", "123454.265000", "123514.203000", "123514.203000", "123514.203000", "123514.218000", "123514.218000", "123514.218000", "123514.218000", "123514.218000", "123514.218000", "123514.234000", "123514.234000", "123514.234000", "123514.234000", "123514.234000", "123514.234000", "123514.234000", "123514.250000", "123514.250000", "123514.250000", "123514.250000", "123514.250000", "123514.250000", "123514.250000", "123514.265000", "123514.265000", "123534.203000", "123534.203000", "123534.203000", "123534.218000", "123534.218000", "123534.218000", "123534.218000", "123534.218000", "123534.218000", "123534.218000", "123534.218000", "123534.234000", "123534.234000", "123534.234000", "123534.234000", "123534.234000", "123534.234000", "123534.234000", "123534.250000", "123534.250000", "123534.250000", "123534.250000", "123534.250000", "123534.250000", "123534.250000", "123534.265000", "123554.203000", "123554.203000", "123554.203000", "123554.203000", "123554.218000", "123554.218000", "123554.218000", "123554.218000", "123554.218000", "123554.218000", "123554.218000", "123554.234000", "123554.234000", "123554.234000", "123554.234000", "123554.234000", "123554.234000", "123554.234000", "123554.234000", "123554.250000", "123554.250000", "123554.250000", "123554.250000", "123554.250000", "123554.250000", "123614.203000", "123614.203000", "123614.218000", "123614.218000", "123614.218000", "123614.218000", "123614.218000", "123614.218000", "123614.218000", "123614.234000", "123614.234000", "123614.234000", "123614.234000", "123614.234000", "123614.234000", "123614.250000", "123614.250000", "123614.250000", "123614.250000", "123614.250000", "123614.250000", "123614.250000", "123614.250000", "123614.265000", "123614.265000", "123634.203000", "123634.203000", "123634.203000", "123634.203000", "123634.218000", "123634.218000", "123634.218000", "123634.218000", "123634.218000", "123634.218000", "123634.218000", "123634.234000", "123634.234000", "123634.234000", "123634.234000", "123634.234000", "123634.234000", "123634.234000", "123634.234000", "123634.250000", "123634.250000", "123634.250000", "123634.250000", "123634.250000", "123634.265000", "123634.265000", "123654.203000", "123654.218000", "123654.218000", "123654.234000", "123654.234000", "123654.234000", "123654.234000", "123654.234000", "123654.234000", "123654.234000", "123654.250000", "123654.250000", "123654.250000", "123654.250000", "123654.250000", "123654.250000", "123654.250000", "123654.265000", "123654.265000", "123654.265000", "123654.265000", "123654.265000", "123654.265000", "123654.265000", "123654.265000", "123714.203000", "123714.203000", "123714.203000", "123714.203000", "123714.218000", "123714.218000", "123714.218000", "123714.218000", "123714.218000", "123714.218000", "123714.218000", "123714.234000", "123714.234000", "123714.234000", "123714.234000", "123714.234000", "123714.250000", "123714.250000", "123714.250000", "123714.250000", "123714.250000", "123714.250000", "123714.250000", "123714.250000", "123714.265000", "123714.265000", "123734.203000", "123734.203000", "123734.203000", "123734.218000", "123734.218000", "123734.218000", "123734.218000", "123734.218000", "123734.218000", "123734.218000", "123734.234000", "123734.234000", "123734.234000", "123734.234000", "123734.234000", "123734.234000", "123734.250000", "123734.250000", "123734.250000", "123734.250000", "123734.250000", "123734.250000", "123734.250000", "123734.265000", "123734.265000", "123754.203000", "123754.203000", "123754.203000", "123754.203000", "123754.218000", "123754.218000", "123754.218000", "123754.218000", "123754.218000", "123754.218000", "123754.218000", "123754.234000", "123754.234000", "123754.234000", "123754.234000", "123754.234000", "123754.234000", "123754.234000", "123754.234000", "123754.250000", "123754.250000", "123754.250000", "123754.250000", "123754.250000", "123754.250000", "123754.250000", "123814.203000", "123814.203000", "123814.203000", "123814.203000", "123814.218000", "123814.218000", "123814.218000", "123814.218000", "123814.218000", "123814.218000", "123814.218000", "123814.234000", "123814.234000", "123814.234000", "123814.234000", "123814.234000", "123814.234000", "123814.234000", "123814.234000", "123814.250000", "123814.250000", "123814.250000", "123814.250000", "123814.250000", "123814.250000", "123834.203000", "123834.203000", "123834.203000", "123834.203000", "123834.218000", "123834.218000", "123834.218000", "123834.218000", "123834.218000", "123834.218000", "123834.218000", "123834.234000", "123834.234000", "123834.234000", "123834.234000", "123834.234000", "123834.234000", "123834.234000", "123834.234000", "123834.250000", "123834.250000", "123834.250000", "123834.250000", "123834.250000", "123834.250000", "123834.265000", "123854.203000", "123854.203000", "123854.203000", "123854.218000", "123854.218000", "123854.218000", "123854.218000", "123854.218000", "123854.218000", "123854.218000", "123854.218000", "123854.234000", "123854.234000", "123854.234000", "123854.234000", "123854.234000", "123854.234000", "123854.234000", "123854.250000", "123854.250000", "123854.250000", "123854.250000", "123854.250000", "123854.250000", "123854.265000", "123914.203000", "123914.203000", "123914.203000", "123914.218000", "123914.218000", "123914.218000", "123914.218000", "123914.218000", "123914.218000", "123914.218000", "123914.218000", "123914.234000", "123914.234000", "123914.234000", "123914.234000", "123914.234000", "123914.250000", "123914.250000", "123914.250000", "123914.250000", "123914.250000", "123914.250000", "123914.250000", "123914.265000", "123914.265000", "123914.265000", "123934.203000", "123934.203000", "123934.203000", "123934.218000", "123934.218000", "123934.218000", "123934.218000", "123934.218000", "123934.218000", "123934.218000", "123934.234000", "123934.234000", "123934.234000", "123934.234000", "123934.234000", "123934.234000", "123934.234000", "123934.234000", "123934.250000", "123934.250000", "123934.250000", "123934.250000", "123934.250000", "123934.250000", "123934.250000", "123954.203000", "123954.203000", "123954.203000", "123954.203000", "123954.218000", "123954.218000", "123954.218000", "123954.218000", "123954.218000", "123954.218000", "123954.218000", "123954.234000", "123954.234000", "123954.234000", "123954.234000", "123954.234000", "123954.234000", "123954.250000", "123954.250000", "123954.250000", "123954.250000", "123954.250000", "123954.250000", "123954.250000", "123954.265000", "123954.265000", "124014.203000", "124014.203000", "124014.203000", "124014.218000", "124014.218000", "124014.218000", "124014.218000", "124014.218000", "124014.234000", "124014.234000", "124014.234000", "124014.234000", "124014.234000", "124014.250000", "124014.250000", "124014.250000", "124014.250000", "124014.250000", "124014.250000", "124014.250000", "124014.265000", "124014.265000", "124014.265000", "124014.265000", "124014.265000", "124034.203000", "124034.203000", "124034.203000", "124034.203000", "124034.218000", "124034.218000", "124034.218000", "124034.218000", "124034.218000", "124034.218000", "124034.218000", "124034.234000", "124034.234000", "124034.234000", "124034.234000", "124034.234000", "124034.234000", "124034.234000", "124034.234000", "124034.250000", "124034.250000", "124034.250000", "124034.250000", "124034.250000", "124034.250000", "124034.250000", "124054.203000", "124054.203000", "124054.203000", "124054.203000", "124054.218000", "124054.218000", "124054.218000", "124054.218000", "124054.218000", "124054.218000", "124054.218000", "124054.234000", "124054.234000", "124054.234000", "124054.234000", "124054.234000", "124054.234000", "124054.234000", "124054.250000", "124054.250000", "124054.250000", "124054.250000", "124054.250000", "124054.250000", "124054.250000", "124114.203000", "124114.203000", "124114.203000", "124114.218000", "124114.218000", "124114.218000", "124114.218000", "124114.218000", "124114.218000", "124114.218000", "124114.218000", "124114.234000", "124114.234000", "124114.234000", "124114.234000", "124114.234000", "124114.234000", "124114.234000", "124114.250000", "124114.250000", "124114.250000", "124114.250000", "124114.250000", "124114.250000", "124114.250000", "124114.265000", "124130.640000", "124130.640000", "124130.640000", "124130.656000", "124130.656000", "124130.656000", "124130.656000", "124130.656000", "124130.671000", "124130.671000", "124130.671000", "124130.671000", "124130.671000", "124130.671000", "124130.671000", "124130.671000", "124130.687000", "124130.687000", "124130.687000", "124130.687000", "124130.687000"],
