{
  "AcquisitionMatrixPE": 104,
  "AcquisitionNumber": 1,
  "AcquisitionTime": "16:32:4.787500",
  "BandwidthPerPixelPhaseEncode": 13.935,
  "BaseResolution": 104,
  "CoilString": "C:HEA;HEP",
  "ConversionSoftware": "dcm2niix",
  "ConversionSoftwareVersion": "v1.0.20210317",
  "DerivedVendorReportedEchoSpacing": 0.000690017,
  "DeviceSerialNumber": "35450",
  "DwellTime": 2.5e-06,
  "EchoTime": 0.0348,
  "EffectiveEchoSpacing": 0.000690017,
  "FlipAngle": 55,
  "ImageComments": "Unaliased MB8/PE3",
  "ImageOrientationPatientDICOM": [1, 0, 0, 0, 0.969016, -0.246999],
  "ImageType": [
    "ORIGINAL",
    "PRIMARY",
    "M",
    "MB",
    "ND",
    "MOSAIC"
],
  "ImagingFrequency": 123.234,
  "InPlanePhaseEncodingDirectionDICOM": "COL",
  "InstitutionAddress": "Univeristy Ave. 197,Newark,North East,US,07102-1814",
  "InstitutionName": "RUBIC",
  "InstitutionalDepartmentName": "Department",
  "MRAcquisitionType": "2D",
  "MagneticFieldStrength": 3,
  "Manufacturer": "Siemens",
  "ManufacturersModelName": "TrioTim",
  "Modality": "MR",
  "MultibandAccelerationFactor": 8,
  "PartialFourier": 0.875,
  "PatientPosition": "HFS",
  "PercentPhaseFOV": 100,
  "PercentSampling": 100,
  "PhaseEncodingDirection": "j-",
  "PhaseEncodingSteps": 91,
  "PhaseResolution": 1,
  "PixelBandwidth": 1923,
  "ProcedureStepDescription": "Cole^Michael",
  "ProtocolName": "cmrr_mbep2d_bold_2mm_MB8_Task_8x",
  "PulseSequenceDetails": "%CustomerSeq%\\cmrr_mbep2d_bold",
  "ReceiveCoilName": "32Ch_Head",
  "ReconMatrixPE": 104,
  "RepetitionTime": 0.785,
  "SAR": 0.113554,
  "ScanOptions": "PFP\\FS",
  "ScanningSequence": "EP",
  "SequenceName": "epfid2d1_104",
  "SequenceVariant": "SK\\SS",
  "SeriesDescription": "cmrr_mbep2d_bold_2mm_MB8_Task_8x",
  "SeriesNumber": 21,
  "ShimSetting": [2109, -373, -7303, 488, -79, -354, 228, -24],
  "SliceThickness": 2,
  "SliceTiming": [0, 0.4375, 0.0875, 0.525, 0.175, 0.6125, 0.2625, 0.7, 0.35, 0, 0.4375, 0.0875, 0.525, 0.175, 0.6125, 0.2625, 0.7, 0.35, 0, 0.4375, 0.0875, 0.525, 0.175, 0.6125, 0.2625, 0.7, 0.35, 0, 0.4375, 0.0875, 0.525, 0.175, 0.6125, 0.2625, 0.7, 0.35, 0, 0.4375, 0.0875, 0.525, 0.175, 0.6125, 0.2625, 0.7, 0.35, 0, 0.4375, 0.0875, 0.525, 0.175, 0.6125, 0.2625, 0.7, 0.35, 0, 0.4375, 0.0875, 0.525, 0.175, 0.6125, 0.2625, 0.7, 0.35, 0, 0.4375, 0.0875, 0.525, 0.175, 0.6125, 0.2625, 0.7, 0.35],
  "SoftwareVersions": "syngo MR B19",
  "SpacingBetweenSlices": 2,
  "StationName": "MRC35450",
  "TaskName": "cpro",
  "TotalReadoutTime": 0.0710717,
  "TxRefAmp": 325.228,
  "dcmmeta_affine": [
    [-2.0, 0.0, 0.0, 109.4237289428711],
    [0.0, 1.9380314350128174, -0.4939979910850525, -72.00485229492188],
    [0.0, 0.4939979910850525, 1.9380314350128174, -97.53881072998047],
    [0.0, 0.0, 0.0, 1.0]
],
  "dcmmeta_reorient_transform": [
    [0.0, -1.0, 0.0, 103.0],
    [1.0, 0.0, 0.0, 0.0],
    [0.0, 0.0, 1.0, 0.0],
    [0.0, 0.0, 0.0, 1.0]
],
  "dcmmeta_shape": [104, 104, 72, 581],
  "dcmmeta_slice_dim": 2,
  "dcmmeta_version": 0.6,
  "global": {
    "const": {
      "AcquisitionMatrix": [104, 0, 0, 104],
      "AngioFlag": "N",
      "BitsAllocated": 16,
      "BitsStored": 12,
      "Columns": 936,
      "EchoNumbers": 1,
      "EchoTime": 34.8,
      "EchoTrainLength": 1,
      "FlipAngle": 55.0,
      "HighBit": 11,
      "ImageOrientationPatient": [1.0, 0.0, 0.0, 0.0, 0.96901573474032, -0.2469989996451],
      "ImagePositionPatient": [-941.42372894287, -933.83347884609, 158.84615399986],
      "ImageType": [
        "ORIGINAL",
        "PRIMARY",
        "M",
        "MB",
        "ND",
        "MOSAIC"
],
      "ImagedNucleus": "1H",
      "ImagingFrequency": 123.234449,
      "InPlanePhaseEncodingDirection": "COL",
      "MRAcquisitionType": "2D",
      "MagneticFieldStrength": 3.0,
      "Manufacturer": "SIEMENS",
      "ManufacturerModelName": "TrioTim",
      "Modality": "MR",
      "NumberOfAverages": 1.0,
      "NumberOfPhaseEncodingSteps": 91,
      "PercentPhaseFieldOfView": 100.0,
      "PercentSampling": 100.0,
      "PerformedProcedureStepStartTime": "142138.500000",
      "PhotometricInterpretation": "MONOCHROME2",
      "PixelBandwidth": 1923.0,
      "PixelRepresentation": 0,
      "PixelSpacing": [2.0, 2.0],
      "ProtocolName": "cmrr_mbep2d_bold_2mm_MB8_Task_8x",
      "RepetitionTime": 785.0,
      "Rows": 936,
      "SAR": 0.11355432133489,
      "SamplesPerPixel": 1,
      "ScanOptions": [
        "PFP",
        "FS"
],
      "ScanningSequence": "EP",
      "SequenceName": "epfid2d1_104",
      "SequenceVariant": [
        "SK",
        "SS"
],
      "SeriesDescription": "cmrr_mbep2d_bold_2mm_MB8_Task_8x",
      "SeriesNumber": 21,
      "SeriesTime": "173916.562000",
      "SliceLocation": -76.731512481254,
      "SliceThickness": 2.0,
      "SmallestImagePixelValue": 0,
      "SoftwareVersions": "syngo MR B19",
      "SpacingBetweenSlices": 2.0000000166207,
      "SpecificCharacterSet": "ISO_IR 100",
      "StudyID": "1",
      "StudyTime": "142138.468000",
      "TransmitCoilName": "Body",
      "VariableFlipAngleFlag": "N",
      "WindowCenterWidthExplanation": "Algo1",
      "dBdt": 0.0},
    "slices": {}
  },
  "time": {
    "samples": {
      "AcquisitionNumber": [1, 2, 3, 4, 5, 6, 7, 8, 9, 10, 11, 12, 13, 14, 15, 16, 17, 18, 19, 20, 21, 22, 23, 24, 25, 26, 27, 28, 29, 30, 31, 32, 33, 34, 35, 36, 37, 38, 39, 40, 41, 42, 43, 44, 45, 46, 47, 48, 49, 50, 51, 52, 53, 54, 55, 56, 57, 58, 59, 60, 61, 62, 63, 64, 65, 66, 67, 68, 69, 70, 71, 72, 73, 74, 75, 76, 77, 78, 79, 80, 81, 82, 83, 84, 85, 86, 87, 88, 89, 90, 91, 92, 93, 94, 95, 96, 97, 98, 99, 100, 101, 102, 103, 104, 105, 106, 107, 108, 109, 110, 111, 112, 113, 114, 115, 116, 117, 118, 119, 120, 121, 122, 123, 124, 125, 126, 127, 128, 129, 130, 131, 132, 133, 134, 135, 136, 137, 138, 139, 140, 141, 142, 143, 144, 145, 146, 147, 148, 149, 150, 151, 152, 153, 154, 155, 156, 157, 158, 159, 160, 161, 162, 163, 164, 165, 166, 167, 168, 169, 170, 171, 172, 173, 174, 175, 176, 177, 178, 179, 180, 181, 182, 183, 184, 185, 186, 187, 188, 189, 190, 191, 192, 193, 194, 195, 196, 197, 198, 199, 200, 201, 202, 203, 204, 205, 206, 207, 208, 209, 210, 211, 212, 213, 214, 215, 216, 217, 218, 219, 220, 221, 222, 223, 224, 225, 226, 227, 228, 229, 230, 231, 232, 233, 234, 235, 236, 237, 238, 239, 240, 241, 242, 243, 244, 245, 246, 247, 248, 249, 250, 251, 252, 253, 254, 255, 256, 257, 258, 259, 260, 261, 262, 263, 264, 265, 266, 267, 268, 269, 270, 271, 272, 273, 274, 275, 276, 277, 278, 279, 280, 281, 282, 283, 284, 285, 286, 287, 288, 289, 290, 291, 292, 293, 294, 295, 296, 297, 298, 299, 300, 301, 302, 303, 304, 305, 306, 307, 308, 309, 310, 311, 312, 313, 314, 315, 316, 317, 318, 319, 320, 321, 322, 323, 324, 325, 326, 327, 328, 329, 330, 331, 332, 333, 334, 335, 336, 337, 338, 339, 340, 341, 342, 343, 344, 345, 346, 347, 348, 349, 350, 351, 352, 353, 354, 355, 356, 357, 358, 359, 360, 361, 362, 363, 364, 365, 366, 367, 368, 369, 370, 371, 372, 373, 374, 375, 376, 377, 378, 379, 380, 381, 382, 383, 384, 385, 386, 387, 388, 389, 390, 391, 392, 393, 394, 395, 396, 397, 398, 399, 400, 401, 402, 403, 404, 405, 406, 407, 408, 409, 410, 411, 412, 413, 414, 415, 416, 417, 418, 419, 420, 421, 422, 423, 424, 425, 426, 427, 428, 429, 430, 431, 432, 433, 434, 435, 436, 437, 438, 439, 440, 441, 442, 443, 444, 445, 446, 447, 448, 449, 450, 451, 452, 453, 454, 455, 456, 457, 458, 459, 460, 461, 462, 463, 464, 465, 466, 467, 468, 469, 470, 471, 472, 473, 474, 475, 476, 477, 478, 479, 480, 481, 482, 483, 484, 485, 486, 487, 488, 489, 490, 491, 492, 493, 494, 495, 496, 497, 498, 499, 500, 501, 502, 503, 504, 505, 506, 507, 508, 509, 510, 511, 512, 513, 514, 515, 516, 517, 518, 519, 520, 521, 522, 523, 524, 525, 526, 527, 528, 529, 530, 531, 532, 533, 534, 535, 536, 537, 538, 539, 540, 541, 542, 543, 544, 545, 546, 547, 548, 549, 550, 551, 552, 553, 554, 555, 556, 557, 558, 559, 560, 561, 562, 563, 564, 565, 566, 567, 568, 569, 570, 571, 572, 573, 574, 575, 576, 577, 578, 579, 580, 581],
      "AcquisitionTime": ["163204.787500", "163205.577500", "163206.365000", "163207.152500", "163207.940000", "163208.730000", "163209.517500", "163210.305000", "163211.092500", "163211.882500", "163212.670000", "163213.457500", "163214.245000", "163215.035000", "163215.822500", "163216.610000", "163217.397500", "163218.187500", "163218.975000", "163219.762500", "163220.552500", "163221.340000", "163222.127500", "163222.915000", "163223.705000", "163224.492500", "163225.280000", "163226.067500", "163226.857500", "163227.645000", "163228.432500", "163229.220000", "163230.010000", "163230.797500", "163231.585000", "163232.372500", "163233.162500", "163233.950000", "163234.737500", "163235.525000", "163236.315000", "163237.102500", "163237.890000", "163238.680000", "163239.467500", "163240.255000", "163241.042500", "163241.832500", "163242.620000", "163243.407500", "163244.195000", "163244.985000", "163245.772500", "163246.560000", "163247.347500", "163248.137500", "163248.925000", "163249.712500", "163250.500000", "163251.290000", "163252.077500", "163252.865000", "163253.655000", "163254.442500", "163255.230000", "163256.017500", "163256.807500", "163257.595000", "163258.382500", "163259.170000", "163259.960000", "163300.747500", "163301.535000", "163302.322500", "163303.112500", "163303.900000", "163304.687500", "163305.475000", "163306.265000", "163307.052500", "163307.840000", "163308.627500", "163309.417500", "163310.205000", "163310.992500", "163311.782500", "163312.570000", "163313.357500", "163314.145000", "163314.935000", "163315.722500", "163316.510000", "163317.297500", "163318.087500", "163318.875000", "163319.662500", "163320.450000", "163321.240000", "163322.027500", "163322.815000", "163323.602500", "163324.392500", "163325.180000", "163325.967500", "163326.755000", "163327.545000", "163328.332500", "163329.120000", "163329.910000", "163330.697500", "163331.485000", "163332.272500", "163333.062500", "163333.850000", "163334.637500", "163335.425000", "163336.215000", "163337.002500", "163337.790000", "163338.577500", "163339.367500", "163340.155000", "163340.942500", "163341.730000", "163342.520000", "163343.307500", "163344.095000", "163344.882500", "163345.672500", "163346.460000", "163347.247500", "163348.037500", "163348.825000", "163349.612500", "163350.400000", "163351.190000", "163351.977500", "163352.765000", "163353.552500", "163354.342500", "163355.130000", "163355.917500", "163356.705000", "163357.495000", "163358.282500", "163359.070000", "163359.857500", "163400.647500", "163401.435000", "163402.222500", "163403.010000", "163403.800000", "163404.587500", "163405.375000", "163406.165000", "163406.952500", "163407.740000", "163408.527500", "163409.317500", "163410.105000", "163410.892500", "163411.680000", "163412.470000", "163413.257500", "163414.045000", "163414.832500", "163415.622500", "163416.410000", "163417.197500", "163417.985000", "163418.775000", "163419.562500", "163420.350000", "163421.137500", "163421.927500", "163422.715000", "163423.502500", "163424.292500", "163425.080000", "163425.867500", "163426.655000", "163427.445000", "163428.232500", "163429.020000", "163429.807500", "163430.597500", "163431.385000", "163432.172500", "163432.960000", "163433.750000", "163434.537500", "163435.325000", "163436.112500", "163436.902500", "163437.690000", "163438.477500", "163439.265000", "163440.055000", "163440.842500", "163441.630000", "163442.420000", "163443.207500", "163443.995000", "163444.782500", "163445.572500", "163446.360000", "163447.147500", "163447.935000", "163448.725000", "163449.512500", "163450.300000", "163451.087500", "163451.877500", "163452.665000", "163453.452500", "163454.240000", "163455.030000", "163455.817500", "163456.605000", "163457.392500", "163458.182500", "163458.970000", "163459.757500", "163500.547500", "163501.335000", "163502.122500", "163502.910000", "163503.700000", "163504.487500", "163505.275000", "163506.062500", "163506.852500", "163507.640000", "163508.427500", "163509.215000", "163510.005000", "163510.792500", "163511.580000", "163512.367500", "163513.157500", "163513.945000", "163514.732500", "163515.520000", "163516.310000", "163517.097500", "163517.885000", "163518.675000", "163519.462500", "163520.250000", "163521.037500", "163521.827500", "163522.615000", "163523.402500", "163524.190000", "163524.980000", "163525.767500", "163526.555000", "163527.342500", "163528.132500", "163528.920000", "163529.707500", "163530.495000", "163531.285000", "163532.072500", "163532.860000", "163533.647500", "163534.437500", "163535.225000", "163536.012500", "163536.802500", "163537.590000", "163538.377500", "163539.165000", "163539.955000", "163540.742500", "163541.530000", "163542.317500", "163543.107500", "163543.895000", "163544.682500", "163545.470000", "163546.260000", "163547.047500", "163547.835000", "163548.622500", "163549.412500", "163550.200000", "163550.987500", "163551.775000", "163552.565000", "163553.352500", "163554.140000", "163554.930000", "163555.717500", "163556.505000", "163557.292500", "163558.082500", "163558.870000", "163559.657500", "163600.445000", "163601.235000", "163602.022500", "163602.810000", "163603.597500", "163604.387500", "163605.175000", "163605.962500", "163606.750000", "163607.540000", "163608.327500", "163609.115000", "163609.905000", "163610.692500", "163611.480000", "163612.267500", "163613.057500", "163613.845000", "163614.632500", "163615.420000", "163616.210000", "163616.997500", "163617.785000", "163618.572500", "163619.362500", "163620.150000", "163620.937500", "163621.725000", "163622.515000", "163623.302500", "163624.090000", "163624.877500", "163625.667500", "163626.455000", "163627.242500", "163628.032500", "163628.820000", "163629.607500", "163630.395000", "163631.185000", "163631.972500", "163632.760000", "163633.547500", "163634.337500", "163635.125000", "163635.912500", "163636.700000", "163637.490000", "163638.277500", "163639.065000", "163639.852500", "163640.642500", "163641.430000", "163642.217500", "163643.005000", "163643.795000", "163644.582500", "163645.370000", "163646.160000", "163646.947500", "163647.735000", "163648.522500", "163649.312500", "163650.100000", "163650.887500", "163651.675000", "163652.465000", "163653.252500", "163654.040000", "163654.827500", "163655.617500", "163656.405000", "163657.192500", "163657.980000", "163658.770000", "163659.557500", "163700.345000", "163701.132500", "163701.922500", "163702.710000", "163703.497500", "163704.287500", "163705.075000", "163705.862500", "163706.650000", "163707.440000", "163708.227500", "163709.015000", "163709.802500", "163710.592500", "163711.380000", "163712.167500", "163712.955000", "163713.745000", "163714.532500", "163715.320000", "163716.107500", "163716.897500", "163717.685000", "163718.472500", "163719.260000", "163720.050000", "163720.837500", "163721.625000", "163722.415000", "163723.202500", "163723.990000", "163724.777500", "163725.567500", "163726.355000", "163727.142500", "163727.930000", "163728.720000", "163729.507500", "163730.295000", "163731.082500", "163731.872500", "163732.660000", "163733.447500", "163734.235000", "163735.025000", "163735.812500", "163736.600000", "163737.387500", "163738.177500", "163738.965000", "163739.752500", "163740.542500", "163741.330000", "163742.117500", "163742.905000", "163743.695000", "163744.482500", "163745.270000", "163746.057500", "163746.847500", "163747.635000", "163748.422500", "163749.210000", "163750.000000", "163750.787500", "163751.575000", "163752.362500", "163753.152500", "163753.940000", "163754.727500", "163755.515000", "163756.305000", "163757.092500", "163757.880000", "163758.670000", "163759.457500", "163800.245000", "163801.032500", "163801.822500", "163802.610000", "163803.397500", "163804.185000", "163804.975000", "163805.762500", "163806.550000", "163807.337500", "163808.127500", "163808.915000", "163809.702500", "163810.490000", "163811.280000", "163812.067500", "163812.855000", "163813.642500", "163814.432500", "163815.220000", "163816.007500", "163816.797500", "163817.585000", "163818.372500", "163819.160000", "163819.950000", "163820.737500", "163821.525000", "163822.312500", "163823.102500", "163823.890000", "163824.677500", "163825.465000", "163826.255000", "163827.042500", "163827.830000", "163828.617500", "163829.407500", "163830.195000", "163830.982500", "163831.770000", "163832.560000", "163833.347500", "163834.135000", "163834.925000", "163835.712500", "163836.500000", "163837.287500", "163838.077500", "163838.865000", "163839.652500", "163840.440000", "163841.230000", "163842.017500", "163842.805000", "163843.592500", "163844.382500", "163845.170000", "163845.957500", "163846.745000", "163847.535000", "163848.322500", "163849.110000", "163849.897500", "163850.687500", "163851.475000", "163852.262500", "163853.052500", "163853.840000", "163854.627500", "163855.415000", "163856.205000", "163856.992500", "163857.780000", "163858.567500", "163859.357500", "163900.145000", "163900.932500", "163901.720000", "163902.510000", "163903.297500", "163904.085000", "163904.872500", "163905.662500", "163906.450000", "163907.237500", "163908.025000", "163908.815000", "163909.602500", "163910.390000", "163911.180000", "163911.967500", "163912.755000", "163913.542500", "163914.332500", "163915.120000", "163915.907500", "163916.695000", "163917.485000", "163918.272500", "163919.060000", "163919.847500", "163920.637500", "163921.425000", "163922.212500", "163923.000000", "163923.790000", "163924.577500", "163925.365000", "163926.155000", "163926.942500", "163927.730000", "163928.517500", "163929.307500", "163930.095000", "163930.882500", "163931.670000", "163932.460000", "163933.247500", "163934.035000", "163934.822500", "163935.612500", "163936.400000", "163937.187500", "163937.975000", "163938.765000", "163939.552500", "163940.340000", "163941.127500", "163941.917500"],
      "ContentTime": ["173916.562000", "174016.531000", "174016.531000", "174016.531000", "174016.546000", "174016.546000", "174016.546000", "174016.546000", "174016.546000", "174016.546000", "174016.546000", "174016.562000", "174016.562000", "174016.562000", "174016.562000", "174016.562000", "174016.562000", "174016.562000", "174016.578000", "174016.578000", "174016.578000", "174016.578000", "174016.578000", "174016.578000", "174016.578000", "174016.593000", "174016.593000", "174016.593000", "174016.593000", "174116.531000", "174116.531000", "174116.531000", "174116.546000", "174116.546000", "174116.546000", "174116.546000", "174116.546000", "174116.546000", "174116.546000", "174116.562000", "174116.562000", "174116.562000", "174116.562000", "174116.562000", "174116.562000", "174116.562000", "174116.578000", "174116.578000", "174116.578000", "174116.578000", "174116.578000", "174116.593000", "174116.593000", "174116.593000", "174116.593000", "174116.593000", "174116.593000", "174116.593000", "174156.531000", "174156.531000", "174156.531000", "174156.546000", "174156.546000", "174156.546000", "174156.546000", "174156.546000", "174156.546000", "174156.546000", "174156.562000", "174156.562000", "174156.562000", "174156.562000", "174156.562000", "174156.562000", "174156.562000", "174156.578000", "174256.531000", "174256.531000", "174256.531000", "174256.546000", "174256.546000", "174256.546000", "174256.546000", "174256.546000", "174256.546000", "174256.546000", "174256.562000", "174256.562000", "174256.562000", "174256.562000", "174256.562000", "174256.562000", "174256.562000", "174256.578000", "174256.578000", "174256.578000", "174256.578000", "174256.578000", "174256.578000", "174256.578000", "174256.593000", "174256.593000", "174256.593000", "174256.593000", "174256.593000", "174356.531000", "174356.531000", "174356.531000", "174356.546000", "174356.546000", "174356.546000", "174356.546000", "174356.546000", "174356.546000", "174356.546000", "174356.562000", "174356.562000", "174356.562000", "174356.562000", "174356.562000", "174356.578000", "174356.578000", "174356.578000", "174356.578000", "174356.578000", "174356.578000", "174356.593000", "174356.593000", "174356.593000", "174356.593000", "174356.593000", "174356.593000", "174356.609000", "174456.531000", "174456.531000", "174456.531000", "174456.546000", "174456.546000", "174456.546000", "174456.546000", "174456.546000", "174456.546000", "174456.546000", "174456.562000", "174456.562000", "174456.562000", "174456.562000", "174456.562000", "174456.562000", "174456.562000", "174456.578000", "174456.578000", "174456.578000", "174456.578000", "174456.578000", "174456.578000", "174456.578000", "174456.593000", "174456.593000", "174456.593000", "174456.593000", "174556.531000", "174556.531000", "174556.531000", "174556.546000", "174556.546000", "174556.546000", "174556.546000", "174556.546000", "174556.562000", "174556.562000", "174556.562000", "174556.562000", "174556.562000", "174556.562000", "174556.562000", "174556.578000", "174556.578000", "174556.578000", "174556.578000", "174556.578000", "174556.578000", "174556.578000", "174556.593000", "174556.593000", "174556.593000", "174556.593000", "174556.593000", "174556.593000", "174656.531000", "174656.531000", "174656.531000", "174656.546000", "174656.546000", "174656.546000", "174656.546000", "174656.546000", "174656.546000", "174656.546000", "174656.562000", "174656.562000", "174656.562000", "174656.562000", "174656.562000", "174656.562000", "174656.562000", "174656.578000", "174656.578000", "174656.578000", "174656.578000", "174656.593000", "174656.593000", "174656.593000", "174656.593000", "174656.593000", "174656.593000", "174656.593000", "174756.531000", "174756.531000", "174756.531000", "174756.546000", "174756.546000", "174756.546000", "174756.546000", "174756.546000", "174756.546000", "174756.546000", "174756.562000", "174756.562000", "174756.562000", "174756.562000", "174756.562000", "174756.562000", "174756.562000", "174756.578000", "174756.578000", "174756.578000", "174756.578000", "174756.593000", "174756.593000", "174756.593000", "174756.593000", "174756.593000", "174756.609000", "174756.625000", "174756.625000", "174856.531000", "174856.531000", "174856.531000", "174856.546000", "174856.546000", "174856.546000", "174856.546000", "174856.546000", "174856.546000", "174856.546000", "174856.562000", "174856.562000", "174856.562000", "174856.562000", "174856.562000", "174856.562000", "174856.562000", "174856.578000", "174856.578000", "174856.578000", "174856.578000", "174856.578000", "174856.593000", "174856.593000", "174856.593000", "174856.609000", "174856.609000", "174856.609000", "174956.531000", "174956.531000", "174956.531000", "174956.546000", "174956.546000", "174956.546000", "174956.546000", "174956.546000", "174956.546000", "174956.546000", "174956.562000", "174956.562000", "174956.562000", "174956.562000", "174956.562000", "174956.562000", "174956.562000", "174956.578000", "174956.578000", "174956.578000", "174956.578000", "174956.578000", "174956.578000", "174956.578000", "174956.593000", "174956.593000", "174956.593000", "174956.593000", "175056.531000", "175056.531000", "175056.531000", "175056.546000", "175056.546000", "175056.546000", "175056.546000", "175056.546000", "175056.546000", "175056.546000", "175056.562000", "175056.562000", "175056.562000", "175056.562000", "175056.562000", "175056.562000", "175056.562000", "175056.578000", "175056.578000", "175056.578000", "175056.578000", "175056.578000", "175056.578000", "175056.593000", "175056.593000", "175056.593000", "175056.593000", "175056.593000", "175156.531000", "175156.531000", "175156.531000", "175156.546000", "175156.546000", "175156.546000", "175156.546000", "175156.546000", "175156.546000", "175156.546000", "175156.562000", "175156.562000", "175156.562000", "175156.562000", "175156.562000", "175156.578000", "175156.578000", "175156.578000", "175156.578000", "175156.578000", "175156.578000", "175156.578000", "175156.593000", "175156.593000", "175156.593000", "175156.593000", "175156.593000", "175156.593000", "175156.609000", "175216.531000", "175216.531000", "175216.531000", "175216.546000", "175216.546000", "175216.546000", "175216.546000", "175216.546000", "175216.546000", "175316.531000", "175316.531000", "175316.531000", "175316.546000", "175316.546000", "175316.546000", "175316.546000", "175316.546000", "175316.546000", "175316.546000", "175316.562000", "175316.562000", "175316.562000", "175316.562000", "175316.562000", "175316.562000", "175316.562000", "175316.578000", "175316.578000", "175316.578000", "175316.578000", "175316.578000", "175316.578000", "175316.578000", "175316.593000", "175316.593000", "175316.593000", "175316.593000", "175416.531000", "175416.531000", "175416.531000", "175416.546000", "175416.546000", "175416.546000", "175416.546000", "175416.546000", "175416.546000", "175416.546000", "175416.562000", "175416.562000", "175416.562000", "175416.562000", "175416.562000", "175416.562000", "175416.562000", "175416.578000", "175416.578000", "175416.578000", "175416.578000", "175416.578000", "175416.578000", "175416.578000", "175416.593000", "175416.593000", "175416.593000", "175416.593000", "175516.531000", "175516.531000", "175516.531000", "175516.546000", "175516.546000", "175516.546000", "175516.546000", "175516.546000", "175516.546000", "175516.546000", "175516.562000", "175516.562000", "175516.562000", "175516.562000", "175516.562000", "175516.562000", "175516.562000", "175516.578000", "175516.578000", "175516.578000", "175516.578000", "175516.578000", "175516.578000", "175516.578000", "175516.593000", "175516.593000", "175516.593000", "175516.593000", "175616.531000", "175616.531000", "175616.531000", "175616.546000", "175616.546000", "175616.546000", "175616.546000", "175616.546000", "175616.546000", "175616.546000", "175616.562000", "175616.562000", "175616.562000", "175616.562000", "175616.562000", "175616.562000", "175616.562000", "175616.578000", "175616.578000", "175616.578000", "175616.578000", "175616.578000", "175616.578000", "175616.578000", "175616.593000", "175616.593000", "175616.593000", "175616.609000", "175716.531000", "175716.531000", "175716.531000", "175716.546000", "175716.546000", "175716.546000", "175716.546000", "175716.546000", "175716.546000", "175716.546000", "175716.562000", "175716.562000", "175716.562000", "175716.562000", "175716.562000", "175716.562000", "175716.562000", "175716.578000", "175716.578000", "175716.578000", "175716.578000", "175716.578000", "175716.578000", "175716.578000", "175716.593000", "175716.593000", "175716.593000", "175716.593000", "175716.593000", "175816.531000", "175816.531000", "175816.531000", "175816.546000", "175816.546000", "175816.546000", "175816.546000", "175816.546000", "175816.546000", "175816.562000", "175816.562000", "175816.562000", "175816.562000", "175816.562000", "175816.578000", "175816.578000", "175816.578000", "175816.578000", "175816.578000", "175816.578000", "175816.578000", "175816.593000", "175816.593000", "175816.593000", "175816.593000", "175816.593000", "175816.593000", "175816.593000", "175916.531000", "175916.531000", "175916.531000", "175916.546000", "175916.546000", "175916.546000", "175916.546000", "175916.546000", "175916.546000", "175916.562000", "175916.562000", "175916.562000", "175916.562000", "175916.562000", "175916.562000", "175916.578000", "175916.578000", "175916.578000", "175916.578000", "175916.578000", "175916.578000", "175916.578000", "175916.593000", "175916.593000", "175916.593000", "175916.593000", "175916.593000", "175916.593000", "175948.843000", "175948.859000", "175948.859000", "175948.859000", "175948.859000", "175948.859000", "175948.859000", "175948.859000", "175948.875000", "175948.875000", "175948.875000", "175948.875000", "175948.875000", "175948.875000", "175948.890000", "175948.890000"],
      "DataSetTrailingPadding": [
        "\u0000\u0000\u0000\u0000\u0000\u0000\u0000\u0000\u0000\u0000\u0000\u0000\u0000\u0000\u0000\u0000\u0000\u0000\u0000\u0000\u0000\u0000\u0000\u0000\u0000\u0000\u0000\u0000\u0000\u0000\u0000\u0000\u0000\u0000\u0000\u0000\u0000\u0000\u0000\u0000\u0000\u0000\u0000\u0000\u0000\u0000\u0000\u0000\u0000\u0000\u0000\u0000\u0000\u0000\u0000\u0000\u0000\u0000\u0000\u0000\u0000\u0000\u0000\u0000\u0000\u0000\u0000\u0000\u0000\u0000\u0000\u0000\u0000\u0000\u0000\u0000\u0000\u0000\u0000\u0000\u0000\u0000\u0000\u0000\u0000\u0000\u0000\u0000\u0000\u0000\u0000\u0000\u0000\u0000\u0000\u0000\u0000\u0000\u0000\u0000\u0000\u0000\u0000\u0000\u0000\u0000\u0000\u0000\u0000\u0000\u0000\u0000\u0000\u0000\u0000\u0000\u0000\u0000\u0000\u0000\u0000\u0000\u0000\u0000\u0000\u0000\u0000\u0000\u0000\u0000\u0000\u0000\u0000\u0000\u0000\u0000\u0000\u0000\u0000\u0000\u0000\u0000\u0000\u0000\u0000\u0000\u0000\u0000\u0000\u0000\u0000\u0000\u0000\u0000\u0000\u0000\u0000\u0000\u0000\u0000\u0000\u0000\u0000\u0000\u0000\u0000\u0000\u0000\u0000\u0000\u0000\u0000\u0000\u0000\u0000\u0000\u0000\u0000\u0000\u0000\u0000\u0000\u0000\u0000\u0000\u0000\u0000\u0000\u0000\u0000\u0000\u0000\u0000\u0000\u0000\u0000\u0000\u0000\u0000\u0000\u0000\u0000\u0000\u0000\u0000\u0000\u0000\u0000\u0000\u0000\u0000\u0000\u0000\u0000\u0000\u0000\u0000\u0000\u0000\u0000\u0000\u0000\u0000\u0000\u0000\u0000\u0000\u0000\u0000\u0000\u0000\u0000\u0000\u0000\u0000\u0000\u0000\u0000\u0000\u0000\u0000\u0000\u0000\u0000\u0000\u0000\u0000\u0000\u0000\u0000\u0000\u0000\u0000\u0000\u0000\u0000\u0000\u0000\u0000\u0000\u0000\u0000\u0000\u0000\u0000\u0000\u0000\u0000\u0000\u0000\u0000\u0000\u0000\u0000\u0000\u0000\u0000\u0000\u0000\u0000\u0000\u0000\u0000\u0000\u0000\u0000\u0000\u0000\u0000\u0000",
