{
  "AcquisitionMatrixPE": 104,
  "AcquisitionNumber": 1,
  "AcquisitionTime": "12:00:48.385000",
  "BandwidthPerPixelPhaseEncode": 13.935,
  "BaseResolution": 104,
  "CoilString": "C:HEA;HEP",
  "ConversionSoftware": "dcm2niix",
  "ConversionSoftwareVersion": "v1.0.20210317",
  "DerivedVendorReportedEchoSpacing": 0.000690017,
  "DeviceSerialNumber": "35450",
  "DwellTime": 2.5e-06,
  "EchoTime": 0.0348,
  "EffectiveEchoSpacing": 0.000690017,
  "FlipAngle": 55,
  "ImageComments": "Unaliased MB8/PE3 (remote)",
  "ImageOrientationPatientDICOM": [0.999997, 0.000565318, -0.00257127, -1.44147e-09, 0.976673, 0.21473],
  "ImageType": [
    "ORIGINAL",
    "PRIMARY",
    "M",
    "MB",
    "ND",
    "MOSAIC"
],
  "ImagingFrequency": 123.234,
  "InPlanePhaseEncodingDirectionDICOM": "COL",
  "InstitutionAddress": "Univeristy Ave. 197,Newark,North East,US,07102-1814",
  "InstitutionName": "RUBIC",
  "InstitutionalDepartmentName": "Department",
  "MRAcquisitionType": "2D",
  "MagneticFieldStrength": 3,
  "Manufacturer": "Siemens",
  "ManufacturersModelName": "TrioTim",
  "Modality": "MR",
  "MultibandAccelerationFactor": 8,
  "PartialFourier": 0.875,
  "PatientPosition": "HFS",
  "PercentPhaseFOV": 100,
  "PercentSampling": 100,
  "PhaseEncodingDirection": "j-",
  "PhaseEncodingSteps": 91,
  "PhaseResolution": 1,
  "PixelBandwidth": 1923,
  "ProcedureStepDescription": "Cole^Michael",
  "ProtocolName": "cmrr_mbep2d_bold_2mm_MB8_Task_8x",
  "PulseSequenceDetails": "%CustomerSeq%\\cmrr_mbep2d_bold",
  "ReceiveCoilName": "32Ch_Head",
  "ReconMatrixPE": 104,
  "RepetitionTime": 0.785,
  "SAR": 0.185257,
  "ScanOptions": "PFP\\FS",
  "ScanningSequence": "EP",
  "SequenceName": "epfid2d1_104",
  "SequenceVariant": "SK\\SS",
  "SeriesDescription": "cmrr_mbep2d_bold_2mm_MB8_Task_8x",
  "SeriesNumber": 13,
  "ShimSetting": [2102, -516, -7343, 698, -261, -615, -75, 67],
  "SliceThickness": 2,
  "SliceTiming": [0, 0.4375, 0.0875, 0.525, 0.175, 0.6125, 0.2625, 0.7, 0.35, 0, 0.4375, 0.0875, 0.525, 0.175, 0.6125, 0.2625, 0.7, 0.35, 0, 0.4375, 0.0875, 0.525, 0.175, 0.6125, 0.2625, 0.7, 0.35, 0, 0.4375, 0.0875, 0.525, 0.175, 0.6125, 0.2625, 0.7, 0.35, 0, 0.4375, 0.0875, 0.525, 0.175, 0.6125, 0.2625, 0.7, 0.35, 0, 0.4375, 0.0875, 0.525, 0.175, 0.6125, 0.2625, 0.7, 0.35, 0, 0.4375, 0.0875, 0.525, 0.175, 0.6125, 0.2625, 0.7, 0.35, 0, 0.4375, 0.0875, 0.525, 0.175, 0.6125, 0.2625, 0.7, 0.35],
  "SoftwareVersions": "syngo MR B19",
  "SpacingBetweenSlices": 2,
  "StationName": "MRC35450",
  "TaskName": "cpro",
  "TotalReadoutTime": 0.0710717,
  "TxRefAmp": 321.351,
  "dcmmeta_affine": [
    [-1.999993085861206, -2.882948102467253e-09, -0.005265367217361927, 98.77291870117188],
    [-0.001130635035224259, 1.953346848487854, 0.42945849895477295, -86.51608276367188],
    [-0.005142543464899063, -0.42945995926856995, 1.9533401727676392, -69.7806167602539],
    [0.0, 0.0, 0.0, 1.0]
],
  "dcmmeta_reorient_transform": [
    [0.0, -1.0, 0.0, 103.0],
    [1.0, 0.0, 0.0, 0.0],
    [0.0, 0.0, 1.0, 0.0],
    [0.0, 0.0, 0.0, 1.0]
],
  "dcmmeta_shape": [104, 104, 72, 581],
  "dcmmeta_slice_dim": 2,
  "dcmmeta_version": 0.6,
  "global": {
    "const": {
      "AcquisitionMatrix": [104, 0, 0, 104],
      "AngioFlag": "N",
      "BitsAllocated": 16,
      "BitsStored": 12,
      "Columns": 936,
      "EchoNumbers": 1,
      "EchoTime": 34.8,
      "EchoTrainLength": 1,
      "FlipAngle": 55.0,
      "HighBit": 11,
      "ImageOrientationPatient": [0.99999653448279, 0.00056531750045, -0.0025712717758, -1.441474e-09, 0.97667345256025, 0.21472998641095],
      "ImagePositionPatient": [-930.77003125571, -927.74130329097, -290.53104212796],
      "ImageType": [
        "ORIGINAL",
        "PRIMARY",
        "M",
        "MB",
        "ND",
        "MOSAIC"
],
      "ImagedNucleus": "1H",
      "ImagingFrequency": 123.234388,
      "InPlanePhaseEncodingDirection": "COL",
      "MRAcquisitionType": "2D",
      "MagneticFieldStrength": 3.0,
      "Manufacturer": "SIEMENS",
      "ManufacturerModelName": "TrioTim",
      "Modality": "MR",
      "NumberOfAverages": 1.0,
      "NumberOfPhaseEncodingSteps": 91,
      "PercentPhaseFieldOfView": 100.0,
      "PercentSampling": 100.0,
      "PerformedProcedureStepStartTime": "110212.593000",
      "PhotometricInterpretation": "MONOCHROME2",
      "PixelBandwidth": 1923.0,
      "PixelRepresentation": 0,
      "PixelSpacing": [2.0, 2.0],
      "ProtocolName": "cmrr_mbep2d_bold_2mm_MB8_Task_8x",
      "RepetitionTime": 785.0,
      "Rows": 936,
      "SAR": 0.18525746223509,
      "SamplesPerPixel": 1,
      "ScanOptions": [
        "PFP",
        "FS"
],
      "ScanningSequence": "EP",
      "SequenceName": "epfid2d1_104",
      "SequenceVariant": [
        "SK",
        "SS"
],
      "SeriesDescription": "cmrr_mbep2d_bold_2mm_MB8_Task_8x",
      "SeriesNumber": 13,
      "SeriesTime": "120107.390000",
      "SliceLocation": -86.990208476482,
      "SliceThickness": 2.0,
      "SmallestImagePixelValue": 0,
      "SoftwareVersions": "syngo MR B19",
      "SpacingBetweenSlices": 2.0000000383818,
      "SpecificCharacterSet": "ISO_IR 100",
      "StudyID": "1",
      "StudyTime": "110212.468000",
      "TransmitCoilName": "Body",
      "VariableFlipAngleFlag": "N",
      "WindowCenterWidthExplanation": "Algo1",
      "dBdt": 0.0},
    "slices": {}
  },
  "time": {
    "samples": {
      "AcquisitionNumber": [1, 2, 3, 4, 5, 6, 7, 8, 9, 10, 11, 12, 13, 14, 15, 16, 17, 18, 19, 20, 21, 22, 23, 24, 25, 26, 27, 28, 29, 30, 31, 32, 33, 34, 35, 36, 37, 38, 39, 40, 41, 42, 43, 44, 45, 46, 47, 48, 49, 50, 51, 52, 53, 54, 55, 56, 57, 58, 59, 60, 61, 62, 63, 64, 65, 66, 67, 68, 69, 70, 71, 72, 73, 74, 75, 76, 77, 78, 79, 80, 81, 82, 83, 84, 85, 86, 87, 88, 89, 90, 91, 92, 93, 94, 95, 96, 97, 98, 99, 100, 101, 102, 103, 104, 105, 106, 107, 108, 109, 110, 111, 112, 113, 114, 115, 116, 117, 118, 119, 120, 121, 122, 123, 124, 125, 126, 127, 128, 129, 130, 131, 132, 133, 134, 135, 136, 137, 138, 139, 140, 141, 142, 143, 144, 145, 146, 147, 148, 149, 150, 151, 152, 153, 154, 155, 156, 157, 158, 159, 160, 161, 162, 163, 164, 165, 166, 167, 168, 169, 170, 171, 172, 173, 174, 175, 176, 177, 178, 179, 180, 181, 182, 183, 184, 185, 186, 187, 188, 189, 190, 191, 192, 193, 194, 195, 196, 197, 198, 199, 200, 201, 202, 203, 204, 205, 206, 207, 208, 209, 210, 211, 212, 213, 214, 215, 216, 217, 218, 219, 220, 221, 222, 223, 224, 225, 226, 227, 228, 229, 230, 231, 232, 233, 234, 235, 236, 237, 238, 239, 240, 241, 242, 243, 244, 245, 246, 247, 248, 249, 250, 251, 252, 253, 254, 255, 256, 257, 258, 259, 260, 261, 262, 263, 264, 265, 266, 267, 268, 269, 270, 271, 272, 273, 274, 275, 276, 277, 278, 279, 280, 281, 282, 283, 284, 285, 286, 287, 288, 289, 290, 291, 292, 293, 294, 295, 296, 297, 298, 299, 300, 301, 302, 303, 304, 305, 306, 307, 308, 309, 310, 311, 312, 313, 314, 315, 316, 317, 318, 319, 320, 321, 322, 323, 324, 325, 326, 327, 328, 329, 330, 331, 332, 333, 334, 335, 336, 337, 338, 339, 340, 341, 342, 343, 344, 345, 346, 347, 348, 349, 350, 351, 352, 353, 354, 355, 356, 357, 358, 359, 360, 361, 362, 363, 364, 365, 366, 367, 368, 369, 370, 371, 372, 373, 374, 375, 376, 377, 378, 379, 380, 381, 382, 383, 384, 385, 386, 387, 388, 389, 390, 391, 392, 393, 394, 395, 396, 397, 398, 399, 400, 401, 402, 403, 404, 405, 406, 407, 408, 409, 410, 411, 412, 413, 414, 415, 416, 417, 418, 419, 420, 421, 422, 423, 424, 425, 426, 427, 428, 429, 430, 431, 432, 433, 434, 435, 436, 437, 438, 439, 440, 441, 442, 443, 444, 445, 446, 447, 448, 449, 450, 451, 452, 453, 454, 455, 456, 457, 458, 459, 460, 461, 462, 463, 464, 465, 466, 467, 468, 469, 470, 471, 472, 473, 474, 475, 476, 477, 478, 479, 480, 481, 482, 483, 484, 485, 486, 487, 488, 489, 490, 491, 492, 493, 494, 495, 496, 497, 498, 499, 500, 501, 502, 503, 504, 505, 506, 507, 508, 509, 510, 511, 512, 513, 514, 515, 516, 517, 518, 519, 520, 521, 522, 523, 524, 525, 526, 527, 528, 529, 530, 531, 532, 533, 534, 535, 536, 537, 538, 539, 540, 541, 542, 543, 544, 545, 546, 547, 548, 549, 550, 551, 552, 553, 554, 555, 556, 557, 558, 559, 560, 561, 562, 563, 564, 565, 566, 567, 568, 569, 570, 571, 572, 573, 574, 575, 576, 577, 578, 579, 580, 581],
      "AcquisitionTime": ["120048.385000", "120049.172500", "120049.962500", "120050.750000", "120051.537500", "120052.325000", "120053.115000", "120053.902500", "120054.690000", "120055.477500", "120056.267500", "120057.055000", "120057.842500", "120058.630000", "120059.420000", "120100.207500", "120100.995000", "120101.785000", "120102.572500", "120103.360000", "120104.147500", "120104.937500", "120105.725000", "120106.512500", "120107.300000", "120108.090000", "120108.877500", "120109.665000", "120110.452500", "120111.242500", "120112.030000", "120112.817500", "120113.605000", "120114.395000", "120115.182500", "120115.970000", "120116.757500", "120117.547500", "120118.335000", "120119.122500", "120119.912500", "120120.700000", "120121.487500", "120122.275000", "120123.065000", "120123.852500", "120124.640000", "120125.427500", "120126.217500", "120127.005000", "120127.792500", "120128.580000", "120129.370000", "120130.157500", "120130.945000", "120131.732500", "120132.522500", "120133.310000", "120134.097500", "120134.885000", "120135.675000", "120136.462500", "120137.250000", "120138.040000", "120138.827500", "120139.615000", "120140.402500", "120141.192500", "120141.980000", "120142.767500", "120143.555000", "120144.345000", "120145.132500", "120145.920000", "120146.707500", "120147.497500", "120148.285000", "120149.072500", "120149.860000", "120150.650000", "120151.437500", "120152.225000", "120153.012500", "120153.802500", "120154.590000", "120155.377500", "120156.167500", "120156.955000", "120157.742500", "120158.530000", "120159.320000", "120200.107500", "120200.895000", "120201.682500", "120202.472500", "120203.260000", "120204.047500", "120204.835000", "120205.625000", "120206.412500", "120207.200000", "120207.987500", "120208.777500", "120209.565000", "120210.352500", "120211.140000", "120211.930000", "120212.717500", "120213.505000", "120214.295000", "120215.082500", "120215.870000", "120216.657500", "120217.447500", "120218.235000", "120219.022500", "120219.810000", "120220.600000", "120221.387500", "120222.175000", "120222.962500", "120223.752500", "120224.540000", "120225.327500", "120226.115000", "120226.905000", "120227.692500", "120228.480000", "120229.267500", "120230.057500", "120230.845000", "120231.632500", "120232.422500", "120233.210000", "120233.997500", "120234.785000", "120235.575000", "120236.362500", "120237.150000", "120237.937500", "120238.727500", "120239.515000", "120240.302500", "120241.090000", "120241.880000", "120242.667500", "120243.455000", "120244.242500", "120245.032500", "120245.820000", "120246.607500", "120247.395000", "120248.185000", "120248.972500", "120249.760000", "120250.550000", "120251.337500", "120252.125000", "120252.912500", "120253.702500", "120254.490000", "120255.277500", "120256.065000", "120256.855000", "120257.642500", "120258.430000", "120259.217500", "120300.007500", "120300.795000", "120301.582500", "120302.370000", "120303.160000", "120303.947500", "120304.735000", "120305.525000", "120306.312500", "120307.100000", "120307.887500", "120308.677500", "120309.465000", "120310.252500", "120311.040000", "120311.830000", "120312.617500", "120313.405000", "120314.192500", "120314.982500", "120315.770000", "120316.557500", "120317.345000", "120318.135000", "120318.922500", "120319.710000", "120320.497500", "120321.287500", "120322.075000", "120322.862500", "120323.652500", "120324.440000", "120325.227500", "120326.015000", "120326.805000", "120327.592500", "120328.380000", "120329.167500", "120329.957500", "120330.745000", "120331.532500", "120332.320000", "120333.110000", "120333.897500", "120334.685000", "120335.472500", "120336.262500", "120337.050000", "120337.837500", "120338.625000", "120339.415000", "120340.202500", "120340.990000", "120341.780000", "120342.567500", "120343.355000", "120344.142500", "120344.932500", "120345.720000", "120346.507500", "120347.295000", "120348.085000", "120348.872500", "120349.660000", "120350.447500", "120351.237500", "120352.025000", "120352.812500", "120353.600000", "120354.390000", "120355.177500", "120355.965000", "120356.752500", "120357.542500", "120358.330000", "120359.117500", "120359.907500", "120400.695000", "120401.482500", "120402.270000", "120403.060000", "120403.847500", "120404.635000", "120405.422500", "120406.212500", "120407.000000", "120407.787500", "120408.575000", "120409.365000", "120410.152500", "120410.940000", "120411.727500", "120412.517500", "120413.305000", "120414.092500", "120414.880000", "120415.670000", "120416.457500", "120417.245000", "120418.035000", "120418.822500", "120419.610000", "120420.397500", "120421.187500", "120421.975000", "120422.762500", "120423.550000", "120424.340000", "120425.127500", "120425.915000", "120426.702500", "120427.492500", "120428.280000", "120429.067500", "120429.855000", "120430.645000", "120431.432500", "120432.220000", "120433.007500", "120433.797500", "120434.585000", "120435.372500", "120436.162500", "120436.950000", "120437.737500", "120438.525000", "120439.315000", "120440.102500", "120440.890000", "120441.677500", "120442.467500", "120443.255000", "120444.042500", "120444.830000", "120445.620000", "120446.407500", "120447.195000", "120447.982500", "120448.772500", "120449.560000", "120450.347500", "120451.135000", "120451.925000", "120452.712500", "120453.500000", "120454.290000", "120455.077500", "120455.865000", "120456.652500", "120457.442500", "120458.230000", "120459.017500", "120459.805000", "120500.595000", "120501.382500", "120502.170000", "120502.957500", "120503.747500", "120504.535000", "120505.322500", "120506.110000", "120506.900000", "120507.687500", "120508.475000", "120509.262500", "120510.052500", "120510.840000", "120511.627500", "120512.417500", "120513.205000", "120513.992500", "120514.780000", "120515.570000", "120516.357500", "120517.145000", "120517.932500", "120518.722500", "120519.510000", "120520.297500", "120521.085000", "120521.875000", "120522.662500", "120523.450000", "120524.237500", "120525.027500", "120525.815000", "120526.602500", "120527.390000", "120528.180000", "120528.967500", "120529.755000", "120530.545000", "120531.332500", "120532.120000", "120532.907500", "120533.697500", "120534.485000", "120535.272500", "120536.060000", "120536.850000", "120537.637500", "120538.425000", "120539.212500", "120540.002500", "120540.790000", "120541.577500", "120542.365000", "120543.155000", "120543.942500", "120544.730000", "120545.517500", "120546.307500", "120547.095000", "120547.882500", "120548.672500", "120549.460000", "120550.247500", "120551.035000", "120551.825000", "120552.612500", "120553.400000", "120554.187500", "120554.977500", "120555.765000", "120556.552500", "120557.340000", "120558.130000", "120558.917500", "120559.705000", "120600.492500", "120601.282500", "120602.070000", "120602.857500", "120603.645000", "120604.435000", "120605.222500", "120606.010000", "120606.800000", "120607.587500", "120608.375000", "120609.162500", "120609.952500", "120610.740000", "120611.527500", "120612.315000", "120613.105000", "120613.892500", "120614.680000", "120615.467500", "120616.257500", "120617.045000", "120617.832500", "120618.620000", "120619.410000", "120620.197500", "120620.985000", "120621.775000", "120622.562500", "120623.350000", "120624.137500", "120624.927500", "120625.715000", "120626.502500", "120627.290000", "120628.080000", "120628.867500", "120629.655000", "120630.442500", "120631.232500", "120632.020000", "120632.807500", "120633.595000", "120634.385000", "120635.172500", "120635.960000", "120636.747500", "120637.537500", "120638.325000", "120639.112500", "120639.902500", "120640.690000", "120641.477500", "120642.265000", "120643.055000", "120643.842500", "120644.630000", "120645.417500", "120646.207500", "120646.995000", "120647.782500", "120648.570000", "120649.360000", "120650.147500", "120650.935000", "120651.722500", "120652.512500", "120653.300000", "120654.087500", "120654.875000", "120655.665000", "120656.452500", "120657.240000", "120658.030000", "120658.817500", "120659.605000", "120700.392500", "120701.182500", "120701.970000", "120702.757500", "120703.545000", "120704.335000", "120705.122500", "120705.910000", "120706.697500", "120707.487500", "120708.275000", "120709.062500", "120709.850000", "120710.640000", "120711.427500", "120712.215000", "120713.002500", "120713.792500", "120714.580000", "120715.367500", "120716.157500", "120716.945000", "120717.732500", "120718.520000", "120719.310000", "120720.097500", "120720.885000", "120721.672500", "120722.462500", "120723.250000", "120724.037500", "120724.825000", "120725.615000", "120726.402500", "120727.190000", "120727.977500", "120728.767500", "120729.555000", "120730.342500", "120731.130000", "120731.920000", "120732.707500", "120733.495000", "120734.285000", "120735.072500", "120735.860000", "120736.647500", "120737.437500", "120738.225000", "120739.012500", "120739.800000", "120740.590000", "120741.377500", "120742.165000", "120742.952500", "120743.742500", "120744.530000", "120745.317500", "120746.105000", "120746.895000", "120747.682500", "120748.470000", "120749.257500", "120750.047500", "120750.835000", "120751.622500", "120752.412500", "120753.200000", "120753.987500", "120754.775000", "120755.565000", "120756.352500", "120757.140000", "120757.927500", "120758.717500", "120759.505000", "120800.292500", "120801.080000", "120801.870000", "120802.657500", "120803.445000", "120804.232500", "120805.022500", "120805.810000", "120806.597500", "120807.385000", "120808.175000", "120808.962500", "120809.750000", "120810.540000", "120811.327500", "120812.115000", "120812.902500", "120813.692500", "120814.480000", "120815.267500", "120816.055000", "120816.845000", "120817.632500", "120818.420000", "120819.207500", "120819.997500", "120820.785000", "120821.572500", "120822.360000", "120823.150000", "120823.937500", "120824.725000", "120825.512500"],
      "ContentTime": ["120107.390000", "120107.390000", "120107.390000", "120107.406000", "120107.406000", "120107.406000", "120107.406000", "120107.406000", "120107.406000", "120107.406000", "120107.421000", "120107.421000", "120107.421000", "120107.421000", "120107.421000", "120107.421000", "120107.421000", "120107.437000", "120107.437000", "120107.437000", "120107.437000", "120107.437000", "120107.437000", "120127.359000", "120127.359000", "120127.359000", "120127.375000", "120127.375000", "120127.375000", "120127.375000", "120127.375000", "120127.375000", "120127.375000", "120127.375000", "120127.390000", "120127.390000", "120127.390000", "120127.390000", "120127.390000", "120127.390000", "120127.390000", "120127.390000", "120127.406000", "120127.406000", "120127.406000", "120127.406000", "120127.406000", "120127.406000", "120147.359000", "120147.359000", "120147.359000", "120147.359000", "120147.375000", "120147.375000", "120147.375000", "120147.375000", "120147.375000", "120147.375000", "120147.375000", "120147.390000", "120147.390000", "120147.390000", "120147.390000", "120147.390000", "120147.390000", "120147.390000", "120147.390000", "120147.406000", "120147.406000", "120147.406000", "120147.406000", "120147.406000", "120147.406000", "120147.421000", "120207.359000", "120207.359000", "120207.359000", "120207.359000", "120207.375000", "120207.375000", "120207.375000", "120207.375000", "120207.375000", "120207.375000", "120207.375000", "120207.390000", "120207.390000", "120207.390000", "120207.390000", "120207.390000", "120207.390000", "120207.390000", "120207.390000", "120207.406000", "120207.406000", "120207.406000", "120207.406000", "120207.406000", "120207.406000", "120227.359000", "120227.359000", "120227.359000", "120227.375000", "120227.375000", "120227.375000", "120227.375000", "120227.375000", "120227.375000", "120227.375000", "120227.390000", "120227.390000", "120227.390000", "120227.390000", "120227.390000", "120227.390000", "120227.390000", "120227.406000", "120227.406000", "120227.406000", "120227.406000", "120227.421000", "120227.421000", "120227.421000", "120227.421000", "120227.421000", "120247.359000", "120247.359000", "120247.359000", "120247.359000", "120247.375000", "120247.375000", "120247.375000", "120247.375000", "120247.375000", "120247.375000", "120247.375000", "120247.390000", "120247.390000", "120247.390000", "120247.390000", "120247.390000", "120247.390000", "120247.390000", "120247.406000", "120247.406000", "120247.406000", "120247.406000", "120247.406000", "120247.421000", "120247.421000", "120307.359000", "120307.359000", "120307.359000", "120307.359000", "120307.375000", "120307.375000", "120307.375000", "120307.375000", "120307.375000", "120307.375000", "120307.375000", "120307.390000", "120307.390000", "120307.390000", "120307.390000", "120307.390000", "120307.390000", "120307.390000", "120307.390000", "120307.406000", "120307.406000", "120307.406000", "120307.406000", "120307.406000", "120307.421000", "120307.421000", "120327.359000", "120327.359000", "120327.359000", "120327.359000", "120327.375000", "120327.375000", "120327.375000", "120327.375000", "120327.375000", "120327.375000", "120327.375000", "120327.390000", "120327.390000", "120327.390000", "120327.390000", "120327.390000", "120327.390000", "120327.390000", "120327.406000", "120327.406000", "120327.406000", "120327.406000", "120327.406000", "120327.406000", "120327.406000", "120347.359000", "120347.359000", "120347.359000", "120347.375000", "120347.375000", "120347.375000", "120347.375000", "120347.375000", "120347.375000", "120347.375000", "120347.375000", "120347.390000", "120347.390000", "120347.390000", "120347.390000", "120347.390000", "120347.390000", "120347.390000", "120347.390000", "120347.406000", "120347.406000", "120347.406000", "120347.406000", "120347.406000", "120347.421000", "120347.421000", "120407.359000", "120407.359000", "120407.359000", "120407.359000", "120407.375000", "120407.375000", "120407.375000", "120407.375000", "120407.375000", "120407.375000", "120407.375000", "120407.390000", "120407.390000", "120407.390000", "120407.390000", "120407.390000", "120407.406000", "120407.406000", "120407.406000", "120407.406000", "120407.406000", "120407.406000", "120407.406000", "120407.406000", "120407.421000", "120427.359000", "120427.359000", "120427.359000", "120427.359000", "120427.375000", "120427.375000", "120427.375000", "120427.375000", "120427.375000", "120427.375000", "120427.375000", "120427.390000", "120427.390000", "120427.390000", "120427.390000", "120427.390000", "120427.390000", "120427.390000", "120427.390000", "120427.406000", "120427.406000", "120427.406000", "120427.406000", "120427.406000", "120427.406000", "120427.406000", "120447.359000", "120447.359000", "120447.359000", "120447.359000", "120447.375000", "120447.375000", "120447.375000", "120447.375000", "120447.375000", "120447.375000", "120447.375000", "120447.390000", "120447.390000", "120447.390000", "120447.390000", "120447.390000", "120447.390000", "120447.390000", "120447.406000", "120447.406000", "120447.406000", "120447.406000", "120447.406000", "120447.406000", "120447.421000", "120507.359000", "120507.359000", "120507.359000", "120507.359000", "120507.375000", "120507.375000", "120507.375000", "120507.375000", "120507.375000", "120507.375000", "120507.375000", "120507.390000", "120507.390000", "120507.390000", "120507.390000", "120507.390000", "120507.390000", "120507.390000", "120507.406000", "120507.406000", "120507.406000", "120507.406000", "120507.406000", "120507.406000", "120507.406000", "120507.421000", "120527.359000", "120527.359000", "120527.359000", "120527.375000", "120527.375000", "120527.375000", "120527.375000", "120527.375000", "120527.375000", "120527.375000", "120527.375000", "120527.390000", "120527.390000", "120527.390000", "120527.390000", "120527.406000", "120527.406000", "120527.406000", "120527.406000", "120527.406000", "120527.421000", "120527.421000", "120527.421000", "120527.421000", "120527.421000", "120547.359000", "120547.359000", "120547.359000", "120547.375000", "120547.375000", "120547.375000", "120547.375000", "120547.375000", "120547.375000", "120547.375000", "120547.375000", "120547.390000", "120547.390000", "120547.390000", "120547.390000", "120547.390000", "120547.390000", "120547.390000", "120547.390000", "120547.406000", "120547.406000", "120547.406000", "120547.406000", "120547.406000", "120547.406000", "120547.406000", "120607.359000", "120607.359000", "120607.359000", "120607.359000", "120607.375000", "120607.375000", "120607.375000", "120607.375000", "120607.375000", "120607.375000", "120607.375000", "120607.390000", "120607.390000", "120607.390000", "120607.390000", "120607.390000", "120607.390000", "120607.390000", "120607.406000", "120607.406000", "120607.406000", "120607.406000", "120607.406000", "120607.406000", "120607.406000", "120627.359000", "120627.359000", "120627.359000", "120627.375000", "120627.375000", "120627.375000", "120627.375000", "120627.375000", "120627.375000", "120627.375000", "120627.375000", "120627.390000", "120627.390000", "120627.390000", "120627.390000", "120627.390000", "120627.390000", "120627.406000", "120627.406000", "120627.406000", "120627.406000", "120627.406000", "120627.406000", "120627.421000", "120627.421000", "120627.421000", "120647.359000", "120647.359000", "120647.359000", "120647.359000", "120647.375000", "120647.375000", "120647.375000", "120647.375000", "120647.375000", "120647.375000", "120647.375000", "120647.390000", "120647.390000", "120647.390000", "120647.390000", "120647.390000", "120647.390000", "120647.390000", "120647.390000", "120647.406000", "120647.406000", "120647.406000", "120647.406000", "120647.406000", "120647.406000", "120707.359000", "120707.359000", "120707.359000", "120707.359000", "120707.375000", "120707.375000", "120707.375000", "120707.390000", "120707.390000", "120707.390000", "120707.390000", "120707.390000", "120707.390000", "120707.390000", "120707.406000", "120707.406000", "120707.406000", "120707.406000", "120707.406000", "120707.406000", "120707.406000", "120707.406000", "120707.421000", "120707.421000", "120707.421000", "120707.421000", "120727.359000", "120727.359000", "120727.359000", "120727.375000", "120727.375000", "120727.375000", "120727.375000", "120727.375000", "120727.375000", "120727.375000", "120727.375000", "120727.390000", "120727.390000", "120727.390000", "120727.390000", "120727.390000", "120727.390000", "120727.390000", "120727.406000", "120727.406000", "120727.406000", "120727.406000", "120727.406000", "120727.406000", "120727.421000", "120747.359000", "120747.359000", "120747.359000", "120747.359000", "120747.375000", "120747.375000", "120747.375000", "120747.375000", "120747.390000", "120747.390000", "120747.390000", "120747.406000", "120747.406000", "120747.406000", "120747.406000", "120747.406000", "120747.406000", "120747.406000", "120747.421000", "120747.421000", "120747.421000", "120747.421000", "120747.421000", "120747.421000", "120747.421000", "120807.359000", "120807.359000", "120807.359000", "120807.375000", "120807.375000", "120807.375000", "120807.375000", "120807.375000", "120807.375000", "120807.375000", "120807.375000", "120807.390000", "120807.390000", "120807.390000", "120807.390000", "120807.390000", "120807.390000", "120807.406000", "120807.406000", "120807.406000", "120807.406000", "120807.406000", "120807.406000", "120807.406000", "120807.421000", "120807.421000", "120825.156000", "120825.156000", "120825.156000", "120825.156000", "120825.171000", "120825.187000", "120825.187000", "120825.187000", "120825.187000", "120825.187000", "120825.187000", "120825.203000", "120825.203000", "120825.203000", "120825.203000", "120825.203000", "120825.203000", "120825.203000", "120825.203000", "120825.218000", "120825.218000", "120825.218000", "120825.218000"],
