{
  "AcquisitionMatrixPE": 104,
  "AcquisitionNumber": 1,
  "AcquisitionTime": "12:41:49.732500",
  "BandwidthPerPixelPhaseEncode": 13.935,
  "BaseResolution": 104,
  "CoilString": "C:HEA;HEP",
  "ConversionSoftware": "dcm2niix",
  "ConversionSoftwareVersion": "v1.0.20210317",
  "DerivedVendorReportedEchoSpacing": 0.000690017,
  "DeviceSerialNumber": "35450",
  "DwellTime": 2.5e-06,
  "EchoTime": 0.0348,
  "EffectiveEchoSpacing": 0.000690017,
  "FlipAngle": 55,
  "ImageComments": "Unaliased MB8/PE3 (remote)",
  "ImageOrientationPatientDICOM": [0.999997, 0.000565318, -0.00257127, -1.44147e-09, 0.976673, 0.21473],
  "ImageType": [
    "ORIGINAL",
    "PRIMARY",
    "M",
    "MB",
    "ND",
    "MOSAIC"
],
  "ImagingFrequency": 123.234,
  "InPlanePhaseEncodingDirectionDICOM": "COL",
  "InstitutionAddress": "Univeristy Ave. 197,Newark,North East,US,07102-1814",
  "InstitutionName": "RUBIC",
  "InstitutionalDepartmentName": "Department",
  "MRAcquisitionType": "2D",
  "MagneticFieldStrength": 3,
  "Manufacturer": "Siemens",
  "ManufacturersModelName": "TrioTim",
  "Modality": "MR",
  "MultibandAccelerationFactor": 8,
  "PartialFourier": 0.875,
  "PatientPosition": "HFS",
  "PercentPhaseFOV": 100,
  "PercentSampling": 100,
  "PhaseEncodingDirection": "j-",
  "PhaseEncodingSteps": 91,
  "PhaseResolution": 1,
  "PixelBandwidth": 1923,
  "ProcedureStepDescription": "Cole^Michael",
  "ProtocolName": "cmrr_mbep2d_bold_2mm_MB8_Task_8x",
  "PulseSequenceDetails": "%CustomerSeq%\\cmrr_mbep2d_bold",
  "ReceiveCoilName": "32Ch_Head",
  "ReconMatrixPE": 104,
  "RepetitionTime": 0.785,
  "SAR": 0.160164,
  "ScanOptions": "PFP\\FS",
  "ScanningSequence": "EP",
  "SequenceName": "epfid2d1_104",
  "SequenceVariant": "SK\\SS",
  "SeriesDescription": "cmrr_mbep2d_bold_2mm_MB8_Task_8x",
  "SeriesNumber": 23,
  "ShimSetting": [2102, -516, -7343, 698, -261, -615, -75, 67],
  "SliceThickness": 2,
  "SliceTiming": [0, 0.4375, 0.0875, 0.525, 0.175, 0.6125, 0.2625, 0.7, 0.35, 0, 0.4375, 0.0875, 0.525, 0.175, 0.6125, 0.2625, 0.7, 0.35, 0, 0.4375, 0.0875, 0.525, 0.175, 0.6125, 0.2625, 0.7, 0.35, 0, 0.4375, 0.0875, 0.525, 0.175, 0.6125, 0.2625, 0.7, 0.35, 0, 0.4375, 0.0875, 0.525, 0.175, 0.6125, 0.2625, 0.7, 0.35, 0, 0.4375, 0.0875, 0.525, 0.175, 0.6125, 0.2625, 0.7, 0.35, 0, 0.4375, 0.0875, 0.525, 0.175, 0.6125, 0.2625, 0.7, 0.35, 0, 0.4375, 0.0875, 0.525, 0.175, 0.6125, 0.2625, 0.7, 0.35],
  "SoftwareVersions": "syngo MR B19",
  "SpacingBetweenSlices": 2,
  "StationName": "MRC35450",
  "TaskName": "cpro",
  "TotalReadoutTime": 0.0710717,
  "TxRefAmp": 321.351,
  "dcmmeta_affine": [
    [-1.999993085861206, -2.882948102467253e-09, -0.005265367217361927, 98.77291870117188],
    [-0.001130635035224259, 1.953346848487854, 0.42945849895477295, -86.51608276367188],
    [-0.005142543464899063, -0.42945995926856995, 1.9533401727676392, -69.7806167602539],
    [0.0, 0.0, 0.0, 1.0]
],
  "dcmmeta_reorient_transform": [
    [0.0, -1.0, 0.0, 103.0],
    [1.0, 0.0, 0.0, 0.0],
    [0.0, 0.0, 1.0, 0.0],
    [0.0, 0.0, 0.0, 1.0]
],
  "dcmmeta_shape": [104, 104, 72, 581],
  "dcmmeta_slice_dim": 2,
  "dcmmeta_version": 0.6,
  "global": {
    "const": {
      "AcquisitionMatrix": [104, 0, 0, 104],
      "AngioFlag": "N",
      "BitsAllocated": 16,
      "BitsStored": 12,
      "Columns": 936,
      "EchoNumbers": 1,
      "EchoTime": 34.8,
      "EchoTrainLength": 1,
      "FlipAngle": 55.0,
      "HighBit": 11,
      "ImageOrientationPatient": [0.99999653448279, 0.00056531750045, -0.0025712717758, -1.441474e-09, 0.97667345256025, 0.21472998641095],
      "ImagePositionPatient": [-930.77003125571, -927.74130329097, -290.53104212796],
      "ImageType": [
        "ORIGINAL",
        "PRIMARY",
        "M",
        "MB",
        "ND",
        "MOSAIC"
],
      "ImagedNucleus": "1H",
      "ImagingFrequency": 123.234388,
      "InPlanePhaseEncodingDirection": "COL",
      "MRAcquisitionType": "2D",
      "MagneticFieldStrength": 3.0,
      "Manufacturer": "SIEMENS",
      "ManufacturerModelName": "TrioTim",
      "Modality": "MR",
      "NumberOfAverages": 1.0,
      "NumberOfPhaseEncodingSteps": 91,
      "PercentPhaseFieldOfView": 100.0,
      "PercentSampling": 100.0,
      "PerformedProcedureStepStartTime": "110212.593000",
      "PhotometricInterpretation": "MONOCHROME2",
      "PixelBandwidth": 1923.0,
      "PixelRepresentation": 0,
      "PixelSpacing": [2.0, 2.0],
      "ProtocolName": "cmrr_mbep2d_bold_2mm_MB8_Task_8x",
      "RepetitionTime": 785.0,
      "Rows": 936,
      "SAR": 0.16016437333175,
      "SamplesPerPixel": 1,
      "ScanOptions": [
        "PFP",
        "FS"
],
      "ScanningSequence": "EP",
      "SequenceName": "epfid2d1_104",
      "SequenceVariant": [
        "SK",
        "SS"
],
      "SeriesDescription": "cmrr_mbep2d_bold_2mm_MB8_Task_8x",
      "SeriesNumber": 23,
      "SeriesTime": "124227.421000",
      "SliceLocation": -86.990208476482,
      "SliceThickness": 2.0,
      "SmallestImagePixelValue": 0,
      "SoftwareVersions": "syngo MR B19",
      "SpacingBetweenSlices": 2.0000000383818,
      "SpecificCharacterSet": "ISO_IR 100",
      "StudyID": "1",
      "StudyTime": "110212.468000",
      "TransmitCoilName": "Body",
      "VariableFlipAngleFlag": "N",
      "WindowCenterWidthExplanation": "Algo1",
      "dBdt": 0.0},
    "slices": {}
  },
  "time": {
    "samples": {
      "AcquisitionNumber": [1, 2, 3, 4, 5, 6, 7, 8, 9, 10, 11, 12, 13, 14, 15, 16, 17, 18, 19, 20, 21, 22, 23, 24, 25, 26, 27, 28, 29, 30, 31, 32, 33, 34, 35, 36, 37, 38, 39, 40, 41, 42, 43, 44, 45, 46, 47, 48, 49, 50, 51, 52, 53, 54, 55, 56, 57, 58, 59, 60, 61, 62, 63, 64, 65, 66, 67, 68, 69, 70, 71, 72, 73, 74, 75, 76, 77, 78, 79, 80, 81, 82, 83, 84, 85, 86, 87, 88, 89, 90, 91, 92, 93, 94, 95, 96, 97, 98, 99, 100, 101, 102, 103, 104, 105, 106, 107, 108, 109, 110, 111, 112, 113, 114, 115, 116, 117, 118, 119, 120, 121, 122, 123, 124, 125, 126, 127, 128, 129, 130, 131, 132, 133, 134, 135, 136, 137, 138, 139, 140, 141, 142, 143, 144, 145, 146, 147, 148, 149, 150, 151, 152, 153, 154, 155, 156, 157, 158, 159, 160, 161, 162, 163, 164, 165, 166, 167, 168, 169, 170, 171, 172, 173, 174, 175, 176, 177, 178, 179, 180, 181, 182, 183, 184, 185, 186, 187, 188, 189, 190, 191, 192, 193, 194, 195, 196, 197, 198, 199, 200, 201, 202, 203, 204, 205, 206, 207, 208, 209, 210, 211, 212, 213, 214, 215, 216, 217, 218, 219, 220, 221, 222, 223, 224, 225, 226, 227, 228, 229, 230, 231, 232, 233, 234, 235, 236, 237, 238, 239, 240, 241, 242, 243, 244, 245, 246, 247, 248, 249, 250, 251, 252, 253, 254, 255, 256, 257, 258, 259, 260, 261, 262, 263, 264, 265, 266, 267, 268, 269, 270, 271, 272, 273, 274, 275, 276, 277, 278, 279, 280, 281, 282, 283, 284, 285, 286, 287, 288, 289, 290, 291, 292, 293, 294, 295, 296, 297, 298, 299, 300, 301, 302, 303, 304, 305, 306, 307, 308, 309, 310, 311, 312, 313, 314, 315, 316, 317, 318, 319, 320, 321, 322, 323, 324, 325, 326, 327, 328, 329, 330, 331, 332, 333, 334, 335, 336, 337, 338, 339, 340, 341, 342, 343, 344, 345, 346, 347, 348, 349, 350, 351, 352, 353, 354, 355, 356, 357, 358, 359, 360, 361, 362, 363, 364, 365, 366, 367, 368, 369, 370, 371, 372, 373, 374, 375, 376, 377, 378, 379, 380, 381, 382, 383, 384, 385, 386, 387, 388, 389, 390, 391, 392, 393, 394, 395, 396, 397, 398, 399, 400, 401, 402, 403, 404, 405, 406, 407, 408, 409, 410, 411, 412, 413, 414, 415, 416, 417, 418, 419, 420, 421, 422, 423, 424, 425, 426, 427, 428, 429, 430, 431, 432, 433, 434, 435, 436, 437, 438, 439, 440, 441, 442, 443, 444, 445, 446, 447, 448, 449, 450, 451, 452, 453, 454, 455, 456, 457, 458, 459, 460, 461, 462, 463, 464, 465, 466, 467, 468, 469, 470, 471, 472, 473, 474, 475, 476, 477, 478, 479, 480, 481, 482, 483, 484, 485, 486, 487, 488, 489, 490, 491, 492, 493, 494, 495, 496, 497, 498, 499, 500, 501, 502, 503, 504, 505, 506, 507, 508, 509, 510, 511, 512, 513, 514, 515, 516, 517, 518, 519, 520, 521, 522, 523, 524, 525, 526, 527, 528, 529, 530, 531, 532, 533, 534, 535, 536, 537, 538, 539, 540, 541, 542, 543, 544, 545, 546, 547, 548, 549, 550, 551, 552, 553, 554, 555, 556, 557, 558, 559, 560, 561, 562, 563, 564, 565, 566, 567, 568, 569, 570, 571, 572, 573, 574, 575, 576, 577, 578, 579, 580, 581],
      "AcquisitionTime": ["124149.732500", "124150.520000", "124151.307500", "124152.097500", "124152.885000", "124153.672500", "124154.460000", "124155.250000", "124156.037500", "124156.825000", "124157.612500", "124158.402500", "124159.190000", "124159.977500", "124200.765000", "124201.555000", "124202.342500", "124203.130000", "124203.920000", "124204.707500", "124205.495000", "124206.282500", "124207.072500", "124207.860000", "124208.647500", "124209.435000", "124210.225000", "124211.012500", "124211.800000", "124212.587500", "124213.377500", "124214.165000", "124214.952500", "124215.740000", "124216.530000", "124217.317500", "124218.105000", "124218.892500", "124219.682500", "124220.470000", "124221.257500", "124222.047500", "124222.835000", "124223.622500", "124224.410000", "124225.200000", "124225.987500", "124226.775000", "124227.562500", "124228.352500", "124229.140000", "124229.927500", "124230.715000", "124231.505000", "124232.292500", "124233.080000", "124233.867500", "124234.657500", "124235.445000", "124236.232500", "124237.020000", "124237.810000", "124238.597500", "124239.385000", "124240.175000", "124240.962500", "124241.750000", "124242.537500", "124243.327500", "124244.115000", "124244.902500", "124245.690000", "124246.480000", "124247.267500", "124248.055000", "124248.842500", "124249.632500", "124250.420000", "124251.207500", "124251.995000", "124252.785000", "124253.572500", "124254.360000", "124255.147500", "124255.937500", "124256.725000", "124257.512500", "124258.302500", "124259.090000", "124259.877500", "124300.665000", "124301.455000", "124302.242500", "124303.030000", "124303.817500", "124304.607500", "124305.395000", "124306.182500", "124306.970000", "124307.760000", "124308.547500", "124309.335000", "124310.122500", "124310.912500", "124311.700000", "124312.487500", "124313.277500", "124314.065000", "124314.852500", "124315.640000", "124316.430000", "124317.217500", "124318.005000", "124318.792500", "124319.582500", "124320.370000", "124321.157500", "124321.945000", "124322.735000", "124323.522500", "124324.310000", "124325.097500", "124325.887500", "124326.675000", "124327.462500", "124328.250000", "124329.040000", "124329.827500", "124330.615000", "124331.405000", "124332.192500", "124332.980000", "124333.767500", "124334.557500", "124335.345000", "124336.132500", "124336.920000", "124337.710000", "124338.497500", "124339.285000", "124340.072500", "124340.862500", "124341.650000", "124342.437500", "124343.225000", "124344.015000", "124344.802500", "124345.590000", "124346.377500", "124347.167500", "124347.955000", "124348.742500", "124349.532500", "124350.320000", "124351.107500", "124351.895000", "124352.685000", "124353.472500", "124354.260000", "124355.047500", "124355.837500", "124356.625000", "124357.412500", "124358.200000", "124358.990000", "124359.777500", "124400.565000", "124401.352500", "124402.142500", "124402.930000", "124403.717500", "124404.505000", "124405.295000", "124406.082500", "124406.870000", "124407.660000", "124408.447500", "124409.235000", "124410.022500", "124410.812500", "124411.600000", "124412.387500", "124413.175000", "124413.965000", "124414.752500", "124415.540000", "124416.327500", "124417.117500", "124417.905000", "124418.692500", "124419.480000", "124420.270000", "124421.057500", "124421.845000", "124422.632500", "124423.422500", "124424.210000", "124424.997500", "124425.787500", "124426.575000", "124427.362500", "124428.150000", "124428.940000", "124429.727500", "124430.515000", "124431.302500", "124432.092500", "124432.880000", "124433.667500", "124434.455000", "124435.245000", "124436.032500", "124436.820000", "124437.607500", "124438.397500", "124439.185000", "124439.972500", "124440.760000", "124441.550000", "124442.337500", "124443.125000", "124443.915000", "124444.702500", "124445.490000", "124446.277500", "124447.067500", "124447.855000", "124448.642500", "124449.430000", "124450.220000", "124451.007500", "124451.795000", "124452.582500", "124453.372500", "124454.160000", "124454.947500", "124455.735000", "124456.525000", "124457.312500", "124458.100000", "124458.887500", "124459.677500", "124500.465000", "124501.252500", "124502.042500", "124502.830000", "124503.617500", "124504.405000", "124505.195000", "124505.982500", "124506.770000", "124507.557500", "124508.347500", "124509.135000", "124509.922500", "124510.710000", "124511.500000", "124512.287500", "124513.075000", "124513.862500", "124514.652500", "124515.440000", "124516.227500", "124517.015000", "124517.805000", "124518.592500", "124519.380000", "124520.170000", "124520.957500", "124521.745000", "124522.532500", "124523.322500", "124524.110000", "124524.897500", "124525.685000", "124526.475000", "124527.262500", "124528.050000", "124528.837500", "124529.627500", "124530.415000", "124531.202500", "124531.990000", "124532.780000", "124533.567500", "124534.355000", "124535.142500", "124535.932500", "124536.720000", "124537.507500", "124538.297500", "124539.085000", "124539.872500", "124540.660000", "124541.450000", "124542.237500", "124543.025000", "124543.812500", "124544.602500", "124545.390000", "124546.177500", "124546.965000", "124547.755000", "124548.542500", "124549.330000", "124550.117500", "124550.907500", "124551.695000", "124552.482500", "124553.270000", "124554.060000", "124554.847500", "124555.635000", "124556.425000", "124557.212500", "124558.000000", "124558.787500", "124559.577500", "124600.365000", "124601.152500", "124601.940000", "124602.730000", "124603.517500", "124604.305000", "124605.092500", "124605.882500", "124606.670000", "124607.457500", "124608.245000", "124609.035000", "124609.822500", "124610.610000", "124611.397500", "124612.187500", "124612.975000", "124613.762500", "124614.552500", "124615.340000", "124616.127500", "124616.915000", "124617.705000", "124618.492500", "124619.280000", "124620.067500", "124620.857500", "124621.645000", "124622.432500", "124623.220000", "124624.010000", "124624.797500", "124625.585000", "124626.372500", "124627.162500", "124627.950000", "124628.737500", "124629.527500", "124630.315000", "124631.102500", "124631.890000", "124632.680000", "124633.467500", "124634.255000", "124635.042500", "124635.832500", "124636.620000", "124637.407500", "124638.195000", "124638.985000", "124639.772500", "124640.560000", "124641.347500", "124642.137500", "124642.925000", "124643.712500", "124644.500000", "124645.290000", "124646.077500", "124646.865000", "124647.655000", "124648.442500", "124649.230000", "124650.017500", "124650.807500", "124651.595000", "124652.382500", "124653.170000", "124653.960000", "124654.747500", "124655.535000", "124656.322500", "124657.112500", "124657.900000", "124658.687500", "124659.475000", "124700.265000", "124701.052500", "124701.840000", "124702.627500", "124703.417500", "124704.205000", "124704.992500", "124705.782500", "124706.570000", "124707.357500", "124708.145000", "124708.935000", "124709.722500", "124710.510000", "124711.297500", "124712.087500", "124712.875000", "124713.662500", "124714.450000", "124715.240000", "124716.027500", "124716.815000", "124717.602500", "124718.392500", "124719.180000", "124719.967500", "124720.755000", "124721.545000", "124722.332500", "124723.120000", "124723.910000", "124724.697500", "124725.485000", "124726.272500", "124727.062500", "124727.850000", "124728.637500", "124729.425000", "124730.215000", "124731.002500", "124731.790000", "124732.577500", "124733.367500", "124734.155000", "124734.942500", "124735.730000", "124736.520000", "124737.307500", "124738.095000", "124738.882500", "124739.672500", "124740.460000", "124741.247500", "124742.037500", "124742.825000", "124743.612500", "124744.400000", "124745.190000", "124745.977500", "124746.765000", "124747.552500", "124748.342500", "124749.130000", "124749.917500", "124750.705000", "124751.495000", "124752.282500", "124753.070000", "124753.857500", "124754.647500", "124755.435000", "124756.222500", "124757.010000", "124757.800000", "124758.587500", "124759.375000", "124800.165000", "124800.952500", "124801.740000", "124802.527500", "124803.317500", "124804.105000", "124804.892500", "124805.680000", "124806.470000", "124807.257500", "124808.045000", "124808.832500", "124809.622500", "124810.410000", "124811.197500", "124811.985000", "124812.775000", "124813.562500", "124814.350000", "124815.137500", "124815.927500", "124816.715000", "124817.502500", "124818.292500", "124819.080000", "124819.867500", "124820.655000", "124821.445000", "124822.232500", "124823.020000", "124823.807500", "124824.597500", "124825.385000", "124826.172500", "124826.960000", "124827.750000", "124828.537500", "124829.325000", "124830.112500", "124830.902500", "124831.690000", "124832.477500", "124833.265000", "124834.055000", "124834.842500", "124835.630000", "124836.420000", "124837.207500", "124837.995000", "124838.782500", "124839.572500", "124840.360000", "124841.147500", "124841.935000", "124842.725000", "124843.512500", "124844.300000", "124845.087500", "124845.877500", "124846.665000", "124847.452500", "124848.240000", "124849.030000", "124849.817500", "124850.605000", "124851.392500", "124852.182500", "124852.970000", "124853.757500", "124854.547500", "124855.335000", "124856.122500", "124856.910000", "124857.700000", "124858.487500", "124859.275000", "124900.062500", "124900.852500", "124901.640000", "124902.427500", "124903.215000", "124904.005000", "124904.792500", "124905.580000", "124906.367500", "124907.157500", "124907.945000", "124908.732500", "124909.520000", "124910.310000", "124911.097500", "124911.885000", "124912.675000", "124913.462500", "124914.250000", "124915.037500", "124915.827500", "124916.615000", "124917.402500", "124918.190000", "124918.980000", "124919.767500", "124920.555000", "124921.342500", "124922.132500", "124922.920000", "124923.707500", "124924.495000", "124925.285000", "124926.072500", "124926.860000"],
      "ContentTime": ["124227.421000", "124227.421000", "124227.421000", "124227.421000", "124227.421000", "124227.421000", "124227.421000", "124227.437000", "124227.437000", "124227.437000", "124227.437000", "124227.437000", "124227.437000", "124227.437000", "124227.453000", "124227.453000", "124227.453000", "124227.453000", "124227.453000", "124227.453000", "124227.468000", "124227.468000", "124227.468000", "124227.468000", "124227.468000", "124227.484000", "124227.484000", "124227.484000", "124227.484000", "124227.484000", "124227.484000", "124227.500000", "124227.500000", "124227.500000", "124227.500000", "124227.500000", "124227.500000", "124227.515000", "124227.515000", "124227.515000", "124227.515000", "124227.515000", "124227.515000", "124227.515000", "124227.531000", "124247.390000", "124247.390000", "124247.390000", "124247.406000", "124247.406000", "124247.406000", "124247.406000", "124247.406000", "124247.406000", "124247.406000", "124247.406000", "124247.421000", "124247.421000", "124247.421000", "124247.421000", "124247.421000", "124247.421000", "124247.421000", "124247.437000", "124247.437000", "124247.437000", "124247.437000", "124247.437000", "124247.437000", "124247.437000", "124307.390000", "124307.390000", "124307.390000", "124307.390000", "124307.406000", "124307.406000", "124307.406000", "124307.406000", "124307.406000", "124307.406000", "124307.406000", "124307.421000", "124307.421000", "124307.421000", "124307.421000", "124307.421000", "124307.421000", "124307.421000", "124307.421000", "124307.437000", "124307.437000", "124307.437000", "124307.437000", "124307.437000", "124307.437000", "124307.437000", "124327.390000", "124327.390000", "124327.390000", "124327.390000", "124327.406000", "124327.406000", "124327.406000", "124327.406000", "124327.406000", "124327.406000", "124327.406000", "124327.421000", "124327.421000", "124327.421000", "124327.421000", "124327.421000", "124327.421000", "124327.421000", "124327.437000", "124327.437000", "124327.437000", "124327.437000", "124327.437000", "124327.437000", "124327.437000", "124347.390000", "124347.390000", "124347.390000", "124347.390000", "124347.406000", "124347.406000", "124347.406000", "124347.406000", "124347.406000", "124347.406000", "124347.406000", "124347.421000", "124347.421000", "124347.421000", "124347.421000", "124347.421000", "124347.421000", "124347.421000", "124347.437000", "124347.437000", "124347.437000", "124347.437000", "124347.437000", "124347.453000", "124347.453000", "124347.453000", "124407.390000", "124407.390000", "124407.390000", "124407.390000", "124407.406000", "124407.406000", "124407.406000", "124407.406000", "124407.406000", "124407.406000", "124407.406000", "124407.421000", "124407.421000", "124407.421000", "124407.421000", "124407.421000", "124407.421000", "124407.421000", "124407.421000", "124407.437000", "124407.437000", "124407.437000", "124407.437000", "124407.437000", "124407.453000", "124427.390000", "124427.390000", "124427.390000", "124427.390000", "124427.406000", "124427.406000", "124427.406000", "124427.406000", "124427.406000", "124427.406000", "124427.406000", "124427.421000", "124427.421000", "124427.421000", "124427.421000", "124427.421000", "124427.421000", "124427.421000", "124427.437000", "124427.437000", "124427.437000", "124427.437000", "124427.437000", "124427.437000", "124427.437000", "124427.437000", "124447.390000", "124447.390000", "124447.390000", "124447.406000", "124447.406000", "124447.406000", "124447.406000", "124447.406000", "124447.406000", "124447.406000", "124447.406000", "124447.421000", "124447.421000", "124447.421000", "124447.421000", "124447.421000", "124447.421000", "124447.421000", "124447.437000", "124447.437000", "124447.437000", "124447.437000", "124447.437000", "124447.437000", "124447.437000", "124507.390000", "124507.390000", "124507.390000", "124507.390000", "124507.406000", "124507.406000", "124507.406000", "124507.406000", "124507.406000", "124507.406000", "124507.406000", "124507.421000", "124507.421000", "124507.421000", "124507.421000", "124507.421000", "124507.421000", "124507.437000", "124507.437000", "124507.437000", "124507.437000", "124507.437000", "124507.437000", "124507.437000", "124507.453000", "124507.453000", "124527.390000", "124527.390000", "124527.390000", "124527.390000", "124527.406000", "124527.406000", "124527.406000", "124527.406000", "124527.406000", "124527.406000", "124527.406000", "124527.421000", "124527.421000", "124527.421000", "124527.421000", "124527.421000", "124527.421000", "124527.421000", "124527.421000", "124527.437000", "124527.437000", "124527.437000", "124527.437000", "124527.437000", "124527.437000", "124547.390000", "124547.390000", "124547.390000", "124547.390000", "124547.406000", "124547.406000", "124547.406000", "124547.406000", "124547.406000", "124547.406000", "124547.406000", "124547.421000", "124547.421000", "124547.421000", "124547.421000", "124547.421000", "124547.421000", "124547.421000", "124547.437000", "124547.437000", "124547.437000", "124547.437000", "124547.437000", "124547.437000", "124547.437000", "124547.437000", "124607.390000", "124607.390000", "124607.390000", "124607.406000", "124607.406000", "124607.406000", "124607.406000", "124607.406000", "124607.406000", "124607.406000", "124607.406000", "124607.421000", "124607.421000", "124607.421000", "124607.421000", "124607.421000", "124607.421000", "124607.421000", "124607.437000", "124607.437000", "124607.437000", "124607.437000", "124607.437000", "124607.437000", "124607.437000", "124627.390000", "124627.390000", "124627.390000", "124627.390000", "124627.406000", "124627.406000", "124627.406000", "124627.406000", "124627.406000", "124627.406000", "124627.406000", "124627.421000", "124627.421000", "124627.421000", "124627.421000", "124627.421000", "124627.421000", "124627.421000", "124627.437000", "124627.437000", "124627.437000", "124627.437000", "124627.437000", "124627.437000", "124627.437000", "124627.437000", "124647.390000", "124647.390000", "124647.390000", "124647.390000", "124647.406000", "124647.406000", "124647.406000", "124647.406000", "124647.406000", "124647.406000", "124647.406000", "124647.421000", "124647.421000", "124647.421000", "124647.421000", "124647.421000", "124647.421000", "124647.421000", "124647.437000", "124647.437000", "124647.437000", "124647.437000", "124647.437000", "124647.437000", "124647.437000", "124707.390000", "124707.390000", "124707.390000", "124707.390000", "124707.406000", "124707.406000", "124707.406000", "124707.406000", "124707.406000", "124707.406000", "124707.406000", "124707.421000", "124707.421000", "124707.421000", "124707.421000", "124707.421000", "124707.421000", "124707.421000", "124707.421000", "124707.437000", "124707.437000", "124707.437000", "124707.437000", "124707.437000", "124707.453000", "124707.453000", "124727.390000", "124727.390000", "124727.390000", "124727.390000", "124727.406000", "124727.406000", "124727.406000", "124727.406000", "124727.406000", "124727.406000", "124727.406000", "124727.421000", "124727.421000", "124727.421000", "124727.421000", "124727.421000", "124727.421000", "124727.421000", "124727.421000", "124727.437000", "124727.437000", "124727.437000", "124727.437000", "124727.437000", "124727.437000", "124747.390000", "124747.390000", "124747.390000", "124747.390000", "124747.406000", "124747.406000", "124747.406000", "124747.406000", "124747.406000", "124747.406000", "124747.406000", "124747.421000", "124747.421000", "124747.421000", "124747.421000", "124747.421000", "124747.437000", "124747.437000", "124747.437000", "124747.437000", "124747.437000", "124747.437000", "124747.437000", "124747.453000", "124747.453000", "124747.453000", "124807.390000", "124807.390000", "124807.390000", "124807.406000", "124807.406000", "124807.406000", "124807.406000", "124807.406000", "124807.406000", "124807.406000", "124807.406000", "124807.421000", "124807.421000", "124807.421000", "124807.421000", "124807.421000", "124807.421000", "124807.421000", "124807.437000", "124807.437000", "124807.437000", "124807.437000", "124807.437000", "124807.453000", "124807.453000", "124827.390000", "124827.390000", "124827.390000", "124827.406000", "124827.406000", "124827.406000", "124827.406000", "124827.406000", "124827.406000", "124827.421000", "124827.421000", "124827.421000", "124827.421000", "124827.421000", "124827.421000", "124827.421000", "124827.421000", "124827.437000", "124827.437000", "124827.437000", "124827.437000", "124827.437000", "124827.437000", "124827.437000", "124827.453000", "124847.390000", "124847.390000", "124847.390000", "124847.406000", "124847.406000", "124847.406000", "124847.406000", "124847.406000", "124847.406000", "124847.406000", "124847.406000", "124847.421000", "124847.421000", "124847.421000", "124847.421000", "124847.421000", "124847.421000", "124847.421000", "124847.437000", "124847.437000", "124847.437000", "124847.437000", "124847.437000", "124847.437000", "124847.453000", "124847.453000", "124907.390000", "124907.390000", "124907.406000", "124907.406000", "124907.406000", "124907.406000", "124907.406000", "124907.421000", "124907.421000", "124907.421000", "124907.421000", "124907.421000", "124907.421000", "124907.437000", "124907.437000", "124907.437000", "124907.437000", "124907.437000", "124907.437000", "124907.437000", "124907.453000", "124907.453000", "124907.453000", "124907.453000", "124907.453000", "124927.390000", "124927.390000", "124927.390000", "124927.406000", "124927.406000", "124927.406000", "124927.406000", "124927.406000", "124927.406000", "124927.406000", "124927.406000", "124927.421000", "124927.421000", "124927.421000", "124927.421000", "124927.421000", "124927.421000", "124927.421000", "124927.437000", "124927.437000", "124927.437000", "124927.437000", "124927.437000", "124927.437000", "124927.437000", "124927.437000", "124927.921000"],
