{
  "AcquisitionMatrixPE": 104,
  "AcquisitionNumber": 1,
  "AcquisitionTime": "12:57:58.682500",
  "BandwidthPerPixelPhaseEncode": 13.935,
  "BaseResolution": 104,
  "CoilString": "C:HEA;HEP",
  "ConversionSoftware": "dcm2niix",
  "ConversionSoftwareVersion": "v1.0.20210317",
  "DerivedVendorReportedEchoSpacing": 0.000690017,
  "DeviceSerialNumber": "35450",
  "DwellTime": 2.5e-06,
  "EchoTime": 0.0348,
  "EffectiveEchoSpacing": 0.000690017,
  "FlipAngle": 55,
  "ImageComments": "Unaliased MB8/PE3 (remote)",
  "ImageOrientationPatientDICOM": [0.999997, 0.000565318, -0.00257127, -1.44147e-09, 0.976673, 0.21473],
  "ImageType": [
    "ORIGINAL",
    "PRIMARY",
    "M",
    "MB",
    "ND",
    "MOSAIC"
],
  "ImagingFrequency": 123.234,
  "InPlanePhaseEncodingDirectionDICOM": "COL",
  "InstitutionAddress": "Univeristy Ave. 197,Newark,North East,US,07102-1814",
  "InstitutionName": "RUBIC",
  "InstitutionalDepartmentName": "Department",
  "MRAcquisitionType": "2D",
  "MagneticFieldStrength": 3,
  "Manufacturer": "Siemens",
  "ManufacturersModelName": "TrioTim",
  "Modality": "MR",
  "MultibandAccelerationFactor": 8,
  "PartialFourier": 0.875,
  "PatientPosition": "HFS",
  "PercentPhaseFOV": 100,
  "PercentSampling": 100,
  "PhaseEncodingDirection": "j-",
  "PhaseEncodingSteps": 91,
  "PhaseResolution": 1,
  "PixelBandwidth": 1923,
  "ProcedureStepDescription": "Cole^Michael",
  "ProtocolName": "cmrr_mbep2d_bold_2mm_MB8_Task_8x",
  "PulseSequenceDetails": "%CustomerSeq%\\cmrr_mbep2d_bold",
  "ReceiveCoilName": "32Ch_Head",
  "ReconMatrixPE": 104,
  "RepetitionTime": 0.785,
  "SAR": 0.160164,
  "ScanOptions": "PFP\\FS",
  "ScanningSequence": "EP",
  "SequenceName": "epfid2d1_104",
  "SequenceVariant": "SK\\SS",
  "SeriesDescription": "cmrr_mbep2d_bold_2mm_MB8_Task_8x",
  "SeriesNumber": 27,
  "ShimSetting": [2102, -516, -7343, 698, -261, -615, -75, 67],
  "SliceThickness": 2,
  "SliceTiming": [0, 0.4375, 0.0875, 0.525, 0.175, 0.6125, 0.2625, 0.7, 0.35, 0, 0.4375, 0.0875, 0.525, 0.175, 0.6125, 0.2625, 0.7, 0.35, 0, 0.4375, 0.0875, 0.525, 0.175, 0.6125, 0.2625, 0.7, 0.35, 0, 0.4375, 0.0875, 0.525, 0.175, 0.6125, 0.2625, 0.7, 0.35, 0, 0.4375, 0.0875, 0.525, 0.175, 0.6125, 0.2625, 0.7, 0.35, 0, 0.4375, 0.0875, 0.525, 0.175, 0.6125, 0.2625, 0.7, 0.35, 0, 0.4375, 0.0875, 0.525, 0.175, 0.6125, 0.2625, 0.7, 0.35, 0, 0.4375, 0.0875, 0.525, 0.175, 0.6125, 0.2625, 0.7, 0.35],
  "SoftwareVersions": "syngo MR B19",
  "SpacingBetweenSlices": 2,
  "StationName": "MRC35450",
  "TaskName": "cpro",
  "TotalReadoutTime": 0.0710717,
  "TxRefAmp": 321.351,
  "dcmmeta_affine": [
    [-1.999993085861206, -2.882948102467253e-09, -0.005265367217361927, 98.77291870117188],
    [-0.001130635035224259, 1.953346848487854, 0.42945849895477295, -86.51608276367188],
    [-0.005142543464899063, -0.42945995926856995, 1.9533401727676392, -69.7806167602539],
    [0.0, 0.0, 0.0, 1.0]
],
  "dcmmeta_reorient_transform": [
    [0.0, -1.0, 0.0, 103.0],
    [1.0, 0.0, 0.0, 0.0],
    [0.0, 0.0, 1.0, 0.0],
    [0.0, 0.0, 0.0, 1.0]
],
  "dcmmeta_shape": [104, 104, 72, 581],
  "dcmmeta_slice_dim": 2,
  "dcmmeta_version": 0.6,
  "global": {
    "const": {
      "AcquisitionMatrix": [104, 0, 0, 104],
      "AngioFlag": "N",
      "BitsAllocated": 16,
      "BitsStored": 12,
      "Columns": 936,
      "EchoNumbers": 1,
      "EchoTime": 34.8,
      "EchoTrainLength": 1,
      "FlipAngle": 55.0,
      "HighBit": 11,
      "ImageOrientationPatient": [0.99999653448279, 0.00056531750045, -0.0025712717758, -1.441474e-09, 0.97667345256025, 0.21472998641095],
      "ImagePositionPatient": [-930.77003125571, -927.74130329097, -290.53104212796],
      "ImageType": [
        "ORIGINAL",
        "PRIMARY",
        "M",
        "MB",
        "ND",
        "MOSAIC"
],
      "ImagedNucleus": "1H",
      "ImagingFrequency": 123.234388,
      "InPlanePhaseEncodingDirection": "COL",
      "MRAcquisitionType": "2D",
      "MagneticFieldStrength": 3.0,
      "Manufacturer": "SIEMENS",
      "ManufacturerModelName": "TrioTim",
      "Modality": "MR",
      "NumberOfAverages": 1.0,
      "NumberOfPhaseEncodingSteps": 91,
      "PercentPhaseFieldOfView": 100.0,
      "PercentSampling": 100.0,
      "PerformedProcedureStepStartTime": "110212.593000",
      "PhotometricInterpretation": "MONOCHROME2",
      "PixelBandwidth": 1923.0,
      "PixelRepresentation": 0,
      "PixelSpacing": [2.0, 2.0],
      "ProtocolName": "cmrr_mbep2d_bold_2mm_MB8_Task_8x",
      "RepetitionTime": 785.0,
      "Rows": 936,
      "SAR": 0.16016437333175,
      "SamplesPerPixel": 1,
      "ScanOptions": [
        "PFP",
        "FS"
],
      "ScanningSequence": "EP",
      "SequenceName": "epfid2d1_104",
      "SequenceVariant": [
        "SK",
        "SS"
],
      "SeriesDescription": "cmrr_mbep2d_bold_2mm_MB8_Task_8x",
      "SeriesNumber": 27,
      "SeriesTime": "125834.218000",
      "SliceLocation": -86.990208476482,
      "SliceThickness": 2.0,
      "SmallestImagePixelValue": 0,
      "SoftwareVersions": "syngo MR B19",
      "SpacingBetweenSlices": 2.0000000383818,
      "SpecificCharacterSet": "ISO_IR 100",
      "StudyID": "1",
      "StudyTime": "110212.468000",
      "TransmitCoilName": "Body",
      "VariableFlipAngleFlag": "N",
      "WindowCenterWidthExplanation": "Algo1",
      "dBdt": 0.0},
    "slices": {}
  },
  "time": {
    "samples": {
      "AcquisitionNumber": [1, 2, 3, 4, 5, 6, 7, 8, 9, 10, 11, 12, 13, 14, 15, 16, 17, 18, 19, 20, 21, 22, 23, 24, 25, 26, 27, 28, 29, 30, 31, 32, 33, 34, 35, 36, 37, 38, 39, 40, 41, 42, 43, 44, 45, 46, 47, 48, 49, 50, 51, 52, 53, 54, 55, 56, 57, 58, 59, 60, 61, 62, 63, 64, 65, 66, 67, 68, 69, 70, 71, 72, 73, 74, 75, 76, 77, 78, 79, 80, 81, 82, 83, 84, 85, 86, 87, 88, 89, 90, 91, 92, 93, 94, 95, 96, 97, 98, 99, 100, 101, 102, 103, 104, 105, 106, 107, 108, 109, 110, 111, 112, 113, 114, 115, 116, 117, 118, 119, 120, 121, 122, 123, 124, 125, 126, 127, 128, 129, 130, 131, 132, 133, 134, 135, 136, 137, 138, 139, 140, 141, 142, 143, 144, 145, 146, 147, 148, 149, 150, 151, 152, 153, 154, 155, 156, 157, 158, 159, 160, 161, 162, 163, 164, 165, 166, 167, 168, 169, 170, 171, 172, 173, 174, 175, 176, 177, 178, 179, 180, 181, 182, 183, 184, 185, 186, 187, 188, 189, 190, 191, 192, 193, 194, 195, 196, 197, 198, 199, 200, 201, 202, 203, 204, 205, 206, 207, 208, 209, 210, 211, 212, 213, 214, 215, 216, 217, 218, 219, 220, 221, 222, 223, 224, 225, 226, 227, 228, 229, 230, 231, 232, 233, 234, 235, 236, 237, 238, 239, 240, 241, 242, 243, 244, 245, 246, 247, 248, 249, 250, 251, 252, 253, 254, 255, 256, 257, 258, 259, 260, 261, 262, 263, 264, 265, 266, 267, 268, 269, 270, 271, 272, 273, 274, 275, 276, 277, 278, 279, 280, 281, 282, 283, 284, 285, 286, 287, 288, 289, 290, 291, 292, 293, 294, 295, 296, 297, 298, 299, 300, 301, 302, 303, 304, 305, 306, 307, 308, 309, 310, 311, 312, 313, 314, 315, 316, 317, 318, 319, 320, 321, 322, 323, 324, 325, 326, 327, 328, 329, 330, 331, 332, 333, 334, 335, 336, 337, 338, 339, 340, 341, 342, 343, 344, 345, 346, 347, 348, 349, 350, 351, 352, 353, 354, 355, 356, 357, 358, 359, 360, 361, 362, 363, 364, 365, 366, 367, 368, 369, 370, 371, 372, 373, 374, 375, 376, 377, 378, 379, 380, 381, 382, 383, 384, 385, 386, 387, 388, 389, 390, 391, 392, 393, 394, 395, 396, 397, 398, 399, 400, 401, 402, 403, 404, 405, 406, 407, 408, 409, 410, 411, 412, 413, 414, 415, 416, 417, 418, 419, 420, 421, 422, 423, 424, 425, 426, 427, 428, 429, 430, 431, 432, 433, 434, 435, 436, 437, 438, 439, 440, 441, 442, 443, 444, 445, 446, 447, 448, 449, 450, 451, 452, 453, 454, 455, 456, 457, 458, 459, 460, 461, 462, 463, 464, 465, 466, 467, 468, 469, 470, 471, 472, 473, 474, 475, 476, 477, 478, 479, 480, 481, 482, 483, 484, 485, 486, 487, 488, 489, 490, 491, 492, 493, 494, 495, 496, 497, 498, 499, 500, 501, 502, 503, 504, 505, 506, 507, 508, 509, 510, 511, 512, 513, 514, 515, 516, 517, 518, 519, 520, 521, 522, 523, 524, 525, 526, 527, 528, 529, 530, 531, 532, 533, 534, 535, 536, 537, 538, 539, 540, 541, 542, 543, 544, 545, 546, 547, 548, 549, 550, 551, 552, 553, 554, 555, 556, 557, 558, 559, 560, 561, 562, 563, 564, 565, 566, 567, 568, 569, 570, 571, 572, 573, 574, 575, 576, 577, 578, 579, 580, 581],
      "AcquisitionTime": ["125758.682500", "125759.470000", "125800.257500", "125801.045000", "125801.835000", "125802.622500", "125803.410000", "125804.197500", "125804.987500", "125805.775000", "125806.562500", "125807.350000", "125808.140000", "125808.927500", "125809.715000", "125810.502500", "125811.292500", "125812.080000", "125812.867500", "125813.657500", "125814.445000", "125815.232500", "125816.020000", "125816.810000", "125817.597500", "125818.385000", "125819.172500", "125819.962500", "125820.750000", "125821.537500", "125822.325000", "125823.115000", "125823.902500", "125824.690000", "125825.477500", "125826.267500", "125827.055000", "125827.842500", "125828.630000", "125829.420000", "125830.207500", "125830.995000", "125831.785000", "125832.572500", "125833.360000", "125834.147500", "125834.937500", "125835.725000", "125836.512500", "125837.300000", "125838.090000", "125838.877500", "125839.665000", "125840.452500", "125841.242500", "125842.030000", "125842.817500", "125843.605000", "125844.395000", "125845.182500", "125845.970000", "125846.757500", "125847.547500", "125848.335000", "125849.122500", "125849.912500", "125850.700000", "125851.487500", "125852.275000", "125853.065000", "125853.852500", "125854.640000", "125855.427500", "125856.217500", "125857.005000", "125857.792500", "125858.580000", "125859.370000", "125900.157500", "125900.945000", "125901.732500", "125902.522500", "125903.310000", "125904.097500", "125904.885000", "125905.675000", "125906.462500", "125907.250000", "125908.040000", "125908.827500", "125909.615000", "125910.402500", "125911.192500", "125911.980000", "125912.767500", "125913.555000", "125914.345000", "125915.132500", "125915.920000", "125916.707500", "125917.497500", "125918.285000", "125919.072500", "125919.860000", "125920.650000", "125921.437500", "125922.225000", "125923.012500", "125923.802500", "125924.590000", "125925.377500", "125926.167500", "125926.955000", "125927.742500", "125928.530000", "125929.320000", "125930.107500", "125930.895000", "125931.682500", "125932.472500", "125933.260000", "125934.047500", "125934.835000", "125935.625000", "125936.412500", "125937.200000", "125937.987500", "125938.777500", "125939.565000", "125940.352500", "125941.140000", "125941.930000", "125942.717500", "125943.505000", "125944.295000", "125945.082500", "125945.870000", "125946.657500", "125947.447500", "125948.235000", "125949.022500", "125949.810000", "125950.600000", "125951.387500", "125952.175000", "125952.962500", "125953.752500", "125954.540000", "125955.327500", "125956.115000", "125956.905000", "125957.692500", "125958.480000", "125959.270000", "130000.057500", "130000.845000", "130001.632500", "130002.422500", "130003.210000", "130003.997500", "130004.785000", "130005.575000", "130006.362500", "130007.150000", "130007.937500", "130008.727500", "130009.515000", "130010.302500", "130011.090000", "130011.880000", "130012.667500", "130013.455000", "130014.242500", "130015.032500", "130015.820000", "130016.607500", "130017.397500", "130018.185000", "130018.972500", "130019.760000", "130020.550000", "130021.337500", "130022.125000", "130022.912500", "130023.702500", "130024.490000", "130025.277500", "130026.065000", "130026.855000", "130027.642500", "130028.430000", "130029.217500", "130030.007500", "130030.795000", "130031.582500", "130032.370000", "130033.160000", "130033.947500", "130034.735000", "130035.525000", "130036.312500", "130037.100000", "130037.887500", "130038.677500", "130039.465000", "130040.252500", "130041.040000", "130041.830000", "130042.617500", "130043.405000", "130044.192500", "130044.982500", "130045.770000", "130046.557500", "130047.345000", "130048.135000", "130048.922500", "130049.710000", "130050.497500", "130051.287500", "130052.075000", "130052.862500", "130053.652500", "130054.440000", "130055.227500", "130056.015000", "130056.805000", "130057.592500", "130058.380000", "130059.167500", "130059.957500", "130100.745000", "130101.532500", "130102.320000", "130103.110000", "130103.897500", "130104.685000", "130105.472500", "130106.262500", "130107.050000", "130107.837500", "130108.625000", "130109.415000", "130110.202500", "130110.990000", "130111.780000", "130112.567500", "130113.355000", "130114.142500", "130114.932500", "130115.720000", "130116.507500", "130117.295000", "130118.085000", "130118.872500", "130119.660000", "130120.447500", "130121.237500", "130122.025000", "130122.812500", "130123.600000", "130124.390000", "130125.177500", "130125.965000", "130126.752500", "130127.542500", "130128.330000", "130129.117500", "130129.907500", "130130.695000", "130131.482500", "130132.270000", "130133.060000", "130133.847500", "130134.635000", "130135.422500", "130136.212500", "130137.000000", "130137.787500", "130138.575000", "130139.365000", "130140.152500", "130140.940000", "130141.727500", "130142.517500", "130143.305000", "130144.092500", "130144.880000", "130145.670000", "130146.457500", "130147.245000", "130148.035000", "130148.822500", "130149.610000", "130150.397500", "130151.187500", "130151.975000", "130152.762500", "130153.550000", "130154.340000", "130155.127500", "130155.915000", "130156.702500", "130157.492500", "130158.280000", "130159.067500", "130159.855000", "130200.645000", "130201.432500", "130202.220000", "130203.007500", "130203.797500", "130204.585000", "130205.372500", "130206.162500", "130206.950000", "130207.737500", "130208.525000", "130209.315000", "130210.102500", "130210.890000", "130211.677500", "130212.467500", "130213.255000", "130214.042500", "130214.830000", "130215.620000", "130216.407500", "130217.195000", "130217.982500", "130218.772500", "130219.560000", "130220.347500", "130221.135000", "130221.925000", "130222.712500", "130223.500000", "130224.290000", "130225.077500", "130225.865000", "130226.652500", "130227.442500", "130228.230000", "130229.017500", "130229.805000", "130230.595000", "130231.382500", "130232.170000", "130232.957500", "130233.747500", "130234.535000", "130235.322500", "130236.110000", "130236.900000", "130237.687500", "130238.475000", "130239.262500", "130240.052500", "130240.840000", "130241.627500", "130242.417500", "130243.205000", "130243.992500", "130244.780000", "130245.570000", "130246.357500", "130247.145000", "130247.932500", "130248.722500", "130249.510000", "130250.297500", "130251.085000", "130251.875000", "130252.662500", "130253.450000", "130254.237500", "130255.027500", "130255.815000", "130256.602500", "130257.390000", "130258.180000", "130258.967500", "130259.755000", "130300.545000", "130301.332500", "130302.120000", "130302.907500", "130303.697500", "130304.485000", "130305.272500", "130306.060000", "130306.850000", "130307.637500", "130308.425000", "130309.212500", "130310.002500", "130310.790000", "130311.577500", "130312.365000", "130313.155000", "130313.942500", "130314.730000", "130315.520000", "130316.307500", "130317.095000", "130317.882500", "130318.672500", "130319.460000", "130320.247500", "130321.035000", "130321.825000", "130322.612500", "130323.400000", "130324.187500", "130324.977500", "130325.765000", "130326.552500", "130327.340000", "130328.130000", "130328.917500", "130329.705000", "130330.492500", "130331.282500", "130332.070000", "130332.857500", "130333.647500", "130334.435000", "130335.222500", "130336.010000", "130336.800000", "130337.587500", "130338.375000", "130339.162500", "130339.952500", "130340.740000", "130341.527500", "130342.315000", "130343.105000", "130343.892500", "130344.680000", "130345.467500", "130346.257500", "130347.045000", "130347.832500", "130348.620000", "130349.410000", "130350.197500", "130350.985000", "130351.775000", "130352.562500", "130353.350000", "130354.137500", "130354.927500", "130355.715000", "130356.502500", "130357.290000", "130358.080000", "130358.867500", "130359.655000", "130400.442500", "130401.232500", "130402.020000", "130402.807500", "130403.595000", "130404.385000", "130405.172500", "130405.960000", "130406.747500", "130407.537500", "130408.325000", "130409.112500", "130409.902500", "130410.690000", "130411.477500", "130412.265000", "130413.055000", "130413.842500", "130414.630000", "130415.417500", "130416.207500", "130416.995000", "130417.782500", "130418.570000", "130419.360000", "130420.147500", "130420.935000", "130421.722500", "130422.512500", "130423.300000", "130424.087500", "130424.875000", "130425.665000", "130426.452500", "130427.240000", "130428.030000", "130428.817500", "130429.605000", "130430.392500", "130431.182500", "130431.970000", "130432.757500", "130433.545000", "130434.335000", "130435.122500", "130435.910000", "130436.697500", "130437.487500", "130438.275000", "130439.062500", "130439.850000", "130440.640000", "130441.427500", "130442.215000", "130443.002500", "130443.792500", "130444.580000", "130445.367500", "130446.157500", "130446.945000", "130447.732500", "130448.520000", "130449.310000", "130450.097500", "130450.885000", "130451.672500", "130452.462500", "130453.250000", "130454.037500", "130454.825000", "130455.615000", "130456.402500", "130457.190000", "130457.977500", "130458.767500", "130459.555000", "130500.342500", "130501.130000", "130501.920000", "130502.707500", "130503.495000", "130504.285000", "130505.072500", "130505.860000", "130506.647500", "130507.437500", "130508.225000", "130509.012500", "130509.800000", "130510.590000", "130511.377500", "130512.165000", "130512.952500", "130513.742500", "130514.530000", "130515.317500", "130516.105000", "130516.895000", "130517.682500", "130518.470000", "130519.257500", "130520.047500", "130520.835000", "130521.622500", "130522.412500", "130523.200000", "130523.987500", "130524.775000", "130525.565000", "130526.352500", "130527.140000", "130527.927500", "130528.717500", "130529.505000", "130530.292500", "130531.080000", "130531.870000", "130532.657500", "130533.445000", "130534.232500", "130535.022500", "130535.810000"],
      "ContentTime": ["125834.234000", "125834.234000", "125834.234000", "125834.234000", "125834.234000", "125834.234000", "125834.234000", "125834.250000", "125834.250000", "125834.250000", "125834.250000", "125834.250000", "125834.250000", "125834.250000", "125834.250000", "125834.265000", "125834.265000", "125834.265000", "125834.265000", "125834.265000", "125834.265000", "125834.265000", "125834.281000", "125834.281000", "125834.281000", "125834.281000", "125834.281000", "125834.281000", "125834.281000", "125834.281000", "125834.296000", "125834.296000", "125834.296000", "125834.296000", "125834.296000", "125834.296000", "125834.296000", "125834.296000", "125834.312000", "125834.312000", "125834.312000", "125834.312000", "125854.203000", "125854.203000", "125854.203000", "125854.203000", "125854.218000", "125854.218000", "125854.218000", "125854.218000", "125854.218000", "125854.218000", "125854.218000", "125854.234000", "125854.234000", "125854.234000", "125854.234000", "125854.234000", "125854.234000", "125854.234000", "125854.250000", "125854.250000", "125854.250000", "125854.250000", "125854.250000", "125854.250000", "125854.250000", "125914.203000", "125914.203000", "125914.203000", "125914.203000", "125914.218000", "125914.218000", "125914.218000", "125914.218000", "125914.218000", "125914.218000", "125914.218000", "125914.234000", "125914.234000", "125914.234000", "125914.234000", "125914.234000", "125914.250000", "125914.250000", "125914.250000", "125914.250000", "125914.250000", "125914.250000", "125914.265000", "125914.265000", "125914.265000", "125914.265000", "125934.203000", "125934.203000", "125934.203000", "125934.203000", "125934.218000", "125934.218000", "125934.218000", "125934.218000", "125934.218000", "125934.218000", "125934.218000", "125934.234000", "125934.234000", "125934.234000", "125934.234000", "125934.234000", "125934.234000", "125934.234000", "125934.234000", "125934.250000", "125934.250000", "125934.250000", "125934.250000", "125934.250000", "125934.250000", "125954.203000", "125954.203000", "125954.203000", "125954.203000", "125954.218000", "125954.218000", "125954.218000", "125954.218000", "125954.218000", "125954.234000", "125954.234000", "125954.234000", "125954.234000", "125954.234000", "125954.234000", "125954.250000", "125954.250000", "125954.250000", "125954.250000", "125954.250000", "125954.265000", "125954.265000", "125954.265000", "125954.265000", "125954.265000", "125954.265000", "130014.203000", "130014.203000", "130014.203000", "130014.203000", "130014.218000", "130014.218000", "130014.218000", "130014.218000", "130014.218000", "130014.218000", "130014.218000", "130014.234000", "130014.234000", "130014.234000", "130014.234000", "130014.234000", "130014.234000", "130014.234000", "130014.250000", "130014.250000", "130014.250000", "130014.250000", "130014.250000", "130014.250000", "130014.250000", "130034.203000", "130034.203000", "130034.203000", "130034.203000", "130034.218000", "130034.218000", "130034.218000", "130034.218000", "130034.218000", "130034.218000", "130034.218000", "130034.234000", "130034.234000", "130034.234000", "130034.234000", "130034.234000", "130034.234000", "130034.234000", "130034.250000", "130034.250000", "130034.250000", "130034.250000", "130034.250000", "130034.265000", "130034.265000", "130034.265000", "130054.203000", "130054.203000", "130054.203000", "130054.203000", "130054.218000", "130054.218000", "130054.218000", "130054.218000", "130054.218000", "130054.218000", "130054.218000", "130054.234000", "130054.234000", "130054.234000", "130054.234000", "130054.234000", "130054.250000", "130054.250000", "130054.250000", "130054.250000", "130054.250000", "130054.250000", "130054.250000", "130054.265000", "130054.265000", "130114.203000", "130114.203000", "130114.203000", "130114.218000", "130114.218000", "130114.218000", "130114.218000", "130114.218000", "130114.218000", "130114.218000", "130114.218000", "130114.234000", "130114.234000", "130114.234000", "130114.234000", "130114.234000", "130114.234000", "130114.234000", "130114.234000", "130114.250000", "130114.250000", "130114.250000", "130114.250000", "130114.250000", "130114.250000", "130114.250000", "130134.203000", "130134.203000", "130134.203000", "130134.218000", "130134.218000", "130134.218000", "130134.218000", "130134.218000", "130134.218000", "130134.218000", "130134.218000", "130134.234000", "130134.234000", "130134.234000", "130134.234000", "130134.234000", "130134.234000", "130134.234000", "130134.250000", "130134.250000", "130134.250000", "130134.250000", "130134.250000", "130134.250000", "130134.250000", "130154.203000", "130154.203000", "130154.203000", "130154.203000", "130154.218000", "130154.218000", "130154.218000", "130154.218000", "130154.218000", "130154.218000", "130154.218000", "130154.234000", "130154.234000", "130154.234000", "130154.234000", "130154.234000", "130154.234000", "130154.234000", "130154.234000", "130154.250000", "130154.250000", "130154.250000", "130154.250000", "130154.250000", "130154.265000", "130154.265000", "130214.203000", "130214.203000", "130214.203000", "130214.203000", "130214.218000", "130214.218000", "130214.218000", "130214.218000", "130214.218000", "130214.218000", "130214.218000", "130214.234000", "130214.234000", "130214.234000", "130214.234000", "130214.234000", "130214.234000", "130214.234000", "130214.234000", "130214.250000", "130214.250000", "130214.250000", "130214.250000", "130214.250000", "130214.250000", "130234.203000", "130234.203000", "130234.203000", "130234.218000", "130234.218000", "130234.218000", "130234.218000", "130234.218000", "130234.234000", "130234.234000", "130234.234000", "130234.234000", "130234.234000", "130234.234000", "130234.234000", "130234.234000", "130234.250000", "130234.250000", "130234.250000", "130234.250000", "130234.250000", "130234.250000", "130234.250000", "130234.265000", "130234.265000", "130234.265000", "130254.203000", "130254.203000", "130254.203000", "130254.218000", "130254.218000", "130254.218000", "130254.218000", "130254.218000", "130254.218000", "130254.218000", "130254.218000", "130254.234000", "130254.234000", "130254.234000", "130254.234000", "130254.234000", "130254.234000", "130254.234000", "130254.250000", "130254.250000", "130254.250000", "130254.250000", "130254.250000", "130254.250000", "130254.265000", "130314.203000", "130314.203000", "130314.203000", "130314.218000", "130314.218000", "130314.218000", "130314.218000", "130314.218000", "130314.218000", "130314.218000", "130314.218000", "130314.234000", "130314.234000", "130314.234000", "130314.234000", "130314.234000", "130314.234000", "130314.234000", "130314.250000", "130314.250000", "130314.250000", "130314.250000", "130314.250000", "130314.250000", "130314.250000", "130314.250000", "130334.203000", "130334.203000", "130334.203000", "130334.218000", "130334.218000", "130334.218000", "130334.218000", "130334.218000", "130334.218000", "130334.218000", "130334.218000", "130334.234000", "130334.234000", "130334.234000", "130334.234000", "130334.234000", "130334.234000", "130334.234000", "130334.234000", "130334.250000", "130334.250000", "130334.250000", "130334.250000", "130334.250000", "130334.250000", "130354.203000", "130354.218000", "130354.218000", "130354.218000", "130354.218000", "130354.218000", "130354.234000", "130354.234000", "130354.234000", "130354.234000", "130354.234000", "130354.234000", "130354.234000", "130354.234000", "130354.250000", "130354.250000", "130354.250000", "130354.250000", "130354.250000", "130354.250000", "130354.250000", "130354.265000", "130354.265000", "130354.265000", "130354.265000", "130414.203000", "130414.203000", "130414.203000", "130414.203000", "130414.218000", "130414.218000", "130414.218000", "130414.218000", "130414.218000", "130414.218000", "130414.218000", "130414.234000", "130414.234000", "130414.234000", "130414.234000", "130414.234000", "130414.234000", "130414.234000", "130414.234000", "130414.250000", "130414.250000", "130414.250000", "130414.250000", "130414.250000", "130414.250000", "130414.250000", "130434.203000", "130434.203000", "130434.203000", "130434.203000", "130434.218000", "130434.218000", "130434.218000", "130434.218000", "130434.218000", "130434.218000", "130434.234000", "130434.234000", "130434.234000", "130434.234000", "130434.234000", "130434.234000", "130434.234000", "130434.250000", "130434.250000", "130434.250000", "130434.250000", "130434.250000", "130434.250000", "130434.250000", "130434.250000", "130454.203000", "130454.203000", "130454.203000", "130454.218000", "130454.218000", "130454.218000", "130454.218000", "130454.218000", "130454.218000", "130454.218000", "130454.218000", "130454.234000", "130454.234000", "130454.234000", "130454.234000", "130454.234000", "130454.234000", "130454.234000", "130454.250000", "130454.250000", "130454.250000", "130454.250000", "130454.250000", "130454.250000", "130454.250000", "130454.250000", "130514.203000", "130514.203000", "130514.203000", "130514.218000", "130514.218000", "130514.218000", "130514.218000", "130514.218000", "130514.218000", "130514.218000", "130514.218000", "130514.234000", "130514.234000", "130514.234000", "130514.234000", "130514.234000", "130514.250000", "130514.250000", "130514.250000", "130514.250000", "130514.250000", "130514.250000", "130514.250000", "130514.265000", "130514.265000", "130534.203000", "130534.203000", "130534.203000", "130534.203000", "130534.218000", "130534.218000", "130534.218000", "130534.218000", "130534.218000", "130534.218000", "130534.218000", "130534.234000", "130534.234000", "130534.234000", "130534.234000", "130534.234000", "130534.234000", "130534.234000", "130534.250000", "130534.250000", "130534.250000", "130534.250000", "130534.250000", "130534.250000", "130534.265000", "130534.265000", "130537.187000", "130537.187000", "130537.187000", "130537.187000"],
