{
  "AcquisitionMatrixPE": 104,
  "AcquisitionNumber": 1,
  "AcquisitionTime": "11:37:56.752500",
  "BandwidthPerPixelPhaseEncode": 13.935,
  "BaseResolution": 104,
  "CoilString": "C:HEA;HEP",
  "ConversionSoftware": "dcm2niix",
  "ConversionSoftwareVersion": "v1.0.20210317",
  "DerivedVendorReportedEchoSpacing": 0.000690017,
  "DeviceSerialNumber": "35450",
  "DwellTime": 2.5e-06,
  "EchoTime": 0.0348,
  "EffectiveEchoSpacing": 0.000690017,
  "FlipAngle": 55,
  "ImageComments": "Unaliased MB8/PE3 (remote)",
  "ImageOrientationPatientDICOM": [0.999611, 0.00450508, 0.0275156, 5.548e-08, 0.98686, -0.161578],
  "ImageType": [
    "ORIGINAL",
    "PRIMARY",
    "M",
    "MB",
    "ND",
    "MOSAIC"
],
  "ImagingFrequency": 123.234,
  "InPlanePhaseEncodingDirectionDICOM": "COL",
  "InstitutionAddress": "Univeristy Ave. 197,Newark,North East,US,07102-1814",
  "InstitutionName": "RUBIC",
  "InstitutionalDepartmentName": "Department",
  "MRAcquisitionType": "2D",
  "MagneticFieldStrength": 3,
  "Manufacturer": "Siemens",
  "ManufacturersModelName": "TrioTim",
  "Modality": "MR",
  "MultibandAccelerationFactor": 8,
  "PartialFourier": 0.875,
  "PatientPosition": "HFS",
  "PercentPhaseFOV": 100,
  "PercentSampling": 100,
  "PhaseEncodingDirection": "j-",
  "PhaseEncodingSteps": 91,
  "PhaseResolution": 1,
  "PixelBandwidth": 1923,
  "ProcedureStepDescription": "Cole^Michael",
  "ProtocolName": "cmrr_mbep2d_bold_2mm_MB8_Task_8x",
  "PulseSequenceDetails": "%CustomerSeq%\\cmrr_mbep2d_bold",
  "ReceiveCoilName": "32Ch_Head",
  "ReconMatrixPE": 104,
  "RepetitionTime": 0.785,
  "SAR": 0.113675,
  "ScanOptions": "PFP\\FS",
  "ScanningSequence": "EP",
  "SequenceName": "epfid2d1_104",
  "SequenceVariant": "SK\\SS",
  "SeriesDescription": "cmrr_mbep2d_bold_2mm_MB8_Task_8x",
  "SeriesNumber": 17,
  "ShimSetting": [2133, -382, -7257, 249, -54, -117, 193, -64],
  "SliceThickness": 2,
  "SliceTiming": [0, 0.4375, 0.0875, 0.525, 0.175, 0.6125, 0.2625, 0.7, 0.35, 0, 0.4375, 0.0875, 0.525, 0.175, 0.6125, 0.2625, 0.7, 0.35, 0, 0.4375, 0.0875, 0.525, 0.175, 0.6125, 0.2625, 0.7, 0.35, 0, 0.4375, 0.0875, 0.525, 0.175, 0.6125, 0.2625, 0.7, 0.35, 0, 0.4375, 0.0875, 0.525, 0.175, 0.6125, 0.2625, 0.7, 0.35, 0, 0.4375, 0.0875, 0.525, 0.175, 0.6125, 0.2625, 0.7, 0.35, 0, 0.4375, 0.0875, 0.525, 0.175, 0.6125, 0.2625, 0.7, 0.35, 0, 0.4375, 0.0875, 0.525, 0.175, 0.6125, 0.2625, 0.7, 0.35],
  "SoftwareVersions": "syngo MR B19",
  "SpacingBetweenSlices": 2,
  "StationName": "MRC35450",
  "TaskName": "cpro",
  "TotalReadoutTime": 0.0710717,
  "TxRefAmp": 323.484,
  "dcmmeta_affine": [
    [-1.9992223978042603, 1.1095998075916214e-07, 0.055764004588127136, 103.5031967163086],
    [-0.009010154753923416, 1.9737197160720825, -0.32303136587142944, -78.4134750366211],
    [0.05503127723932266, 0.3231569826602936, 1.9729523658752441, -112.22648620605469],
    [0.0, 0.0, 0.0, 1.0]
],
  "dcmmeta_reorient_transform": [
    [0.0, -1.0, 0.0, 103.0],
    [1.0, 0.0, 0.0, 0.0],
    [0.0, 0.0, 1.0, 0.0],
    [0.0, 0.0, 0.0, 1.0]
],
  "dcmmeta_shape": [104, 104, 72, 581],
  "dcmmeta_slice_dim": 2,
  "dcmmeta_version": 0.6,
  "global": {
    "const": {
      "AcquisitionMatrix": [104, 0, 0, 104],
      "AngioFlag": "N",
      "BitsAllocated": 16,
      "BitsStored": 12,
      "Columns": 936,
      "EchoNumbers": 1,
      "EchoTime": 34.8,
      "EchoTrainLength": 1,
      "FlipAngle": 55.0,
      "HighBit": 11,
      "ImageOrientationPatient": [0.99961122138447, 0.00450507738034, 0.0275156384633, 5.5479991e-08, 0.98685986306492, -0.1615784969341],
      "ImagePositionPatient": [-935.17978958961, -949.69528468096, 32.598985431054],
      "ImageType": [
        "ORIGINAL",
        "PRIMARY",
        "M",
        "MB",
        "ND",
        "MOSAIC"
],
      "ImagedNucleus": "1H",
      "ImagingFrequency": 123.234455,
      "InPlanePhaseEncodingDirection": "COL",
      "MRAcquisitionType": "2D",
      "MagneticFieldStrength": 3.0,
      "Manufacturer": "SIEMENS",
      "ManufacturerModelName": "TrioTim",
      "Modality": "MR",
      "NumberOfAverages": 1.0,
      "NumberOfPhaseEncodingSteps": 91,
      "PercentPhaseFieldOfView": 100.0,
      "PercentSampling": 100.0,
      "PerformedProcedureStepStartTime": "101825.703000",
      "PhotometricInterpretation": "MONOCHROME2",
      "PixelBandwidth": 1923.0,
      "PixelRepresentation": 0,
      "PixelSpacing": [2.0, 2.0],
      "ProtocolName": "cmrr_mbep2d_bold_2mm_MB8_Task_8x",
      "RepetitionTime": 785.0,
      "Rows": 936,
      "SAR": 0.11367459511211,
      "SamplesPerPixel": 1,
      "ScanOptions": [
        "PFP",
        "FS"
],
      "ScanningSequence": "EP",
      "SequenceName": "epfid2d1_104",
      "SequenceVariant": [
        "SK",
        "SS"
],
      "SeriesDescription": "cmrr_mbep2d_bold_2mm_MB8_Task_8x",
      "SeriesNumber": 17,
      "SeriesTime": "113821.718000",
      "SliceLocation": -95.157871300125,
      "SliceThickness": 2.0,
      "SmallestImagePixelValue": 0,
      "SoftwareVersions": "syngo MR B19",
      "SpacingBetweenSlices": 1.9999999607303,
      "SpecificCharacterSet": "ISO_IR 100",
      "StudyID": "1",
      "StudyTime": "101825.578000",
      "TransmitCoilName": "Body",
      "VariableFlipAngleFlag": "N",
      "WindowCenterWidthExplanation": "Algo1",
      "dBdt": 0.0},
    "slices": {}
  },
  "time": {
    "samples": {
      "AcquisitionNumber": [1, 2, 3, 4, 5, 6, 7, 8, 9, 10, 11, 12, 13, 14, 15, 16, 17, 18, 19, 20, 21, 22, 23, 24, 25, 26, 27, 28, 29, 30, 31, 32, 33, 34, 35, 36, 37, 38, 39, 40, 41, 42, 43, 44, 45, 46, 47, 48, 49, 50, 51, 52, 53, 54, 55, 56, 57, 58, 59, 60, 61, 62, 63, 64, 65, 66, 67, 68, 69, 70, 71, 72, 73, 74, 75, 76, 77, 78, 79, 80, 81, 82, 83, 84, 85, 86, 87, 88, 89, 90, 91, 92, 93, 94, 95, 96, 97, 98, 99, 100, 101, 102, 103, 104, 105, 106, 107, 108, 109, 110, 111, 112, 113, 114, 115, 116, 117, 118, 119, 120, 121, 122, 123, 124, 125, 126, 127, 128, 129, 130, 131, 132, 133, 134, 135, 136, 137, 138, 139, 140, 141, 142, 143, 144, 145, 146, 147, 148, 149, 150, 151, 152, 153, 154, 155, 156, 157, 158, 159, 160, 161, 162, 163, 164, 165, 166, 167, 168, 169, 170, 171, 172, 173, 174, 175, 176, 177, 178, 179, 180, 181, 182, 183, 184, 185, 186, 187, 188, 189, 190, 191, 192, 193, 194, 195, 196, 197, 198, 199, 200, 201, 202, 203, 204, 205, 206, 207, 208, 209, 210, 211, 212, 213, 214, 215, 216, 217, 218, 219, 220, 221, 222, 223, 224, 225, 226, 227, 228, 229, 230, 231, 232, 233, 234, 235, 236, 237, 238, 239, 240, 241, 242, 243, 244, 245, 246, 247, 248, 249, 250, 251, 252, 253, 254, 255, 256, 257, 258, 259, 260, 261, 262, 263, 264, 265, 266, 267, 268, 269, 270, 271, 272, 273, 274, 275, 276, 277, 278, 279, 280, 281, 282, 283, 284, 285, 286, 287, 288, 289, 290, 291, 292, 293, 294, 295, 296, 297, 298, 299, 300, 301, 302, 303, 304, 305, 306, 307, 308, 309, 310, 311, 312, 313, 314, 315, 316, 317, 318, 319, 320, 321, 322, 323, 324, 325, 326, 327, 328, 329, 330, 331, 332, 333, 334, 335, 336, 337, 338, 339, 340, 341, 342, 343, 344, 345, 346, 347, 348, 349, 350, 351, 352, 353, 354, 355, 356, 357, 358, 359, 360, 361, 362, 363, 364, 365, 366, 367, 368, 369, 370, 371, 372, 373, 374, 375, 376, 377, 378, 379, 380, 381, 382, 383, 384, 385, 386, 387, 388, 389, 390, 391, 392, 393, 394, 395, 396, 397, 398, 399, 400, 401, 402, 403, 404, 405, 406, 407, 408, 409, 410, 411, 412, 413, 414, 415, 416, 417, 418, 419, 420, 421, 422, 423, 424, 425, 426, 427, 428, 429, 430, 431, 432, 433, 434, 435, 436, 437, 438, 439, 440, 441, 442, 443, 444, 445, 446, 447, 448, 449, 450, 451, 452, 453, 454, 455, 456, 457, 458, 459, 460, 461, 462, 463, 464, 465, 466, 467, 468, 469, 470, 471, 472, 473, 474, 475, 476, 477, 478, 479, 480, 481, 482, 483, 484, 485, 486, 487, 488, 489, 490, 491, 492, 493, 494, 495, 496, 497, 498, 499, 500, 501, 502, 503, 504, 505, 506, 507, 508, 509, 510, 511, 512, 513, 514, 515, 516, 517, 518, 519, 520, 521, 522, 523, 524, 525, 526, 527, 528, 529, 530, 531, 532, 533, 534, 535, 536, 537, 538, 539, 540, 541, 542, 543, 544, 545, 546, 547, 548, 549, 550, 551, 552, 553, 554, 555, 556, 557, 558, 559, 560, 561, 562, 563, 564, 565, 566, 567, 568, 569, 570, 571, 572, 573, 574, 575, 576, 577, 578, 579, 580, 581],
      "AcquisitionTime": ["113756.752500", "113757.542500", "113758.330000", "113759.117500", "113759.905000", "113800.695000", "113801.482500", "113802.270000", "113803.057500", "113803.847500", "113804.635000", "113805.422500", "113806.212500", "113807.000000", "113807.787500", "113808.575000", "113809.365000", "113810.152500", "113810.940000", "113811.727500", "113812.517500", "113813.305000", "113814.092500", "113814.880000", "113815.670000", "113816.457500", "113817.245000", "113818.032500", "113818.822500", "113819.610000", "113820.397500", "113821.185000", "113821.975000", "113822.762500", "113823.550000", "113824.340000", "113825.127500", "113825.915000", "113826.702500", "113827.492500", "113828.280000", "113829.067500", "113829.855000", "113830.645000", "113831.432500", "113832.220000", "113833.007500", "113833.797500", "113834.585000", "113835.372500", "113836.160000", "113836.950000", "113837.737500", "113838.525000", "113839.312500", "113840.102500", "113840.890000", "113841.677500", "113842.467500", "113843.255000", "113844.042500", "113844.830000", "113845.620000", "113846.407500", "113847.195000", "113847.982500", "113848.772500", "113849.560000", "113850.347500", "113851.135000", "113851.925000", "113852.712500", "113853.500000", "113854.287500", "113855.077500", "113855.865000", "113856.652500", "113857.440000", "113858.230000", "113859.017500", "113859.805000", "113900.595000", "113901.382500", "113902.170000", "113902.957500", "113903.747500", "113904.535000", "113905.322500", "113906.110000", "113906.900000", "113907.687500", "113908.475000", "113909.262500", "113910.052500", "113910.840000", "113911.627500", "113912.415000", "113913.205000", "113913.992500", "113914.780000", "113915.570000", "113916.357500", "113917.145000", "113917.932500", "113918.722500", "113919.510000", "113920.297500", "113921.085000", "113921.875000", "113922.662500", "113923.450000", "113924.237500", "113925.027500", "113925.815000", "113926.602500", "113927.390000", "113928.180000", "113928.967500", "113929.755000", "113930.542500", "113931.332500", "113932.120000", "113932.907500", "113933.697500", "113934.485000", "113935.272500", "113936.060000", "113936.850000", "113937.637500", "113938.425000", "113939.212500", "113940.002500", "113940.790000", "113941.577500", "113942.365000", "113943.155000", "113943.942500", "113944.730000", "113945.517500", "113946.307500", "113947.095000", "113947.882500", "113948.670000", "113949.460000", "113950.247500", "113951.035000", "113951.825000", "113952.612500", "113953.400000", "113954.187500", "113954.977500", "113955.765000", "113956.552500", "113957.340000", "113958.130000", "113958.917500", "113959.705000", "114000.492500", "114001.282500", "114002.070000", "114002.857500", "114003.645000", "114004.435000", "114005.222500", "114006.010000", "114006.797500", "114007.587500", "114008.375000", "114009.162500", "114009.952500", "114010.740000", "114011.527500", "114012.315000", "114013.105000", "114013.892500", "114014.680000", "114015.467500", "114016.257500", "114017.045000", "114017.832500", "114018.620000", "114019.410000", "114020.197500", "114020.985000", "114021.772500", "114022.562500", "114023.350000", "114024.137500", "114024.925000", "114025.715000", "114026.502500", "114027.290000", "114028.080000", "114028.867500", "114029.655000", "114030.442500", "114031.232500", "114032.020000", "114032.807500", "114033.595000", "114034.385000", "114035.172500", "114035.960000", "114036.747500", "114037.537500", "114038.325000", "114039.112500", "114039.900000", "114040.690000", "114041.477500", "114042.265000", "114043.052500", "114043.842500", "114044.630000", "114045.417500", "114046.207500", "114046.995000", "114047.782500", "114048.570000", "114049.360000", "114050.147500", "114050.935000", "114051.722500", "114052.512500", "114053.300000", "114054.087500", "114054.875000", "114055.665000", "114056.452500", "114057.240000", "114058.027500", "114058.817500", "114059.605000", "114100.392500", "114101.180000", "114101.970000", "114102.757500", "114103.545000", "114104.335000", "114105.122500", "114105.910000", "114106.697500", "114107.487500", "114108.275000", "114109.062500", "114109.850000", "114110.640000", "114111.427500", "114112.215000", "114113.002500", "114113.792500", "114114.580000", "114115.367500", "114116.155000", "114116.945000", "114117.732500", "114118.520000", "114119.307500", "114120.097500", "114120.885000", "114121.672500", "114122.462500", "114123.250000", "114124.037500", "114124.825000", "114125.615000", "114126.402500", "114127.190000", "114127.977500", "114128.767500", "114129.555000", "114130.342500", "114131.130000", "114131.920000", "114132.707500", "114133.495000", "114134.282500", "114135.072500", "114135.860000", "114136.647500", "114137.435000", "114138.225000", "114139.012500", "114139.800000", "114140.590000", "114141.377500", "114142.165000", "114142.952500", "114143.742500", "114144.530000", "114145.317500", "114146.105000", "114146.895000", "114147.682500", "114148.470000", "114149.257500", "114150.047500", "114150.835000", "114151.622500", "114152.410000", "114153.200000", "114153.987500", "114154.775000", "114155.562500", "114156.352500", "114157.140000", "114157.927500", "114158.717500", "114159.505000", "114200.292500", "114201.080000", "114201.870000", "114202.657500", "114203.445000", "114204.232500", "114205.022500", "114205.810000", "114206.597500", "114207.385000", "114208.175000", "114208.962500", "114209.750000", "114210.537500", "114211.327500", "114212.115000", "114212.902500", "114213.690000", "114214.480000", "114215.267500", "114216.055000", "114216.845000", "114217.632500", "114218.420000", "114219.207500", "114219.997500", "114220.785000", "114221.572500", "114222.360000", "114223.150000", "114223.937500", "114224.725000", "114225.512500", "114226.302500", "114227.090000", "114227.877500", "114228.665000", "114229.455000", "114230.242500", "114231.030000", "114231.820000", "114232.607500", "114233.395000", "114234.182500", "114234.972500", "114235.760000", "114236.547500", "114237.335000", "114238.125000", "114238.912500", "114239.700000", "114240.487500", "114241.277500", "114242.065000", "114242.852500", "114243.640000", "114244.430000", "114245.217500", "114246.005000", "114246.792500", "114247.582500", "114248.370000", "114249.157500", "114249.947500", "114250.735000", "114251.522500", "114252.310000", "114253.100000", "114253.887500", "114254.675000", "114255.462500", "114256.252500", "114257.040000", "114257.827500", "114258.615000", "114259.405000", "114300.192500", "114300.980000", "114301.767500", "114302.557500", "114303.345000", "114304.132500", "114304.920000", "114305.710000", "114306.497500", "114307.285000", "114308.075000", "114308.862500", "114309.650000", "114310.437500", "114311.227500", "114312.015000", "114312.802500", "114313.590000", "114314.380000", "114315.167500", "114315.955000", "114316.742500", "114317.532500", "114318.320000", "114319.107500", "114319.895000", "114320.685000", "114321.472500", "114322.260000", "114323.047500", "114323.837500", "114324.625000", "114325.412500", "114326.202500", "114326.990000", "114327.777500", "114328.565000", "114329.355000", "114330.142500", "114330.930000", "114331.717500", "114332.507500", "114333.295000", "114334.082500", "114334.870000", "114335.660000", "114336.447500", "114337.235000", "114338.022500", "114338.812500", "114339.600000", "114340.387500", "114341.175000", "114341.965000", "114342.752500", "114343.540000", "114344.330000", "114345.117500", "114345.905000", "114346.692500", "114347.482500", "114348.270000", "114349.057500", "114349.845000", "114350.635000", "114351.422500", "114352.210000", "114352.997500", "114353.787500", "114354.575000", "114355.362500", "114356.150000", "114356.940000", "114357.727500", "114358.515000", "114359.302500", "114400.092500", "114400.880000", "114401.667500", "114402.457500", "114403.245000", "114404.032500", "114404.820000", "114405.610000", "114406.397500", "114407.185000", "114407.972500", "114408.762500", "114409.550000", "114410.337500", "114411.125000", "114411.915000", "114412.702500", "114413.490000", "114414.277500", "114415.067500", "114415.855000", "114416.642500", "114417.430000", "114418.220000", "114419.007500", "114419.795000", "114420.585000", "114421.372500", "114422.160000", "114422.947500", "114423.737500", "114424.525000", "114425.312500", "114426.100000", "114426.890000", "114427.677500", "114428.465000", "114429.252500", "114430.042500", "114430.830000", "114431.617500", "114432.405000", "114433.195000", "114433.982500", "114434.770000", "114435.557500", "114436.347500", "114437.135000", "114437.922500", "114438.712500", "114439.500000", "114440.287500", "114441.075000", "114441.865000", "114442.652500", "114443.440000", "114444.227500", "114445.017500", "114445.805000", "114446.592500", "114447.380000", "114448.170000", "114448.957500", "114449.745000", "114450.532500", "114451.322500", "114452.110000", "114452.897500", "114453.685000", "114454.475000", "114455.262500", "114456.050000", "114456.840000", "114457.627500", "114458.415000", "114459.202500", "114459.992500", "114500.780000", "114501.567500", "114502.355000", "114503.145000", "114503.932500", "114504.720000", "114505.507500", "114506.297500", "114507.085000", "114507.872500", "114508.660000", "114509.450000", "114510.237500", "114511.025000", "114511.812500", "114512.602500", "114513.390000", "114514.177500", "114514.967500", "114515.755000", "114516.542500", "114517.330000", "114518.120000", "114518.907500", "114519.695000", "114520.482500", "114521.272500", "114522.060000", "114522.847500", "114523.635000", "114524.425000", "114525.212500", "114526.000000", "114526.787500", "114527.577500", "114528.365000", "114529.152500", "114529.940000", "114530.730000", "114531.517500", "114532.305000", "114533.095000", "114533.882500"],
      "ContentTime": ["113821.734000", "113821.734000", "113821.734000", "113821.734000", "113821.734000", "113821.734000", "113821.734000", "113821.734000", "113821.750000", "113821.750000", "113821.750000", "113821.750000", "113821.750000", "113821.750000", "113821.750000", "113821.750000", "113821.765000", "113821.765000", "113821.765000", "113821.765000", "113821.765000", "113821.765000", "113821.765000", "113821.781000", "113821.781000", "113821.781000", "113821.781000", "113821.781000", "113821.781000", "113841.703000", "113841.703000", "113841.703000", "113841.703000", "113841.703000", "113841.718000", "113841.718000", "113841.718000", "113841.718000", "113841.718000", "113841.718000", "113841.718000", "113841.718000", "113841.734000", "113841.734000", "113841.734000", "113841.734000", "113841.734000", "113841.734000", "113841.734000", "113841.750000", "113841.750000", "113841.750000", "113841.750000", "113841.750000", "113841.750000", "113901.703000", "113901.703000", "113901.703000", "113901.703000", "113901.703000", "113901.718000", "113901.718000", "113901.718000", "113901.718000", "113901.718000", "113901.718000", "113901.718000", "113901.718000", "113901.734000", "113901.734000", "113901.734000", "113901.734000", "113901.734000", "113901.734000", "113901.734000", "113901.750000", "113901.750000", "113901.750000", "113901.750000", "113901.750000", "113921.703000", "113921.703000", "113921.703000", "113921.703000", "113921.703000", "113921.718000", "113921.718000", "113921.718000", "113921.718000", "113921.718000", "113921.718000", "113921.718000", "113921.734000", "113921.734000", "113921.734000", "113921.734000", "113921.734000", "113921.734000", "113921.734000", "113921.734000", "113921.750000", "113921.750000", "113921.750000", "113921.750000", "113921.750000", "113921.750000", "113941.703000", "113941.703000", "113941.703000", "113941.703000", "113941.703000", "113941.718000", "113941.718000", "113941.718000", "113941.718000", "113941.718000", "113941.718000", "113941.718000", "113941.734000", "113941.734000", "113941.734000", "113941.734000", "113941.734000", "113941.734000", "113941.734000", "113941.734000", "113941.750000", "113941.750000", "113941.750000", "113941.750000", "113941.750000", "114001.703000", "114001.703000", "114001.703000", "114001.703000", "114001.703000", "114001.718000", "114001.718000", "114001.718000", "114001.718000", "114001.718000", "114001.718000", "114001.718000", "114001.718000", "114001.734000", "114001.734000", "114001.734000", "114001.734000", "114001.734000", "114001.734000", "114001.734000", "114001.750000", "114001.750000", "114001.750000", "114001.750000", "114001.750000", "114001.750000", "114021.703000", "114021.703000", "114021.703000", "114021.703000", "114021.703000", "114021.718000", "114021.718000", "114021.718000", "114021.718000", "114021.718000", "114021.718000", "114021.718000", "114021.718000", "114021.734000", "114021.734000", "114021.734000", "114021.734000", "114021.734000", "114021.734000", "114021.734000", "114021.750000", "114021.750000", "114021.750000", "114021.750000", "114021.750000", "114041.703000", "114041.703000", "114041.703000", "114041.703000", "114041.703000", "114041.718000", "114041.718000", "114041.718000", "114041.718000", "114041.718000", "114041.718000", "114041.718000", "114041.718000", "114041.734000", "114041.734000", "114041.734000", "114041.734000", "114041.734000", "114041.734000", "114041.734000", "114041.750000", "114041.750000", "114041.750000", "114041.750000", "114041.750000", "114041.750000", "114101.703000", "114101.703000", "114101.703000", "114101.703000", "114101.703000", "114101.718000", "114101.718000", "114101.718000", "114101.718000", "114101.718000", "114101.718000", "114101.718000", "114101.718000", "114101.734000", "114101.734000", "114101.734000", "114101.734000", "114101.734000", "114101.734000", "114101.734000", "114101.750000", "114101.750000", "114101.750000", "114101.750000", "114101.750000", "114121.703000", "114121.703000", "114121.703000", "114121.703000", "114121.703000", "114121.718000", "114121.718000", "114121.718000", "114121.718000", "114121.734000", "114121.734000", "114121.734000", "114121.734000", "114121.734000", "114121.750000", "114121.750000", "114121.750000", "114121.750000", "114121.750000", "114121.750000", "114121.750000", "114121.765000", "114121.765000", "114121.765000", "114121.765000", "114141.703000", "114141.703000", "114141.703000", "114141.703000", "114141.703000", "114141.718000", "114141.718000", "114141.718000", "114141.718000", "114141.718000", "114141.718000", "114141.718000", "114141.734000", "114141.734000", "114141.734000", "114141.734000", "114141.734000", "114141.734000", "114141.734000", "114141.734000", "114141.750000", "114141.750000", "114141.750000", "114141.750000", "114141.765000", "114141.765000", "114201.703000", "114201.703000", "114201.703000", "114201.703000", "114201.718000", "114201.718000", "114201.718000", "114201.718000", "114201.718000", "114201.718000", "114201.718000", "114201.718000", "114201.734000", "114201.734000", "114201.734000", "114201.734000", "114201.734000", "114201.734000", "114201.734000", "114201.750000", "114201.750000", "114201.750000", "114201.750000", "114201.750000", "114201.750000", "114221.703000", "114221.703000", "114221.703000", "114221.703000", "114221.703000", "114221.718000", "114221.718000", "114221.718000", "114221.718000", "114221.718000", "114221.718000", "114221.718000", "114221.718000", "114221.734000", "114221.734000", "114221.734000", "114221.734000", "114221.734000", "114221.734000", "114221.734000", "114221.750000", "114221.750000", "114221.750000", "114221.750000", "114221.750000", "114221.750000", "114241.703000", "114241.703000", "114241.703000", "114241.718000", "114241.718000", "114241.718000", "114241.718000", "114241.718000", "114241.718000", "114241.718000", "114241.718000", "114241.734000", "114241.734000", "114241.734000", "114241.734000", "114241.734000", "114241.734000", "114241.734000", "114241.750000", "114241.750000", "114241.750000", "114241.750000", "114241.750000", "114241.750000", "114241.750000", "114301.703000", "114301.703000", "114301.703000", "114301.703000", "114301.703000", "114301.718000", "114301.718000", "114301.718000", "114301.718000", "114301.718000", "114301.718000", "114301.718000", "114301.718000", "114301.734000", "114301.734000", "114301.734000", "114301.734000", "114301.734000", "114301.734000", "114301.734000", "114301.750000", "114301.750000", "114301.750000", "114301.750000", "114301.750000", "114301.750000", "114321.703000", "114321.703000", "114321.703000", "114321.703000", "114321.703000", "114321.718000", "114321.718000", "114321.718000", "114321.718000", "114321.718000", "114321.718000", "114321.718000", "114321.734000", "114321.734000", "114321.734000", "114321.734000", "114321.734000", "114321.734000", "114321.734000", "114321.734000", "114321.750000", "114321.750000", "114321.750000", "114321.750000", "114321.750000", "114341.703000", "114341.703000", "114341.703000", "114341.703000", "114341.703000", "114341.718000", "114341.718000", "114341.718000", "114341.718000", "114341.718000", "114341.718000", "114341.718000", "114341.718000", "114341.734000", "114341.734000", "114341.734000", "114341.734000", "114341.734000", "114341.734000", "114341.734000", "114341.750000", "114341.750000", "114341.750000", "114341.750000", "114341.750000", "114341.750000", "114401.703000", "114401.703000", "114401.703000", "114401.703000", "114401.703000", "114401.718000", "114401.718000", "114401.718000", "114401.718000", "114401.718000", "114401.718000", "114401.718000", "114401.718000", "114401.734000", "114401.734000", "114401.734000", "114401.734000", "114401.734000", "114401.734000", "114401.734000", "114401.750000", "114401.750000", "114401.750000", "114401.750000", "114401.750000", "114421.703000", "114421.703000", "114421.703000", "114421.703000", "114421.703000", "114421.718000", "114421.718000", "114421.718000", "114421.718000", "114421.718000", "114421.718000", "114421.718000", "114421.734000", "114421.734000", "114421.734000", "114421.734000", "114421.734000", "114421.734000", "114421.734000", "114421.734000", "114421.750000", "114421.750000", "114421.750000", "114421.750000", "114421.750000", "114421.750000", "114441.703000", "114441.703000", "114441.703000", "114441.703000", "114441.703000", "114441.718000", "114441.718000", "114441.718000", "114441.718000", "114441.718000", "114441.718000", "114441.718000", "114441.718000", "114441.734000", "114441.734000", "114441.734000", "114441.734000", "114441.734000", "114441.734000", "114441.734000", "114441.750000", "114441.750000", "114441.750000", "114441.750000", "114441.750000", "114501.703000", "114501.703000", "114501.703000", "114501.703000", "114501.703000", "114501.718000", "114501.718000", "114501.718000", "114501.718000", "114501.718000", "114501.718000", "114501.718000", "114501.734000", "114501.734000", "114501.734000", "114501.734000", "114501.734000", "114501.734000", "114501.734000", "114501.734000", "114501.750000", "114501.750000", "114501.750000", "114501.750000", "114501.750000", "114501.750000", "114521.703000", "114521.703000", "114521.703000", "114521.703000", "114521.703000", "114521.718000", "114521.718000", "114521.718000", "114521.718000", "114521.718000", "114521.718000", "114521.718000", "114521.734000", "114521.734000", "114521.734000", "114521.734000", "114521.734000", "114521.734000", "114521.734000", "114521.734000", "114521.750000", "114521.750000", "114521.750000", "114521.750000", "114521.750000", "114534.531000", "114534.546000", "114534.546000", "114534.546000", "114534.546000", "114534.546000", "114534.546000", "114534.546000", "114534.562000", "114534.562000", "114534.562000", "114534.562000", "114534.562000", "114534.562000", "114534.562000", "114534.562000", "114534.578000"],
