{
  "AcquisitionMatrixPE": 104,
  "AcquisitionNumber": 1,
  "AcquisitionTime": "11:51:36.707500",
  "BandwidthPerPixelPhaseEncode": 13.935,
  "BaseResolution": 104,
  "CoilString": "C:HEA;HEP",
  "ConversionSoftware": "dcm2niix",
  "ConversionSoftwareVersion": "v1.0.20210317",
  "DerivedVendorReportedEchoSpacing": 0.000690017,
  "DeviceSerialNumber": "35450",
  "DwellTime": 2.5e-06,
  "EchoTime": 0.0348,
  "EffectiveEchoSpacing": 0.000690017,
  "FlipAngle": 55,
  "ImageComments": "Unaliased MB8/PE3 (remote)",
  "ImageOrientationPatientDICOM": [0.999962, -0.000563132, -0.00870835, -1.16843e-08, 0.997916, -0.0645323],
  "ImageType": [
    "ORIGINAL",
    "PRIMARY",
    "M",
    "MB",
    "ND",
    "MOSAIC"
],
  "ImagingFrequency": 123.235,
  "InPlanePhaseEncodingDirectionDICOM": "COL",
  "InstitutionAddress": "Univeristy Ave. 197,Newark,North East,US,07102-1814",
  "InstitutionName": "RUBIC",
  "InstitutionalDepartmentName": "Department",
  "MRAcquisitionType": "2D",
  "MagneticFieldStrength": 3,
  "Manufacturer": "Siemens",
  "ManufacturersModelName": "TrioTim",
  "Modality": "MR",
  "MultibandAccelerationFactor": 8,
  "PartialFourier": 0.875,
  "PatientPosition": "HFS",
  "PercentPhaseFOV": 100,
  "PercentSampling": 100,
  "PhaseEncodingDirection": "j-",
  "PhaseEncodingSteps": 91,
  "PhaseResolution": 1,
  "PixelBandwidth": 1923,
  "ProcedureStepDescription": "Cole^Michael",
  "ProtocolName": "cmrr_mbep2d_bold_2mm_MB8_Task_8x",
  "PulseSequenceDetails": "%CustomerSeq%\\cmrr_mbep2d_bold",
  "ReceiveCoilName": "32Ch_Head",
  "ReconMatrixPE": 104,
  "RepetitionTime": 0.785,
  "SAR": 0.119698,
  "ScanOptions": "PFP\\FS",
  "ScanningSequence": "EP",
  "SequenceName": "epfid2d1_104",
  "SequenceVariant": "SK\\SS",
  "SeriesDescription": "cmrr_mbep2d_bold_2mm_MB8_Task_8x",
  "SeriesNumber": 19,
  "ShimSetting": [2106, -393, -7307, 618, -28, -7, 14, 84],
  "SliceThickness": 2,
  "SliceTiming": [0, 0.4375, 0.0875, 0.525, 0.175, 0.6125, 0.2625, 0.7, 0.35, 0, 0.4375, 0.0875, 0.525, 0.175, 0.6125, 0.2625, 0.7, 0.35, 0, 0.4375, 0.0875, 0.525, 0.175, 0.6125, 0.2625, 0.7, 0.35, 0, 0.4375, 0.0875, 0.525, 0.175, 0.6125, 0.2625, 0.7, 0.35, 0, 0.4375, 0.0875, 0.525, 0.175, 0.6125, 0.2625, 0.7, 0.35, 0, 0.4375, 0.0875, 0.525, 0.175, 0.6125, 0.2625, 0.7, 0.35, 0, 0.4375, 0.0875, 0.525, 0.175, 0.6125, 0.2625, 0.7, 0.35, 0, 0.4375, 0.0875, 0.525, 0.175, 0.6125, 0.2625, 0.7, 0.35],
  "SoftwareVersions": "syngo MR B19",
  "SpacingBetweenSlices": 2,
  "StationName": "MRC35450",
  "TaskName": "cpro",
  "TotalReadoutTime": 0.0710717,
  "TxRefAmp": 346.353,
  "dcmmeta_affine": [
    [-1.999923825263977, -2.3368540880142064e-08, -0.017453067004680634, 104.6156234741211],
    [0.0011262634070590138, 1.9958312511444092, -0.12905970215797424, -79.98506164550781],
    [-0.017416691407561302, 0.1290646195411682, 1.9957551956176758, -104.05133819580078],
    [0.0, 0.0, 0.0, 1.0]
],
  "dcmmeta_reorient_transform": [
    [0.0, -1.0, 0.0, 103.0],
    [1.0, 0.0, 0.0, 0.0],
    [0.0, 0.0, 1.0, 0.0],
    [0.0, 0.0, 0.0, 1.0]
],
  "dcmmeta_shape": [104, 104, 72, 581],
  "dcmmeta_slice_dim": 2,
  "dcmmeta_version": 0.6,
  "global": {
    "const": {
      "AcquisitionMatrix": [104, 0, 0, 104],
      "AngioFlag": "N",
      "BitsAllocated": 16,
      "BitsStored": 12,
      "Columns": 936,
      "EchoNumbers": 1,
      "EchoTime": 34.8,
      "EchoTrainLength": 1,
      "FlipAngle": 55.0,
      "HighBit": 11,
      "ImageOrientationPatient": [0.99996192307697, -0.0005631317143, -0.0087083453584, -1.168427e-08, 0.99791561834852, -0.0645323070724],
      "ImagePositionPatient": [-936.58393308752, -955.38282646114, -29.821459407812],
      "ImageType": [
        "ORIGINAL",
        "PRIMARY",
        "M",
        "MB",
        "ND",
        "MOSAIC"
],
      "ImagedNucleus": "1H",
      "ImagingFrequency": 123.234513,
      "InPlanePhaseEncodingDirection": "COL",
      "MRAcquisitionType": "2D",
      "MagneticFieldStrength": 3.0,
      "Manufacturer": "SIEMENS",
      "ManufacturerModelName": "TrioTim",
      "Modality": "MR",
      "NumberOfAverages": 1.0,
      "NumberOfPhaseEncodingSteps": 91,
      "PercentPhaseFieldOfView": 100.0,
      "PercentSampling": 100.0,
      "PerformedProcedureStepStartTime": "102451.109000",
      "PhotometricInterpretation": "MONOCHROME2",
      "PixelBandwidth": 1923.0,
      "PixelRepresentation": 0,
      "PixelSpacing": [2.0, 2.0],
      "ProtocolName": "cmrr_mbep2d_bold_2mm_MB8_Task_8x",
      "RepetitionTime": 785.0,
      "Rows": 936,
      "SAR": 0.11969770658937,
      "SamplesPerPixel": 1,
      "ScanOptions": [
        "PFP",
        "FS"
],
      "ScanningSequence": "EP",
      "SequenceName": "epfid2d1_104",
      "SequenceVariant": [
        "SK",
        "SS"
],
      "SeriesDescription": "cmrr_mbep2d_bold_2mm_MB8_Task_8x",
      "SeriesNumber": 19,
      "SeriesTime": "115157.906000",
      "SliceLocation": -99.582008995307,
      "SliceThickness": 2.0,
      "SmallestImagePixelValue": 0,
      "SoftwareVersions": "syngo MR B19",
      "SpacingBetweenSlices": 1.9999999674173,
      "SpecificCharacterSet": "ISO_IR 100",
      "StudyID": "1",
      "StudyTime": "102451.062000",
      "TransmitCoilName": "Body",
      "VariableFlipAngleFlag": "N",
      "WindowCenterWidthExplanation": "Algo1",
      "dBdt": 0.0},
    "slices": {}
  },
  "time": {
    "samples": {
      "AcquisitionNumber": [1, 2, 3, 4, 5, 6, 7, 8, 9, 10, 11, 12, 13, 14, 15, 16, 17, 18, 19, 20, 21, 22, 23, 24, 25, 26, 27, 28, 29, 30, 31, 32, 33, 34, 35, 36, 37, 38, 39, 40, 41, 42, 43, 44, 45, 46, 47, 48, 49, 50, 51, 52, 53, 54, 55, 56, 57, 58, 59, 60, 61, 62, 63, 64, 65, 66, 67, 68, 69, 70, 71, 72, 73, 74, 75, 76, 77, 78, 79, 80, 81, 82, 83, 84, 85, 86, 87, 88, 89, 90, 91, 92, 93, 94, 95, 96, 97, 98, 99, 100, 101, 102, 103, 104, 105, 106, 107, 108, 109, 110, 111, 112, 113, 114, 115, 116, 117, 118, 119, 120, 121, 122, 123, 124, 125, 126, 127, 128, 129, 130, 131, 132, 133, 134, 135, 136, 137, 138, 139, 140, 141, 142, 143, 144, 145, 146, 147, 148, 149, 150, 151, 152, 153, 154, 155, 156, 157, 158, 159, 160, 161, 162, 163, 164, 165, 166, 167, 168, 169, 170, 171, 172, 173, 174, 175, 176, 177, 178, 179, 180, 181, 182, 183, 184, 185, 186, 187, 188, 189, 190, 191, 192, 193, 194, 195, 196, 197, 198, 199, 200, 201, 202, 203, 204, 205, 206, 207, 208, 209, 210, 211, 212, 213, 214, 215, 216, 217, 218, 219, 220, 221, 222, 223, 224, 225, 226, 227, 228, 229, 230, 231, 232, 233, 234, 235, 236, 237, 238, 239, 240, 241, 242, 243, 244, 245, 246, 247, 248, 249, 250, 251, 252, 253, 254, 255, 256, 257, 258, 259, 260, 261, 262, 263, 264, 265, 266, 267, 268, 269, 270, 271, 272, 273, 274, 275, 276, 277, 278, 279, 280, 281, 282, 283, 284, 285, 286, 287, 288, 289, 290, 291, 292, 293, 294, 295, 296, 297, 298, 299, 300, 301, 302, 303, 304, 305, 306, 307, 308, 309, 310, 311, 312, 313, 314, 315, 316, 317, 318, 319, 320, 321, 322, 323, 324, 325, 326, 327, 328, 329, 330, 331, 332, 333, 334, 335, 336, 337, 338, 339, 340, 341, 342, 343, 344, 345, 346, 347, 348, 349, 350, 351, 352, 353, 354, 355, 356, 357, 358, 359, 360, 361, 362, 363, 364, 365, 366, 367, 368, 369, 370, 371, 372, 373, 374, 375, 376, 377, 378, 379, 380, 381, 382, 383, 384, 385, 386, 387, 388, 389, 390, 391, 392, 393, 394, 395, 396, 397, 398, 399, 400, 401, 402, 403, 404, 405, 406, 407, 408, 409, 410, 411, 412, 413, 414, 415, 416, 417, 418, 419, 420, 421, 422, 423, 424, 425, 426, 427, 428, 429, 430, 431, 432, 433, 434, 435, 436, 437, 438, 439, 440, 441, 442, 443, 444, 445, 446, 447, 448, 449, 450, 451, 452, 453, 454, 455, 456, 457, 458, 459, 460, 461, 462, 463, 464, 465, 466, 467, 468, 469, 470, 471, 472, 473, 474, 475, 476, 477, 478, 479, 480, 481, 482, 483, 484, 485, 486, 487, 488, 489, 490, 491, 492, 493, 494, 495, 496, 497, 498, 499, 500, 501, 502, 503, 504, 505, 506, 507, 508, 509, 510, 511, 512, 513, 514, 515, 516, 517, 518, 519, 520, 521, 522, 523, 524, 525, 526, 527, 528, 529, 530, 531, 532, 533, 534, 535, 536, 537, 538, 539, 540, 541, 542, 543, 544, 545, 546, 547, 548, 549, 550, 551, 552, 553, 554, 555, 556, 557, 558, 559, 560, 561, 562, 563, 564, 565, 566, 567, 568, 569, 570, 571, 572, 573, 574, 575, 576, 577, 578, 579, 580, 581],
      "AcquisitionTime": ["115136.707500", "115137.495000", "115138.282500", "115139.070000", "115139.860000", "115140.647500", "115141.435000", "115142.222500", "115143.012500", "115143.800000", "115144.587500", "115145.377500", "115146.165000", "115146.952500", "115147.740000", "115148.530000", "115149.317500", "115150.105000", "115150.892500", "115151.682500", "115152.470000", "115153.257500", "115154.045000", "115154.835000", "115155.622500", "115156.410000", "115157.197500", "115157.987500", "115158.775000", "115159.562500", "115200.350000", "115201.140000", "115201.927500", "115202.715000", "115203.505000", "115204.292500", "115205.080000", "115205.867500", "115206.657500", "115207.445000", "115208.232500", "115209.020000", "115209.810000", "115210.597500", "115211.385000", "115212.172500", "115212.962500", "115213.750000", "115214.537500", "115215.325000", "115216.115000", "115216.902500", "115217.690000", "115218.477500", "115219.267500", "115220.055000", "115220.842500", "115221.632500", "115222.420000", "115223.207500", "115223.995000", "115224.785000", "115225.572500", "115226.360000", "115227.147500", "115227.937500", "115228.725000", "115229.512500", "115230.300000", "115231.090000", "115231.877500", "115232.665000", "115233.452500", "115234.242500", "115235.030000", "115235.817500", "115236.605000", "115237.395000", "115238.182500", "115238.970000", "115239.760000", "115240.547500", "115241.335000", "115242.122500", "115242.912500", "115243.700000", "115244.487500", "115245.275000", "115246.065000", "115246.852500", "115247.640000", "115248.427500", "115249.217500", "115250.005000", "115250.792500", "115251.580000", "115252.370000", "115253.157500", "115253.945000", "115254.735000", "115255.522500", "115256.310000", "115257.097500", "115257.887500", "115258.675000", "115259.462500", "115300.250000", "115301.040000", "115301.827500", "115302.615000", "115303.402500", "115304.192500", "115304.980000", "115305.767500", "115306.555000", "115307.345000", "115308.132500", "115308.920000", "115309.707500", "115310.497500", "115311.285000", "115312.072500", "115312.862500", "115313.650000", "115314.437500", "115315.225000", "115316.015000", "115316.802500", "115317.590000", "115318.377500", "115319.167500", "115319.955000", "115320.742500", "115321.530000", "115322.320000", "115323.107500", "115323.895000", "115324.682500", "115325.472500", "115326.260000", "115327.047500", "115327.835000", "115328.625000", "115329.412500", "115330.200000", "115330.990000", "115331.777500", "115332.565000", "115333.352500", "115334.142500", "115334.930000", "115335.717500", "115336.505000", "115337.295000", "115338.082500", "115338.870000", "115339.657500", "115340.447500", "115341.235000", "115342.022500", "115342.810000", "115343.600000", "115344.387500", "115345.175000", "115345.962500", "115346.752500", "115347.540000", "115348.327500", "115349.117500", "115349.905000", "115350.692500", "115351.480000", "115352.270000", "115353.057500", "115353.845000", "115354.632500", "115355.422500", "115356.210000", "115356.997500", "115357.785000", "115358.575000", "115359.362500", "115400.150000", "115400.937500", "115401.727500", "115402.515000", "115403.302500", "115404.090000", "115404.880000", "115405.667500", "115406.455000", "115407.245000", "115408.032500", "115408.820000", "115409.607500", "115410.397500", "115411.185000", "115411.972500", "115412.760000", "115413.550000", "115414.337500", "115415.125000", "115415.912500", "115416.702500", "115417.490000", "115418.277500", "115419.065000", "115419.855000", "115420.642500", "115421.430000", "115422.217500", "115423.007500", "115423.795000", "115424.582500", "115425.372500", "115426.160000", "115426.947500", "115427.735000", "115428.525000", "115429.312500", "115430.100000", "115430.887500", "115431.677500", "115432.465000", "115433.252500", "115434.040000", "115434.830000", "115435.617500", "115436.405000", "115437.192500", "115437.982500", "115438.770000", "115439.557500", "115440.345000", "115441.135000", "115441.922500", "115442.710000", "115443.500000", "115444.287500", "115445.075000", "115445.862500", "115446.652500", "115447.440000", "115448.227500", "115449.015000", "115449.805000", "115450.592500", "115451.380000", "115452.167500", "115452.957500", "115453.745000", "115454.532500", "115455.320000", "115456.110000", "115456.897500", "115457.685000", "115458.472500", "115459.262500", "115500.050000", "115500.837500", "115501.627500", "115502.415000", "115503.202500", "115503.990000", "115504.780000", "115505.567500", "115506.355000", "115507.142500", "115507.932500", "115508.720000", "115509.507500", "115510.295000", "115511.085000", "115511.872500", "115512.660000", "115513.447500", "115514.237500", "115515.025000", "115515.812500", "115516.600000", "115517.390000", "115518.177500", "115518.965000", "115519.755000", "115520.542500", "115521.330000", "115522.117500", "115522.907500", "115523.695000", "115524.482500", "115525.270000", "115526.060000", "115526.847500", "115527.635000", "115528.422500", "115529.212500", "115530.000000", "115530.787500", "115531.575000", "115532.365000", "115533.152500", "115533.940000", "115534.727500", "115535.517500", "115536.305000", "115537.092500", "115537.882500", "115538.670000", "115539.457500", "115540.245000", "115541.035000", "115541.822500", "115542.610000", "115543.397500", "115544.187500", "115544.975000", "115545.762500", "115546.550000", "115547.340000", "115548.127500", "115548.915000", "115549.702500", "115550.492500", "115551.280000", "115552.067500", "115552.855000", "115553.645000", "115554.432500", "115555.220000", "115556.010000", "115556.797500", "115557.585000", "115558.372500", "115559.162500", "115559.950000", "115600.737500", "115601.525000", "115602.315000", "115603.102500", "115603.890000", "115604.677500", "115605.467500", "115606.255000", "115607.042500", "115607.830000", "115608.620000", "115609.407500", "115610.195000", "115610.985000", "115611.772500", "115612.560000", "115613.347500", "115614.137500", "115614.925000", "115615.712500", "115616.500000", "115617.290000", "115618.077500", "115618.865000", "115619.652500", "115620.442500", "115621.230000", "115622.017500", "115622.805000", "115623.595000", "115624.382500", "115625.170000", "115625.957500", "115626.747500", "115627.535000", "115628.322500", "115629.112500", "115629.900000", "115630.687500", "115631.475000", "115632.265000", "115633.052500", "115633.840000", "115634.627500", "115635.417500", "115636.205000", "115636.992500", "115637.780000", "115638.570000", "115639.357500", "115640.145000", "115640.932500", "115641.722500", "115642.510000", "115643.297500", "115644.085000", "115644.875000", "115645.662500", "115646.450000", "115647.240000", "115648.027500", "115648.815000", "115649.602500", "115650.392500", "115651.180000", "115651.967500", "115652.755000", "115653.545000", "115654.332500", "115655.120000", "115655.907500", "115656.697500", "115657.485000", "115658.272500", "115659.060000", "115659.850000", "115700.637500", "115701.425000", "115702.212500", "115703.002500", "115703.790000", "115704.577500", "115705.367500", "115706.155000", "115706.942500", "115707.730000", "115708.520000", "115709.307500", "115710.095000", "115710.882500", "115711.672500", "115712.460000", "115713.247500", "115714.035000", "115714.825000", "115715.612500", "115716.400000", "115717.187500", "115717.977500", "115718.765000", "115719.552500", "115720.340000", "115721.130000", "115721.917500", "115722.705000", "115723.495000", "115724.282500", "115725.070000", "115725.857500", "115726.647500", "115727.435000", "115728.222500", "115729.010000", "115729.800000", "115730.587500", "115731.375000", "115732.162500", "115732.952500", "115733.740000", "115734.527500", "115735.315000", "115736.105000", "115736.892500", "115737.680000", "115738.467500", "115739.257500", "115740.045000", "115740.832500", "115741.622500", "115742.410000", "115743.197500", "115743.985000", "115744.775000", "115745.562500", "115746.350000", "115747.137500", "115747.927500", "115748.715000", "115749.502500", "115750.290000", "115751.080000", "115751.867500", "115752.655000", "115753.442500", "115754.232500", "115755.020000", "115755.807500", "115756.595000", "115757.385000", "115758.172500", "115758.960000", "115759.750000", "115800.537500", "115801.325000", "115802.112500", "115802.902500", "115803.690000", "115804.477500", "115805.265000", "115806.055000", "115806.842500", "115807.630000", "115808.417500", "115809.207500", "115809.995000", "115810.782500", "115811.570000", "115812.360000", "115813.147500", "115813.935000", "115814.722500", "115815.512500", "115816.300000", "115817.087500", "115817.877500", "115818.665000", "115819.452500", "115820.240000", "115821.030000", "115821.817500", "115822.605000", "115823.392500", "115824.182500", "115824.970000", "115825.757500", "115826.545000", "115827.335000", "115828.122500", "115828.910000", "115829.697500", "115830.487500", "115831.275000", "115832.062500", "115832.850000", "115833.640000", "115834.427500", "115835.215000", "115836.005000", "115836.792500", "115837.580000", "115838.367500", "115839.157500", "115839.945000", "115840.732500", "115841.520000", "115842.310000", "115843.097500", "115843.885000", "115844.672500", "115845.462500", "115846.250000", "115847.037500", "115847.825000", "115848.615000", "115849.402500", "115850.190000", "115850.977500", "115851.767500", "115852.555000", "115853.342500", "115854.132500", "115854.920000", "115855.707500", "115856.495000", "115857.285000", "115858.072500", "115858.860000", "115859.647500", "115900.437500", "115901.225000", "115902.012500", "115902.800000", "115903.590000", "115904.377500", "115905.165000", "115905.952500", "115906.742500", "115907.530000", "115908.317500", "115909.105000", "115909.895000", "115910.682500", "115911.470000", "115912.260000", "115913.047500", "115913.835000"],
      "ContentTime": ["115157.921000", "115157.921000", "115157.921000", "115157.921000", "115157.921000", "115157.921000", "115157.921000", "115157.921000", "115157.937000", "115157.937000", "115157.937000", "115157.937000", "115157.937000", "115157.937000", "115157.937000", "115157.937000", "115157.953000", "115157.953000", "115157.953000", "115157.953000", "115157.953000", "115157.953000", "115157.953000", "115157.968000", "115217.890000", "115217.890000", "115217.890000", "115217.890000", "115217.890000", "115217.906000", "115217.906000", "115217.906000", "115217.906000", "115217.906000", "115217.906000", "115217.906000", "115217.906000", "115217.921000", "115217.921000", "115217.921000", "115217.921000", "115217.921000", "115217.921000", "115217.921000", "115217.921000", "115217.937000", "115217.937000", "115217.937000", "115217.937000", "115217.937000", "115237.890000", "115237.890000", "115237.890000", "115237.890000", "115237.890000", "115237.906000", "115237.906000", "115237.906000", "115237.906000", "115237.906000", "115237.906000", "115237.906000", "115237.906000", "115237.921000", "115237.921000", "115237.921000", "115237.921000", "115237.921000", "115237.921000", "115237.921000", "115237.937000", "115237.937000", "115237.937000", "115237.937000", "115237.937000", "115257.890000", "115257.890000", "115257.890000", "115257.890000", "115257.890000", "115257.906000", "115257.906000", "115257.906000", "115257.906000", "115257.906000", "115257.906000", "115257.906000", "115257.906000", "115257.921000", "115257.921000", "115257.921000", "115257.921000", "115257.921000", "115257.921000", "115257.921000", "115257.921000", "115257.937000", "115257.937000", "115257.937000", "115257.937000", "115257.937000", "115317.890000", "115317.890000", "115317.890000", "115317.890000", "115317.890000", "115317.906000", "115317.906000", "115317.906000", "115317.906000", "115317.906000", "115317.906000", "115317.906000", "115317.921000", "115317.921000", "115317.921000", "115317.921000", "115317.921000", "115317.921000", "115317.921000", "115317.937000", "115317.937000", "115317.937000", "115317.937000", "115317.937000", "115317.937000", "115337.890000", "115337.890000", "115337.890000", "115337.890000", "115337.890000", "115337.906000", "115337.906000", "115337.906000", "115337.906000", "115337.906000", "115337.906000", "115337.906000", "115337.906000", "115337.921000", "115337.921000", "115337.921000", "115337.921000", "115337.921000", "115337.921000", "115337.921000", "115337.937000", "115337.937000", "115337.937000", "115337.937000", "115337.937000", "115337.937000", "115357.890000", "115357.890000", "115357.890000", "115357.890000", "115357.890000", "115357.906000", "115357.906000", "115357.906000", "115357.906000", "115357.906000", "115357.906000", "115357.906000", "115357.906000", "115357.921000", "115357.921000", "115357.921000", "115357.921000", "115357.921000", "115357.921000", "115357.921000", "115357.921000", "115357.937000", "115357.937000", "115357.937000", "115357.937000", "115417.890000", "115417.890000", "115417.890000", "115417.890000", "115417.890000", "115417.906000", "115417.906000", "115417.906000", "115417.906000", "115417.906000", "115417.906000", "115417.906000", "115417.906000", "115417.921000", "115417.921000", "115417.921000", "115417.921000", "115417.921000", "115417.921000", "115417.921000", "115417.921000", "115417.937000", "115417.937000", "115417.937000", "115417.937000", "115417.937000", "115437.890000", "115437.890000", "115437.890000", "115437.890000", "115437.890000", "115437.906000", "115437.906000", "115437.906000", "115437.906000", "115437.906000", "115437.906000", "115437.906000", "115437.906000", "115437.921000", "115437.921000", "115437.921000", "115437.921000", "115437.921000", "115437.921000", "115437.921000", "115437.921000", "115437.937000", "115437.937000", "115437.937000", "115437.937000", "115457.890000", "115457.890000", "115457.890000", "115457.890000", "115457.890000", "115457.906000", "115457.906000", "115457.906000", "115457.906000", "115457.906000", "115457.906000", "115457.906000", "115457.906000", "115457.921000", "115457.921000", "115457.921000", "115457.921000", "115457.921000", "115457.921000", "115457.921000", "115457.937000", "115457.937000", "115457.937000", "115457.937000", "115457.937000", "115457.937000", "115517.890000", "115517.890000", "115517.890000", "115517.890000", "115517.890000", "115517.906000", "115517.906000", "115517.906000", "115517.906000", "115517.906000", "115517.906000", "115517.906000", "115517.906000", "115517.921000", "115517.921000", "115517.921000", "115517.921000", "115517.921000", "115517.921000", "115517.921000", "115517.937000", "115517.937000", "115517.937000", "115517.937000", "115517.937000", "115537.890000", "115537.890000", "115537.890000", "115537.890000", "115537.890000", "115537.906000", "115537.906000", "115537.906000", "115537.906000", "115537.906000", "115537.906000", "115537.906000", "115537.906000", "115537.921000", "115537.921000", "115537.921000", "115537.921000", "115537.921000", "115537.921000", "115537.921000", "115537.937000", "115537.937000", "115537.937000", "115537.937000", "115537.937000", "115537.937000", "115557.890000", "115557.890000", "115557.890000", "115557.890000", "115557.890000", "115557.906000", "115557.906000", "115557.906000", "115557.906000", "115557.906000", "115557.906000", "115557.906000", "115557.906000", "115557.921000", "115557.921000", "115557.921000", "115557.921000", "115557.921000", "115557.921000", "115557.921000", "115557.921000", "115557.937000", "115557.937000", "115557.937000", "115557.937000", "115617.890000", "115617.890000", "115617.890000", "115617.890000", "115617.890000", "115617.906000", "115617.906000", "115617.906000", "115617.906000", "115617.906000", "115617.906000", "115617.906000", "115617.906000", "115617.921000", "115617.921000", "115617.921000", "115617.921000", "115617.921000", "115617.921000", "115617.921000", "115617.937000", "115617.937000", "115617.937000", "115617.937000", "115617.937000", "115617.937000", "115637.890000", "115637.890000", "115637.890000", "115637.890000", "115637.890000", "115637.906000", "115637.906000", "115637.906000", "115637.906000", "115637.906000", "115637.906000", "115637.906000", "115637.906000", "115637.921000", "115637.921000", "115637.921000", "115637.921000", "115637.921000", "115637.921000", "115637.921000", "115637.937000", "115637.937000", "115637.937000", "115637.937000", "115637.937000", "115657.890000", "115657.890000", "115657.890000", "115657.890000", "115657.890000", "115657.906000", "115657.906000", "115657.906000", "115657.906000", "115657.906000", "115657.906000", "115657.906000", "115657.921000", "115657.921000", "115657.921000", "115657.921000", "115657.921000", "115657.921000", "115657.921000", "115657.921000", "115657.937000", "115657.937000", "115657.937000", "115657.937000", "115657.937000", "115657.937000", "115717.890000", "115717.890000", "115717.890000", "115717.890000", "115717.890000", "115717.906000", "115717.906000", "115717.906000", "115717.906000", "115717.906000", "115717.906000", "115717.906000", "115717.906000", "115717.921000", "115717.921000", "115717.921000", "115717.921000", "115717.921000", "115717.921000", "115717.921000", "115717.937000", "115717.937000", "115717.937000", "115717.937000", "115717.937000", "115737.890000", "115737.890000", "115737.890000", "115737.890000", "115737.890000", "115737.906000", "115737.906000", "115737.906000", "115737.906000", "115737.906000", "115737.906000", "115737.906000", "115737.906000", "115737.921000", "115737.921000", "115737.921000", "115737.921000", "115737.921000", "115737.921000", "115737.921000", "115737.937000", "115737.937000", "115737.937000", "115737.937000", "115737.937000", "115737.937000", "115757.890000", "115757.890000", "115757.890000", "115757.890000", "115757.890000", "115757.906000", "115757.906000", "115757.906000", "115757.906000", "115757.906000", "115757.906000", "115757.906000", "115757.921000", "115757.921000", "115757.921000", "115757.921000", "115757.921000", "115757.921000", "115757.921000", "115757.921000", "115757.937000", "115757.937000", "115757.937000", "115757.937000", "115757.937000", "115817.890000", "115817.890000", "115817.890000", "115817.890000", "115817.890000", "115817.906000", "115817.906000", "115817.906000", "115817.906000", "115817.906000", "115817.906000", "115817.906000", "115817.906000", "115817.921000", "115817.921000", "115817.921000", "115817.921000", "115817.921000", "115817.921000", "115817.921000", "115817.921000", "115817.937000", "115817.937000", "115817.937000", "115817.937000", "115817.937000", "115837.890000", "115837.890000", "115837.890000", "115837.890000", "115837.890000", "115837.906000", "115837.906000", "115837.906000", "115837.906000", "115837.906000", "115837.906000", "115837.906000", "115837.906000", "115837.921000", "115837.921000", "115837.921000", "115837.921000", "115837.921000", "115837.921000", "115837.921000", "115837.937000", "115837.937000", "115837.937000", "115837.937000", "115837.937000", "115857.890000", "115857.890000", "115857.890000", "115857.890000", "115857.890000", "115857.906000", "115857.906000", "115857.906000", "115857.906000", "115857.906000", "115857.906000", "115857.906000", "115857.906000", "115857.921000", "115857.921000", "115857.921000", "115857.921000", "115857.921000", "115857.921000", "115857.921000", "115857.937000", "115857.937000", "115857.937000", "115857.937000", "115857.937000", "115857.937000", "115914.390000", "115914.390000", "115914.390000", "115914.390000", "115914.406000", "115914.406000", "115914.406000", "115914.406000", "115914.406000", "115914.406000", "115914.421000", "115914.421000", "115914.421000", "115914.421000", "115914.421000", "115914.421000", "115914.421000", "115914.437000", "115914.437000", "115914.437000", "115914.437000"],
