{
  "AcquisitionMatrixPE": 104,
  "AcquisitionNumber": 1,
  "AcquisitionTime": "12:16:6.725000",
  "BandwidthPerPixelPhaseEncode": 13.935,
  "BaseResolution": 104,
  "CoilString": "C:HEA;HEP",
  "ConversionSoftware": "dcm2niix",
  "ConversionSoftwareVersion": "v1.0.20210317",
  "DerivedVendorReportedEchoSpacing": 0.000690017,
  "DeviceSerialNumber": "35450",
  "DwellTime": 2.5e-06,
  "EchoTime": 0.0348,
  "EffectiveEchoSpacing": 0.000690017,
  "FlipAngle": 55,
  "ImageComments": "Unaliased MB8/PE3 (remote)",
  "ImageOrientationPatientDICOM": [0.999962, -0.000563132, -0.00870835, -1.16843e-08, 0.997916, -0.0645323],
  "ImageType": [
    "ORIGINAL",
    "PRIMARY",
    "M",
    "MB",
    "ND",
    "MOSAIC"
],
  "ImagingFrequency": 123.235,
  "InPlanePhaseEncodingDirectionDICOM": "COL",
  "InstitutionAddress": "Univeristy Ave. 197,Newark,North East,US,07102-1814",
  "InstitutionName": "RUBIC",
  "InstitutionalDepartmentName": "Department",
  "MRAcquisitionType": "2D",
  "MagneticFieldStrength": 3,
  "Manufacturer": "Siemens",
  "ManufacturersModelName": "TrioTim",
  "Modality": "MR",
  "MultibandAccelerationFactor": 8,
  "PartialFourier": 0.875,
  "PatientPosition": "HFS",
  "PercentPhaseFOV": 100,
  "PercentSampling": 100,
  "PhaseEncodingDirection": "j-",
  "PhaseEncodingSteps": 91,
  "PhaseResolution": 1,
  "PixelBandwidth": 1923,
  "ProcedureStepDescription": "Cole^Michael",
  "ProtocolName": "cmrr_mbep2d_bold_2mm_MB8_Task_8x",
  "PulseSequenceDetails": "%CustomerSeq%\\cmrr_mbep2d_bold",
  "ReceiveCoilName": "32Ch_Head",
  "ReconMatrixPE": 104,
  "RepetitionTime": 0.785,
  "SAR": 0.119698,
  "ScanOptions": "PFP\\FS",
  "ScanningSequence": "EP",
  "SequenceName": "epfid2d1_104",
  "SequenceVariant": "SK\\SS",
  "SeriesDescription": "cmrr_mbep2d_bold_2mm_MB8_Task_8x",
  "SeriesNumber": 25,
  "ShimSetting": [2106, -393, -7307, 618, -28, -7, 14, 84],
  "SliceThickness": 2,
  "SliceTiming": [0, 0.4375, 0.0875, 0.525, 0.175, 0.6125, 0.2625, 0.7, 0.35, 0, 0.4375, 0.0875, 0.525, 0.175, 0.6125, 0.2625, 0.7, 0.35, 0, 0.4375, 0.0875, 0.525, 0.175, 0.6125, 0.2625, 0.7, 0.35, 0, 0.4375, 0.0875, 0.525, 0.175, 0.6125, 0.2625, 0.7, 0.35, 0, 0.4375, 0.0875, 0.525, 0.175, 0.6125, 0.2625, 0.7, 0.35, 0, 0.4375, 0.0875, 0.525, 0.175, 0.6125, 0.2625, 0.7, 0.35, 0, 0.4375, 0.0875, 0.525, 0.175, 0.6125, 0.2625, 0.7, 0.35, 0, 0.4375, 0.0875, 0.525, 0.175, 0.6125, 0.2625, 0.7, 0.35],
  "SoftwareVersions": "syngo MR B19",
  "SpacingBetweenSlices": 2,
  "StationName": "MRC35450",
  "TaskName": "cpro",
  "TotalReadoutTime": 0.0710717,
  "TxRefAmp": 346.353,
  "dcmmeta_affine": [
    [-1.999923825263977, -2.3368540880142064e-08, -0.017453067004680634, 104.6156234741211],
    [0.0011262634070590138, 1.9958312511444092, -0.12905970215797424, -79.98506164550781],
    [-0.017416691407561302, 0.1290646195411682, 1.9957551956176758, -104.05133819580078],
    [0.0, 0.0, 0.0, 1.0]
],
  "dcmmeta_reorient_transform": [
    [0.0, -1.0, 0.0, 103.0],
    [1.0, 0.0, 0.0, 0.0],
    [0.0, 0.0, 1.0, 0.0],
    [0.0, 0.0, 0.0, 1.0]
],
  "dcmmeta_shape": [104, 104, 72, 581],
  "dcmmeta_slice_dim": 2,
  "dcmmeta_version": 0.6,
  "global": {
    "const": {
      "AcquisitionMatrix": [104, 0, 0, 104],
      "AngioFlag": "N",
      "BitsAllocated": 16,
      "BitsStored": 12,
      "Columns": 936,
      "EchoNumbers": 1,
      "EchoTime": 34.8,
      "EchoTrainLength": 1,
      "FlipAngle": 55.0,
      "HighBit": 11,
      "ImageOrientationPatient": [0.99996192307697, -0.0005631317143, -0.0087083453584, -1.168427e-08, 0.99791561834852, -0.0645323070724],
      "ImagePositionPatient": [-936.58393308752, -955.38282646114, -29.821459407812],
      "ImageType": [
        "ORIGINAL",
        "PRIMARY",
        "M",
        "MB",
        "ND",
        "MOSAIC"
],
      "ImagedNucleus": "1H",
      "ImagingFrequency": 123.234513,
      "InPlanePhaseEncodingDirection": "COL",
      "MRAcquisitionType": "2D",
      "MagneticFieldStrength": 3.0,
      "Manufacturer": "SIEMENS",
      "ManufacturerModelName": "TrioTim",
      "Modality": "MR",
      "NumberOfAverages": 1.0,
      "NumberOfPhaseEncodingSteps": 91,
      "PercentPhaseFieldOfView": 100.0,
      "PercentSampling": 100.0,
      "PerformedProcedureStepStartTime": "102451.109000",
      "PhotometricInterpretation": "MONOCHROME2",
      "PixelBandwidth": 1923.0,
      "PixelRepresentation": 0,
      "PixelSpacing": [2.0, 2.0],
      "ProtocolName": "cmrr_mbep2d_bold_2mm_MB8_Task_8x",
      "RepetitionTime": 785.0,
      "Rows": 936,
      "SAR": 0.11969770658937,
      "SamplesPerPixel": 1,
      "ScanOptions": [
        "PFP",
        "FS"
],
      "ScanningSequence": "EP",
      "SequenceName": "epfid2d1_104",
      "SequenceVariant": [
        "SK",
        "SS"
],
      "SeriesDescription": "cmrr_mbep2d_bold_2mm_MB8_Task_8x",
      "SeriesNumber": 25,
      "SeriesTime": "121637.906000",
      "SliceLocation": -99.582008995307,
      "SliceThickness": 2.0,
      "SmallestImagePixelValue": 0,
      "SoftwareVersions": "syngo MR B19",
      "SpacingBetweenSlices": 1.9999999674173,
      "SpecificCharacterSet": "ISO_IR 100",
      "StudyID": "1",
      "StudyTime": "102451.062000",
      "TransmitCoilName": "Body",
      "VariableFlipAngleFlag": "N",
      "WindowCenterWidthExplanation": "Algo1",
      "dBdt": 0.0},
    "slices": {}
  },
  "time": {
    "samples": {
      "AcquisitionNumber": [1, 2, 3, 4, 5, 6, 7, 8, 9, 10, 11, 12, 13, 14, 15, 16, 17, 18, 19, 20, 21, 22, 23, 24, 25, 26, 27, 28, 29, 30, 31, 32, 33, 34, 35, 36, 37, 38, 39, 40, 41, 42, 43, 44, 45, 46, 47, 48, 49, 50, 51, 52, 53, 54, 55, 56, 57, 58, 59, 60, 61, 62, 63, 64, 65, 66, 67, 68, 69, 70, 71, 72, 73, 74, 75, 76, 77, 78, 79, 80, 81, 82, 83, 84, 85, 86, 87, 88, 89, 90, 91, 92, 93, 94, 95, 96, 97, 98, 99, 100, 101, 102, 103, 104, 105, 106, 107, 108, 109, 110, 111, 112, 113, 114, 115, 116, 117, 118, 119, 120, 121, 122, 123, 124, 125, 126, 127, 128, 129, 130, 131, 132, 133, 134, 135, 136, 137, 138, 139, 140, 141, 142, 143, 144, 145, 146, 147, 148, 149, 150, 151, 152, 153, 154, 155, 156, 157, 158, 159, 160, 161, 162, 163, 164, 165, 166, 167, 168, 169, 170, 171, 172, 173, 174, 175, 176, 177, 178, 179, 180, 181, 182, 183, 184, 185, 186, 187, 188, 189, 190, 191, 192, 193, 194, 195, 196, 197, 198, 199, 200, 201, 202, 203, 204, 205, 206, 207, 208, 209, 210, 211, 212, 213, 214, 215, 216, 217, 218, 219, 220, 221, 222, 223, 224, 225, 226, 227, 228, 229, 230, 231, 232, 233, 234, 235, 236, 237, 238, 239, 240, 241, 242, 243, 244, 245, 246, 247, 248, 249, 250, 251, 252, 253, 254, 255, 256, 257, 258, 259, 260, 261, 262, 263, 264, 265, 266, 267, 268, 269, 270, 271, 272, 273, 274, 275, 276, 277, 278, 279, 280, 281, 282, 283, 284, 285, 286, 287, 288, 289, 290, 291, 292, 293, 294, 295, 296, 297, 298, 299, 300, 301, 302, 303, 304, 305, 306, 307, 308, 309, 310, 311, 312, 313, 314, 315, 316, 317, 318, 319, 320, 321, 322, 323, 324, 325, 326, 327, 328, 329, 330, 331, 332, 333, 334, 335, 336, 337, 338, 339, 340, 341, 342, 343, 344, 345, 346, 347, 348, 349, 350, 351, 352, 353, 354, 355, 356, 357, 358, 359, 360, 361, 362, 363, 364, 365, 366, 367, 368, 369, 370, 371, 372, 373, 374, 375, 376, 377, 378, 379, 380, 381, 382, 383, 384, 385, 386, 387, 388, 389, 390, 391, 392, 393, 394, 395, 396, 397, 398, 399, 400, 401, 402, 403, 404, 405, 406, 407, 408, 409, 410, 411, 412, 413, 414, 415, 416, 417, 418, 419, 420, 421, 422, 423, 424, 425, 426, 427, 428, 429, 430, 431, 432, 433, 434, 435, 436, 437, 438, 439, 440, 441, 442, 443, 444, 445, 446, 447, 448, 449, 450, 451, 452, 453, 454, 455, 456, 457, 458, 459, 460, 461, 462, 463, 464, 465, 466, 467, 468, 469, 470, 471, 472, 473, 474, 475, 476, 477, 478, 479, 480, 481, 482, 483, 484, 485, 486, 487, 488, 489, 490, 491, 492, 493, 494, 495, 496, 497, 498, 499, 500, 501, 502, 503, 504, 505, 506, 507, 508, 509, 510, 511, 512, 513, 514, 515, 516, 517, 518, 519, 520, 521, 522, 523, 524, 525, 526, 527, 528, 529, 530, 531, 532, 533, 534, 535, 536, 537, 538, 539, 540, 541, 542, 543, 544, 545, 546, 547, 548, 549, 550, 551, 552, 553, 554, 555, 556, 557, 558, 559, 560, 561, 562, 563, 564, 565, 566, 567, 568, 569, 570, 571, 572, 573, 574, 575, 576, 577, 578, 579, 580, 581],
      "AcquisitionTime": ["121606.725000", "121607.512500", "121608.300000", "121609.090000", "121609.877500", "121610.665000", "121611.452500", "121612.242500", "121613.030000", "121613.817500", "121614.605000", "121615.395000", "121616.182500", "121616.970000", "121617.757500", "121618.547500", "121619.335000", "121620.122500", "121620.912500", "121621.700000", "121622.487500", "121623.275000", "121624.065000", "121624.852500", "121625.640000", "121626.427500", "121627.217500", "121628.005000", "121628.792500", "121629.580000", "121630.370000", "121631.157500", "121631.945000", "121632.732500", "121633.522500", "121634.310000", "121635.097500", "121635.885000", "121636.675000", "121637.462500", "121638.250000", "121639.040000", "121639.827500", "121640.615000", "121641.402500", "121642.192500", "121642.980000", "121643.767500", "121644.555000", "121645.345000", "121646.132500", "121646.920000", "121647.707500", "121648.497500", "121649.285000", "121650.072500", "121650.860000", "121651.650000", "121652.437500", "121653.225000", "121654.012500", "121654.802500", "121655.590000", "121656.377500", "121657.167500", "121657.955000", "121658.742500", "121659.530000", "121700.320000", "121701.107500", "121701.895000", "121702.682500", "121703.472500", "121704.260000", "121705.047500", "121705.835000", "121706.625000", "121707.412500", "121708.200000", "121708.987500", "121709.777500", "121710.565000", "121711.352500", "121712.140000", "121712.930000", "121713.717500", "121714.505000", "121715.295000", "121716.082500", "121716.870000", "121717.657500", "121718.447500", "121719.235000", "121720.022500", "121720.810000", "121721.600000", "121722.387500", "121723.175000", "121723.962500", "121724.752500", "121725.540000", "121726.327500", "121727.115000", "121727.905000", "121728.692500", "121729.480000", "121730.267500", "121731.057500", "121731.845000", "121732.632500", "121733.422500", "121734.210000", "121734.997500", "121735.785000", "121736.575000", "121737.362500", "121738.150000", "121738.937500", "121739.727500", "121740.515000", "121741.302500", "121742.090000", "121742.880000", "121743.667500", "121744.455000", "121745.242500", "121746.032500", "121746.820000", "121747.607500", "121748.395000", "121749.185000", "121749.972500", "121750.760000", "121751.550000", "121752.337500", "121753.125000", "121753.912500", "121754.702500", "121755.490000", "121756.277500", "121757.065000", "121757.855000", "121758.642500", "121759.430000", "121800.217500", "121801.007500", "121801.795000", "121802.582500", "121803.370000", "121804.160000", "121804.947500", "121805.735000", "121806.522500", "121807.312500", "121808.100000", "121808.887500", "121809.677500", "121810.465000", "121811.252500", "121812.040000", "121812.830000", "121813.617500", "121814.405000", "121815.192500", "121815.982500", "121816.770000", "121817.557500", "121818.345000", "121819.135000", "121819.922500", "121820.710000", "121821.497500", "121822.287500", "121823.075000", "121823.862500", "121824.650000", "121825.440000", "121826.227500", "121827.015000", "121827.805000", "121828.592500", "121829.380000", "121830.167500", "121830.957500", "121831.745000", "121832.532500", "121833.320000", "121834.110000", "121834.897500", "121835.685000", "121836.472500", "121837.262500", "121838.050000", "121838.837500", "121839.625000", "121840.415000", "121841.202500", "121841.990000", "121842.777500", "121843.567500", "121844.355000", "121845.142500", "121845.932500", "121846.720000", "121847.507500", "121848.295000", "121849.085000", "121849.872500", "121850.660000", "121851.447500", "121852.237500", "121853.025000", "121853.812500", "121854.600000", "121855.390000", "121856.177500", "121856.965000", "121857.752500", "121858.542500", "121859.330000", "121900.117500", "121900.905000", "121901.695000", "121902.482500", "121903.270000", "121904.060000", "121904.847500", "121905.635000", "121906.422500", "121907.212500", "121908.000000", "121908.787500", "121909.575000", "121910.365000", "121911.152500", "121911.940000", "121912.727500", "121913.517500", "121914.305000", "121915.092500", "121915.880000", "121916.670000", "121917.457500", "121918.245000", "121919.035000", "121919.822500", "121920.610000", "121921.397500", "121922.187500", "121922.975000", "121923.762500", "121924.550000", "121925.340000", "121926.127500", "121926.915000", "121927.702500", "121928.492500", "121929.280000", "121930.067500", "121930.855000", "121931.645000", "121932.432500", "121933.220000", "121934.007500", "121934.797500", "121935.585000", "121936.372500", "121937.162500", "121937.950000", "121938.737500", "121939.525000", "121940.315000", "121941.102500", "121941.890000", "121942.677500", "121943.467500", "121944.255000", "121945.042500", "121945.830000", "121946.620000", "121947.407500", "121948.195000", "121948.982500", "121949.772500", "121950.560000", "121951.347500", "121952.135000", "121952.925000", "121953.712500", "121954.500000", "121955.290000", "121956.077500", "121956.865000", "121957.652500", "121958.442500", "121959.230000", "122000.017500", "122000.805000", "122001.595000", "122002.382500", "122003.170000", "122003.957500", "122004.747500", "122005.535000", "122006.322500", "122007.110000", "122007.900000", "122008.687500", "122009.475000", "122010.262500", "122011.052500", "122011.840000", "122012.627500", "122013.417500", "122014.205000", "122014.992500", "122015.780000", "122016.570000", "122017.357500", "122018.145000", "122018.932500", "122019.722500", "122020.510000", "122021.297500", "122022.085000", "122022.875000", "122023.662500", "122024.450000", "122025.237500", "122026.027500", "122026.815000", "122027.602500", "122028.390000", "122029.180000", "122029.967500", "122030.755000", "122031.545000", "122032.332500", "122033.120000", "122033.907500", "122034.697500", "122035.485000", "122036.272500", "122037.060000", "122037.850000", "122038.637500", "122039.425000", "122040.212500", "122041.002500", "122041.790000", "122042.577500", "122043.365000", "122044.155000", "122044.942500", "122045.730000", "122046.517500", "122047.307500", "122048.095000", "122048.882500", "122049.672500", "122050.460000", "122051.247500", "122052.035000", "122052.825000", "122053.612500", "122054.400000", "122055.187500", "122055.977500", "122056.765000", "122057.552500", "122058.340000", "122059.130000", "122059.917500", "122100.705000", "122101.492500", "122102.282500", "122103.070000", "122103.857500", "122104.645000", "122105.435000", "122106.222500", "122107.010000", "122107.800000", "122108.587500", "122109.375000", "122110.162500", "122110.952500", "122111.740000", "122112.527500", "122113.315000", "122114.105000", "122114.892500", "122115.680000", "122116.467500", "122117.257500", "122118.045000", "122118.832500", "122119.620000", "122120.410000", "122121.197500", "122121.985000", "122122.772500", "122123.562500", "122124.350000", "122125.137500", "122125.927500", "122126.715000", "122127.502500", "122128.290000", "122129.080000", "122129.867500", "122130.655000", "122131.442500", "122132.232500", "122133.020000", "122133.807500", "122134.595000", "122135.385000", "122136.172500", "122136.960000", "122137.747500", "122138.537500", "122139.325000", "122140.112500", "122140.900000", "122141.690000", "122142.477500", "122143.265000", "122144.055000", "122144.842500", "122145.630000", "122146.417500", "122147.207500", "122147.995000", "122148.782500", "122149.570000", "122150.360000", "122151.147500", "122151.935000", "122152.722500", "122153.512500", "122154.300000", "122155.087500", "122155.875000", "122156.665000", "122157.452500", "122158.240000", "122159.027500", "122159.817500", "122200.605000", "122201.392500", "122202.182500", "122202.970000", "122203.757500", "122204.545000", "122205.335000", "122206.122500", "122206.910000", "122207.697500", "122208.487500", "122209.275000", "122210.062500", "122210.850000", "122211.640000", "122212.427500", "122213.215000", "122214.002500", "122214.792500", "122215.580000", "122216.367500", "122217.155000", "122217.945000", "122218.732500", "122219.520000", "122220.310000", "122221.097500", "122221.885000", "122222.672500", "122223.462500", "122224.250000", "122225.037500", "122225.825000", "122226.615000", "122227.402500", "122228.190000", "122228.977500", "122229.767500", "122230.555000", "122231.342500", "122232.130000", "122232.920000", "122233.707500", "122234.495000", "122235.285000", "122236.072500", "122236.860000", "122237.647500", "122238.437500", "122239.225000", "122240.012500", "122240.800000", "122241.590000", "122242.377500", "122243.165000", "122243.952500", "122244.742500", "122245.530000", "122246.317500", "122247.105000", "122247.895000", "122248.682500", "122249.470000", "122250.257500", "122251.047500", "122251.835000", "122252.622500", "122253.412500", "122254.200000", "122254.987500", "122255.775000", "122256.565000", "122257.352500", "122258.140000", "122258.927500", "122259.717500", "122300.505000", "122301.292500", "122302.080000", "122302.870000", "122303.657500", "122304.445000", "122305.232500", "122306.022500", "122306.810000", "122307.597500", "122308.385000", "122309.175000", "122309.962500", "122310.750000", "122311.540000", "122312.327500", "122313.115000", "122313.902500", "122314.692500", "122315.480000", "122316.267500", "122317.055000", "122317.845000", "122318.632500", "122319.420000", "122320.207500", "122320.997500", "122321.785000", "122322.572500", "122323.360000", "122324.150000", "122324.937500", "122325.725000", "122326.512500", "122327.302500", "122328.090000", "122328.877500", "122329.667500", "122330.455000", "122331.242500", "122332.030000", "122332.820000", "122333.607500", "122334.395000", "122335.182500", "122335.972500", "122336.760000", "122337.547500", "122338.335000", "122339.125000", "122339.912500", "122340.700000", "122341.487500", "122342.277500", "122343.065000", "122343.852500"],
      "ContentTime": ["121637.906000", "121637.921000", "121637.921000", "121637.921000", "121637.921000", "121637.921000", "121637.921000", "121637.921000", "121637.921000", "121637.937000", "121637.937000", "121637.937000", "121637.937000", "121637.937000", "121637.937000", "121637.937000", "121637.953000", "121637.953000", "121637.953000", "121637.953000", "121637.953000", "121637.953000", "121637.953000", "121637.953000", "121637.968000", "121637.968000", "121637.968000", "121637.968000", "121637.968000", "121637.968000", "121637.968000", "121637.984000", "121637.984000", "121637.984000", "121637.984000", "121637.984000", "121637.984000", "121657.890000", "121657.890000", "121657.890000", "121657.890000", "121657.890000", "121657.906000", "121657.906000", "121657.906000", "121657.906000", "121657.906000", "121657.906000", "121657.906000", "121657.906000", "121657.921000", "121657.921000", "121657.921000", "121657.921000", "121657.921000", "121657.921000", "121657.921000", "121657.921000", "121657.937000", "121657.937000", "121657.937000", "121657.937000", "121657.937000", "121717.890000", "121717.890000", "121717.890000", "121717.890000", "121717.890000", "121717.906000", "121717.906000", "121717.906000", "121717.906000", "121717.906000", "121717.906000", "121717.906000", "121717.921000", "121717.921000", "121717.921000", "121717.921000", "121717.921000", "121717.921000", "121717.921000", "121717.921000", "121717.937000", "121717.937000", "121717.937000", "121717.937000", "121717.937000", "121737.890000", "121737.890000", "121737.890000", "121737.890000", "121737.890000", "121737.906000", "121737.906000", "121737.906000", "121737.906000", "121737.906000", "121737.906000", "121737.906000", "121737.906000", "121737.921000", "121737.921000", "121737.921000", "121737.921000", "121737.921000", "121737.921000", "121737.921000", "121737.921000", "121737.937000", "121737.937000", "121737.937000", "121737.937000", "121737.937000", "121757.890000", "121757.890000", "121757.890000", "121757.890000", "121757.890000", "121757.906000", "121757.906000", "121757.906000", "121757.906000", "121757.906000", "121757.906000", "121757.906000", "121757.906000", "121757.921000", "121757.921000", "121757.921000", "121757.921000", "121757.921000", "121757.921000", "121757.921000", "121757.937000", "121757.937000", "121757.937000", "121757.937000", "121757.937000", "121817.890000", "121817.890000", "121817.890000", "121817.890000", "121817.890000", "121817.906000", "121817.906000", "121817.906000", "121817.906000", "121817.906000", "121817.906000", "121817.906000", "121817.921000", "121817.921000", "121817.921000", "121817.921000", "121817.921000", "121817.921000", "121817.921000", "121817.921000", "121817.937000", "121817.937000", "121817.937000", "121817.937000", "121817.937000", "121817.937000", "121837.890000", "121837.890000", "121837.890000", "121837.890000", "121837.890000", "121837.906000", "121837.906000", "121837.906000", "121837.906000", "121837.906000", "121837.906000", "121837.906000", "121837.921000", "121837.921000", "121837.921000", "121837.921000", "121837.921000", "121837.921000", "121837.921000", "121837.921000", "121837.937000", "121837.937000", "121837.937000", "121837.937000", "121837.937000", "121857.890000", "121857.890000", "121857.890000", "121857.890000", "121857.890000", "121857.906000", "121857.906000", "121857.906000", "121857.906000", "121857.906000", "121857.906000", "121857.906000", "121857.921000", "121857.921000", "121857.921000", "121857.921000", "121857.921000", "121857.921000", "121857.921000", "121857.921000", "121857.937000", "121857.937000", "121857.937000", "121857.937000", "121857.937000", "121857.937000", "121917.890000", "121917.890000", "121917.890000", "121917.890000", "121917.890000", "121917.906000", "121917.906000", "121917.906000", "121917.906000", "121917.906000", "121917.906000", "121917.906000", "121917.906000", "121917.921000", "121917.921000", "121917.921000", "121917.921000", "121917.921000", "121917.921000", "121917.921000", "121917.937000", "121917.937000", "121917.937000", "121917.937000", "121917.937000", "121937.890000", "121937.890000", "121937.890000", "121937.890000", "121937.890000", "121937.906000", "121937.906000", "121937.906000", "121937.906000", "121937.906000", "121937.906000", "121937.906000", "121937.921000", "121937.921000", "121937.921000", "121937.921000", "121937.921000", "121937.921000", "121937.921000", "121937.921000", "121937.937000", "121937.937000", "121937.937000", "121937.937000", "121937.937000", "121937.937000", "121957.890000", "121957.890000", "121957.890000", "121957.890000", "121957.890000", "121957.906000", "121957.906000", "121957.906000", "121957.906000", "121957.906000", "121957.906000", "121957.906000", "121957.906000", "121957.921000", "121957.921000", "121957.921000", "121957.921000", "121957.921000", "121957.921000", "121957.921000", "121957.937000", "121957.937000", "121957.937000", "121957.937000", "121957.937000", "122017.890000", "122017.890000", "122017.890000", "122017.890000", "122017.890000", "122017.906000", "122017.906000", "122017.906000", "122017.906000", "122017.906000", "122017.906000", "122017.906000", "122017.906000", "122017.921000", "122017.921000", "122017.921000", "122017.921000", "122017.921000", "122017.921000", "122017.921000", "122017.937000", "122017.937000", "122017.937000", "122017.937000", "122017.937000", "122017.937000", "122037.890000", "122037.890000", "122037.890000", "122037.890000", "122037.890000", "122037.906000", "122037.906000", "122037.906000", "122037.906000", "122037.906000", "122037.906000", "122037.906000", "122037.921000", "122037.921000", "122037.921000", "122037.921000", "122037.921000", "122037.921000", "122037.921000", "122037.937000", "122037.937000", "122037.937000", "122037.937000", "122037.937000", "122037.937000", "122057.890000", "122057.890000", "122057.890000", "122057.890000", "122057.890000", "122057.906000", "122057.906000", "122057.906000", "122057.906000", "122057.906000", "122057.906000", "122057.906000", "122057.906000", "122057.921000", "122057.921000", "122057.921000", "122057.921000", "122057.921000", "122057.921000", "122057.921000", "122057.937000", "122057.937000", "122057.937000", "122057.937000", "122057.937000", "122057.937000", "122117.890000", "122117.890000", "122117.890000", "122117.890000", "122117.890000", "122117.906000", "122117.906000", "122117.906000", "122117.906000", "122117.906000", "122117.906000", "122117.906000", "122117.906000", "122117.921000", "122117.921000", "122117.921000", "122117.921000", "122117.921000", "122117.921000", "122117.921000", "122117.921000", "122117.937000", "122117.937000", "122117.937000", "122117.937000", "122137.890000", "122137.890000", "122137.921000", "122137.921000", "122137.921000", "122137.921000", "122137.937000", "122137.937000", "122137.937000", "122137.937000", "122137.937000", "122137.937000", "122137.937000", "122137.937000", "122137.953000", "122137.953000", "122137.953000", "122137.953000", "122137.953000", "122137.953000", "122137.953000", "122137.953000", "122137.968000", "122137.968000", "122137.968000", "122157.890000", "122157.890000", "122157.890000", "122157.890000", "122157.890000", "122157.906000", "122157.906000", "122157.906000", "122157.906000", "122157.906000", "122157.906000", "122157.906000", "122157.921000", "122157.921000", "122157.921000", "122157.921000", "122157.921000", "122157.921000", "122157.921000", "122157.921000", "122157.937000", "122157.937000", "122157.937000", "122157.937000", "122157.937000", "122157.937000", "122217.890000", "122217.890000", "122217.890000", "122217.890000", "122217.890000", "122217.906000", "122217.906000", "122217.906000", "122217.906000", "122217.906000", "122217.906000", "122217.906000", "122217.921000", "122217.921000", "122217.921000", "122217.921000", "122217.921000", "122217.921000", "122217.921000", "122217.921000", "122217.937000", "122217.937000", "122217.937000", "122217.937000", "122217.937000", "122237.890000", "122237.890000", "122237.890000", "122237.890000", "122237.890000", "122237.906000", "122237.906000", "122237.906000", "122237.906000", "122237.906000", "122237.906000", "122237.906000", "122237.906000", "122237.921000", "122237.921000", "122237.921000", "122237.921000", "122237.921000", "122237.921000", "122237.921000", "122237.937000", "122237.937000", "122237.937000", "122237.937000", "122237.937000", "122237.937000", "122257.890000", "122257.890000", "122257.890000", "122257.890000", "122257.890000", "122257.906000", "122257.906000", "122257.906000", "122257.906000", "122257.906000", "122257.906000", "122257.906000", "122257.921000", "122257.921000", "122257.921000", "122257.921000", "122257.921000", "122257.921000", "122257.921000", "122257.921000", "122257.937000", "122257.937000", "122257.937000", "122257.937000", "122257.937000", "122317.890000", "122317.890000", "122317.890000", "122317.890000", "122317.890000", "122317.906000", "122317.906000", "122317.906000", "122317.906000", "122317.906000", "122317.906000", "122317.906000", "122317.906000", "122317.921000", "122317.921000", "122317.921000", "122317.921000", "122317.921000", "122317.921000", "122317.921000", "122317.937000", "122317.937000", "122317.937000", "122317.937000", "122317.937000", "122317.937000", "122337.890000", "122337.890000", "122337.890000", "122337.890000", "122337.890000", "122337.906000", "122337.906000", "122337.906000", "122337.906000", "122337.906000", "122337.906000", "122337.906000", "122337.921000", "122337.921000", "122337.921000", "122337.921000", "122337.921000", "122337.921000", "122337.921000", "122337.921000", "122337.937000", "122337.937000", "122337.937000", "122337.937000", "122337.937000", "122344.359000", "122344.375000", "122344.375000", "122344.375000", "122344.375000", "122344.375000", "122344.375000", "122344.375000", "122344.375000"],
