{
  "AcquisitionMatrixPE": 104,
  "AcquisitionNumber": 1,
  "AcquisitionTime": "12:24:18.705000",
  "BandwidthPerPixelPhaseEncode": 13.935,
  "BaseResolution": 104,
  "CoilString": "C:HEA;HEP",
  "ConversionSoftware": "dcm2niix",
  "ConversionSoftwareVersion": "v1.0.20210317",
  "DerivedVendorReportedEchoSpacing": 0.000690017,
  "DeviceSerialNumber": "35450",
  "DwellTime": 2.5e-06,
  "EchoTime": 0.0348,
  "EffectiveEchoSpacing": 0.000690017,
  "FlipAngle": 55,
  "ImageComments": "Unaliased MB8/PE3 (remote)",
  "ImageOrientationPatientDICOM": [0.999962, -0.000563132, -0.00870835, -1.16843e-08, 0.997916, -0.0645323],
  "ImageType": [
    "ORIGINAL",
    "PRIMARY",
    "M",
    "MB",
    "ND",
    "MOSAIC"
],
  "ImagingFrequency": 123.235,
  "InPlanePhaseEncodingDirectionDICOM": "COL",
  "InstitutionAddress": "Univeristy Ave. 197,Newark,North East,US,07102-1814",
  "InstitutionName": "RUBIC",
  "InstitutionalDepartmentName": "Department",
  "MRAcquisitionType": "2D",
  "MagneticFieldStrength": 3,
  "Manufacturer": "Siemens",
  "ManufacturersModelName": "TrioTim",
  "Modality": "MR",
  "MultibandAccelerationFactor": 8,
  "PartialFourier": 0.875,
  "PatientPosition": "HFS",
  "PercentPhaseFOV": 100,
  "PercentSampling": 100,
  "PhaseEncodingDirection": "j-",
  "PhaseEncodingSteps": 91,
  "PhaseResolution": 1,
  "PixelBandwidth": 1923,
  "ProcedureStepDescription": "Cole^Michael",
  "ProtocolName": "cmrr_mbep2d_bold_2mm_MB8_Task_8x",
  "PulseSequenceDetails": "%CustomerSeq%\\cmrr_mbep2d_bold",
  "ReceiveCoilName": "32Ch_Head",
  "ReconMatrixPE": 104,
  "RepetitionTime": 0.785,
  "SAR": 0.119698,
  "ScanOptions": "PFP\\FS",
  "ScanningSequence": "EP",
  "SequenceName": "epfid2d1_104",
  "SequenceVariant": "SK\\SS",
  "SeriesDescription": "cmrr_mbep2d_bold_2mm_MB8_Task_8x",
  "SeriesNumber": 27,
  "ShimSetting": [2106, -393, -7307, 618, -28, -7, 14, 84],
  "SliceThickness": 2,
  "SliceTiming": [0, 0.4375, 0.0875, 0.525, 0.175, 0.6125, 0.2625, 0.7, 0.35, 0, 0.4375, 0.0875, 0.525, 0.175, 0.6125, 0.2625, 0.7, 0.35, 0, 0.4375, 0.0875, 0.525, 0.175, 0.6125, 0.2625, 0.7, 0.35, 0, 0.4375, 0.0875, 0.525, 0.175, 0.6125, 0.2625, 0.7, 0.35, 0, 0.4375, 0.0875, 0.525, 0.175, 0.6125, 0.2625, 0.7, 0.35, 0, 0.4375, 0.0875, 0.525, 0.175, 0.6125, 0.2625, 0.7, 0.35, 0, 0.4375, 0.0875, 0.525, 0.175, 0.6125, 0.2625, 0.7, 0.35, 0, 0.4375, 0.0875, 0.525, 0.175, 0.6125, 0.2625, 0.7, 0.35],
  "SoftwareVersions": "syngo MR B19",
  "SpacingBetweenSlices": 2,
  "StationName": "MRC35450",
  "TaskName": "cpro",
  "TotalReadoutTime": 0.0710717,
  "TxRefAmp": 346.353,
  "dcmmeta_affine": [
    [-1.999923825263977, -2.3368540880142064e-08, -0.017453067004680634, 104.6156234741211],
    [0.0011262634070590138, 1.9958312511444092, -0.12905970215797424, -79.98506164550781],
    [-0.017416691407561302, 0.1290646195411682, 1.9957551956176758, -104.05133819580078],
    [0.0, 0.0, 0.0, 1.0]
],
  "dcmmeta_reorient_transform": [
    [0.0, -1.0, 0.0, 103.0],
    [1.0, 0.0, 0.0, 0.0],
    [0.0, 0.0, 1.0, 0.0],
    [0.0, 0.0, 0.0, 1.0]
],
  "dcmmeta_shape": [104, 104, 72, 581],
  "dcmmeta_slice_dim": 2,
  "dcmmeta_version": 0.6,
  "global": {
    "const": {
      "AcquisitionMatrix": [104, 0, 0, 104],
      "AngioFlag": "N",
      "BitsAllocated": 16,
      "BitsStored": 12,
      "Columns": 936,
      "EchoNumbers": 1,
      "EchoTime": 34.8,
      "EchoTrainLength": 1,
      "FlipAngle": 55.0,
      "HighBit": 11,
      "ImageOrientationPatient": [0.99996192307697, -0.0005631317143, -0.0087083453584, -1.168427e-08, 0.99791561834852, -0.0645323070724],
      "ImagePositionPatient": [-936.58393308752, -955.38282646114, -29.821459407812],
      "ImageType": [
        "ORIGINAL",
        "PRIMARY",
        "M",
        "MB",
        "ND",
        "MOSAIC"
],
      "ImagedNucleus": "1H",
      "ImagingFrequency": 123.234513,
      "InPlanePhaseEncodingDirection": "COL",
      "MRAcquisitionType": "2D",
      "MagneticFieldStrength": 3.0,
      "Manufacturer": "SIEMENS",
      "ManufacturerModelName": "TrioTim",
      "Modality": "MR",
      "NumberOfAverages": 1.0,
      "NumberOfPhaseEncodingSteps": 91,
      "PercentPhaseFieldOfView": 100.0,
      "PercentSampling": 100.0,
      "PerformedProcedureStepStartTime": "102451.109000",
      "PhotometricInterpretation": "MONOCHROME2",
      "PixelBandwidth": 1923.0,
      "PixelRepresentation": 0,
      "PixelSpacing": [2.0, 2.0],
      "ProtocolName": "cmrr_mbep2d_bold_2mm_MB8_Task_8x",
      "RepetitionTime": 785.0,
      "Rows": 936,
      "SAR": 0.11969770658937,
      "SamplesPerPixel": 1,
      "ScanOptions": [
        "PFP",
        "FS"
],
      "ScanningSequence": "EP",
      "SequenceName": "epfid2d1_104",
      "SequenceVariant": [
        "SK",
        "SS"
],
      "SeriesDescription": "cmrr_mbep2d_bold_2mm_MB8_Task_8x",
      "SeriesNumber": 27,
      "SeriesTime": "122437.890000",
      "SliceLocation": -99.582008995307,
      "SliceThickness": 2.0,
      "SmallestImagePixelValue": 0,
      "SoftwareVersions": "syngo MR B19",
      "SpacingBetweenSlices": 1.9999999674173,
      "SpecificCharacterSet": "ISO_IR 100",
      "StudyID": "1",
      "StudyTime": "102451.062000",
      "TransmitCoilName": "Body",
      "VariableFlipAngleFlag": "N",
      "WindowCenterWidthExplanation": "Algo1",
      "dBdt": 0.0},
    "slices": {}
  },
  "time": {
    "samples": {
      "AcquisitionNumber": [1, 2, 3, 4, 5, 6, 7, 8, 9, 10, 11, 12, 13, 14, 15, 16, 17, 18, 19, 20, 21, 22, 23, 24, 25, 26, 27, 28, 29, 30, 31, 32, 33, 34, 35, 36, 37, 38, 39, 40, 41, 42, 43, 44, 45, 46, 47, 48, 49, 50, 51, 52, 53, 54, 55, 56, 57, 58, 59, 60, 61, 62, 63, 64, 65, 66, 67, 68, 69, 70, 71, 72, 73, 74, 75, 76, 77, 78, 79, 80, 81, 82, 83, 84, 85, 86, 87, 88, 89, 90, 91, 92, 93, 94, 95, 96, 97, 98, 99, 100, 101, 102, 103, 104, 105, 106, 107, 108, 109, 110, 111, 112, 113, 114, 115, 116, 117, 118, 119, 120, 121, 122, 123, 124, 125, 126, 127, 128, 129, 130, 131, 132, 133, 134, 135, 136, 137, 138, 139, 140, 141, 142, 143, 144, 145, 146, 147, 148, 149, 150, 151, 152, 153, 154, 155, 156, 157, 158, 159, 160, 161, 162, 163, 164, 165, 166, 167, 168, 169, 170, 171, 172, 173, 174, 175, 176, 177, 178, 179, 180, 181, 182, 183, 184, 185, 186, 187, 188, 189, 190, 191, 192, 193, 194, 195, 196, 197, 198, 199, 200, 201, 202, 203, 204, 205, 206, 207, 208, 209, 210, 211, 212, 213, 214, 215, 216, 217, 218, 219, 220, 221, 222, 223, 224, 225, 226, 227, 228, 229, 230, 231, 232, 233, 234, 235, 236, 237, 238, 239, 240, 241, 242, 243, 244, 245, 246, 247, 248, 249, 250, 251, 252, 253, 254, 255, 256, 257, 258, 259, 260, 261, 262, 263, 264, 265, 266, 267, 268, 269, 270, 271, 272, 273, 274, 275, 276, 277, 278, 279, 280, 281, 282, 283, 284, 285, 286, 287, 288, 289, 290, 291, 292, 293, 294, 295, 296, 297, 298, 299, 300, 301, 302, 303, 304, 305, 306, 307, 308, 309, 310, 311, 312, 313, 314, 315, 316, 317, 318, 319, 320, 321, 322, 323, 324, 325, 326, 327, 328, 329, 330, 331, 332, 333, 334, 335, 336, 337, 338, 339, 340, 341, 342, 343, 344, 345, 346, 347, 348, 349, 350, 351, 352, 353, 354, 355, 356, 357, 358, 359, 360, 361, 362, 363, 364, 365, 366, 367, 368, 369, 370, 371, 372, 373, 374, 375, 376, 377, 378, 379, 380, 381, 382, 383, 384, 385, 386, 387, 388, 389, 390, 391, 392, 393, 394, 395, 396, 397, 398, 399, 400, 401, 402, 403, 404, 405, 406, 407, 408, 409, 410, 411, 412, 413, 414, 415, 416, 417, 418, 419, 420, 421, 422, 423, 424, 425, 426, 427, 428, 429, 430, 431, 432, 433, 434, 435, 436, 437, 438, 439, 440, 441, 442, 443, 444, 445, 446, 447, 448, 449, 450, 451, 452, 453, 454, 455, 456, 457, 458, 459, 460, 461, 462, 463, 464, 465, 466, 467, 468, 469, 470, 471, 472, 473, 474, 475, 476, 477, 478, 479, 480, 481, 482, 483, 484, 485, 486, 487, 488, 489, 490, 491, 492, 493, 494, 495, 496, 497, 498, 499, 500, 501, 502, 503, 504, 505, 506, 507, 508, 509, 510, 511, 512, 513, 514, 515, 516, 517, 518, 519, 520, 521, 522, 523, 524, 525, 526, 527, 528, 529, 530, 531, 532, 533, 534, 535, 536, 537, 538, 539, 540, 541, 542, 543, 544, 545, 546, 547, 548, 549, 550, 551, 552, 553, 554, 555, 556, 557, 558, 559, 560, 561, 562, 563, 564, 565, 566, 567, 568, 569, 570, 571, 572, 573, 574, 575, 576, 577, 578, 579, 580, 581],
      "AcquisitionTime": ["122418.705000", "122419.492500", "122420.280000", "122421.067500", "122421.857500", "122422.645000", "122423.432500", "122424.220000", "122425.010000", "122425.797500", "122426.585000", "122427.375000", "122428.162500", "122428.950000", "122429.737500", "122430.527500", "122431.315000", "122432.102500", "122432.890000", "122433.680000", "122434.467500", "122435.255000", "122436.042500", "122436.832500", "122437.620000", "122438.407500", "122439.195000", "122439.985000", "122440.772500", "122441.560000", "122442.347500", "122443.137500", "122443.925000", "122444.712500", "122445.502500", "122446.290000", "122447.077500", "122447.865000", "122448.655000", "122449.442500", "122450.230000", "122451.017500", "122451.807500", "122452.595000", "122453.382500", "122454.170000", "122454.960000", "122455.747500", "122456.535000", "122457.322500", "122458.112500", "122458.900000", "122459.687500", "122500.475000", "122501.265000", "122502.052500", "122502.840000", "122503.630000", "122504.417500", "122505.205000", "122505.992500", "122506.782500", "122507.570000", "122508.357500", "122509.145000", "122509.935000", "122510.722500", "122511.510000", "122512.297500", "122513.087500", "122513.875000", "122514.662500", "122515.450000", "122516.240000", "122517.027500", "122517.815000", "122518.602500", "122519.392500", "122520.180000", "122520.967500", "122521.757500", "122522.545000", "122523.332500", "122524.120000", "122524.910000", "122525.697500", "122526.485000", "122527.272500", "122528.062500", "122528.850000", "122529.637500", "122530.425000", "122531.215000", "122532.002500", "122532.790000", "122533.577500", "122534.367500", "122535.155000", "122535.942500", "122536.730000", "122537.520000", "122538.307500", "122539.095000", "122539.885000", "122540.672500", "122541.460000", "122542.247500", "122543.037500", "122543.825000", "122544.612500", "122545.400000", "122546.190000", "122546.977500", "122547.765000", "122548.552500", "122549.342500", "122550.130000", "122550.917500", "122551.705000", "122552.495000", "122553.282500", "122554.070000", "122554.857500", "122555.647500", "122556.435000", "122557.222500", "122558.012500", "122558.800000", "122559.587500", "122600.375000", "122601.165000", "122601.952500", "122602.740000", "122603.527500", "122604.317500", "122605.105000", "122605.892500", "122606.680000", "122607.470000", "122608.257500", "122609.045000", "122609.832500", "122610.622500", "122611.410000", "122612.197500", "122612.985000", "122613.775000", "122614.562500", "122615.350000", "122616.140000", "122616.927500", "122617.715000", "122618.502500", "122619.292500", "122620.080000", "122620.867500", "122621.655000", "122622.445000", "122623.232500", "122624.020000", "122624.807500", "122625.597500", "122626.385000", "122627.172500", "122627.960000", "122628.750000", "122629.537500", "122630.325000", "122631.112500", "122631.902500", "122632.690000", "122633.477500", "122634.267500", "122635.055000", "122635.842500", "122636.630000", "122637.420000", "122638.207500", "122638.995000", "122639.782500", "122640.572500", "122641.360000", "122642.147500", "122642.935000", "122643.725000", "122644.512500", "122645.300000", "122646.087500", "122646.877500", "122647.665000", "122648.452500", "122649.240000", "122650.030000", "122650.817500", "122651.605000", "122652.395000", "122653.182500", "122653.970000", "122654.757500", "122655.547500", "122656.335000", "122657.122500", "122657.910000", "122658.700000", "122659.487500", "122700.275000", "122701.062500", "122701.852500", "122702.640000", "122703.427500", "122704.215000", "122705.005000", "122705.792500", "122706.580000", "122707.367500", "122708.157500", "122708.945000", "122709.732500", "122710.522500", "122711.310000", "122712.097500", "122712.885000", "122713.675000", "122714.462500", "122715.250000", "122716.037500", "122716.827500", "122717.615000", "122718.402500", "122719.190000", "122719.980000", "122720.767500", "122721.555000", "122722.342500", "122723.132500", "122723.920000", "122724.707500", "122725.497500", "122726.285000", "122727.072500", "122727.860000", "122728.650000", "122729.437500", "122730.225000", "122731.012500", "122731.802500", "122732.590000", "122733.377500", "122734.165000", "122734.955000", "122735.742500", "122736.530000", "122737.317500", "122738.107500", "122738.895000", "122739.682500", "122740.470000", "122741.260000", "122742.047500", "122742.835000", "122743.625000", "122744.412500", "122745.200000", "122745.987500", "122746.777500", "122747.565000", "122748.352500", "122749.140000", "122749.930000", "122750.717500", "122751.505000", "122752.292500", "122753.082500", "122753.870000", "122754.657500", "122755.445000", "122756.235000", "122757.022500", "122757.810000", "122758.597500", "122759.387500", "122800.175000", "122800.962500", "122801.752500", "122802.540000", "122803.327500", "122804.115000", "122804.905000", "122805.692500", "122806.480000", "122807.267500", "122808.057500", "122808.845000", "122809.632500", "122810.420000", "122811.210000", "122811.997500", "122812.785000", "122813.572500", "122814.362500", "122815.150000", "122815.937500", "122816.725000", "122817.515000", "122818.302500", "122819.090000", "122819.880000", "122820.667500", "122821.455000", "122822.242500", "122823.032500", "122823.820000", "122824.607500", "122825.395000", "122826.185000", "122826.972500", "122827.760000", "122828.547500", "122829.337500", "122830.125000", "122830.912500", "122831.700000", "122832.490000", "122833.277500", "122834.065000", "122834.852500", "122835.642500", "122836.430000", "122837.217500", "122838.007500", "122838.795000", "122839.582500", "122840.370000", "122841.160000", "122841.947500", "122842.735000", "122843.522500", "122844.312500", "122845.100000", "122845.887500", "122846.675000", "122847.465000", "122848.252500", "122849.040000", "122849.827500", "122850.617500", "122851.405000", "122852.192500", "122852.980000", "122853.770000", "122854.557500", "122855.345000", "122856.135000", "122856.922500", "122857.710000", "122858.497500", "122859.287500", "122900.075000", "122900.862500", "122901.650000", "122902.440000", "122903.227500", "122904.015000", "122904.802500", "122905.592500", "122906.380000", "122907.167500", "122907.955000", "122908.745000", "122909.532500", "122910.320000", "122911.107500", "122911.897500", "122912.685000", "122913.472500", "122914.262500", "122915.050000", "122915.837500", "122916.625000", "122917.415000", "122918.202500", "122918.990000", "122919.777500", "122920.567500", "122921.355000", "122922.142500", "122922.930000", "122923.720000", "122924.507500", "122925.295000", "122926.082500", "122926.872500", "122927.660000", "122928.447500", "122929.235000", "122930.025000", "122930.812500", "122931.600000", "122932.390000", "122933.177500", "122933.965000", "122934.752500", "122935.542500", "122936.330000", "122937.117500", "122937.905000", "122938.695000", "122939.482500", "122940.270000", "122941.057500", "122941.847500", "122942.635000", "122943.422500", "122944.210000", "122945.000000", "122945.787500", "122946.575000", "122947.362500", "122948.152500", "122948.940000", "122949.727500", "122950.517500", "122951.305000", "122952.092500", "122952.880000", "122953.670000", "122954.457500", "122955.245000", "122956.032500", "122956.822500", "122957.610000", "122958.397500", "122959.185000", "122959.975000", "123000.762500", "123001.550000", "123002.337500", "123003.127500", "123003.915000", "123004.702500", "123005.490000", "123006.280000", "123007.067500", "123007.855000", "123008.645000", "123009.432500", "123010.220000", "123011.007500", "123011.797500", "123012.585000", "123013.372500", "123014.160000", "123014.950000", "123015.737500", "123016.525000", "123017.312500", "123018.102500", "123018.890000", "123019.677500", "123020.465000", "123021.255000", "123022.042500", "123022.830000", "123023.617500", "123024.407500", "123025.195000", "123025.982500", "123026.772500", "123027.560000", "123028.347500", "123029.135000", "123029.925000", "123030.712500", "123031.500000", "123032.287500", "123033.077500", "123033.865000", "123034.652500", "123035.440000", "123036.230000", "123037.017500", "123037.805000", "123038.592500", "123039.382500", "123040.170000", "123040.957500", "123041.747500", "123042.535000", "123043.322500", "123044.110000", "123044.900000", "123045.687500", "123046.475000", "123047.262500", "123048.052500", "123048.840000", "123049.627500", "123050.415000", "123051.205000", "123051.992500", "123052.780000", "123053.567500", "123054.357500", "123055.145000", "123055.932500", "123056.720000", "123057.510000", "123058.297500", "123059.085000", "123059.875000", "123100.662500", "123101.450000", "123102.237500", "123103.027500", "123103.815000", "123104.602500", "123105.390000", "123106.180000", "123106.967500", "123107.755000", "123108.542500", "123109.332500", "123110.120000", "123110.907500", "123111.695000", "123112.485000", "123113.272500", "123114.060000", "123114.847500", "123115.637500", "123116.425000", "123117.212500", "123118.002500", "123118.790000", "123119.577500", "123120.365000", "123121.155000", "123121.942500", "123122.730000", "123123.517500", "123124.307500", "123125.095000", "123125.882500", "123126.670000", "123127.460000", "123128.247500", "123129.035000", "123129.822500", "123130.612500", "123131.400000", "123132.187500", "123132.975000", "123133.765000", "123134.552500", "123135.340000", "123136.130000", "123136.917500", "123137.705000", "123138.492500", "123139.282500", "123140.070000", "123140.857500", "123141.645000", "123142.435000", "123143.222500", "123144.010000", "123144.797500", "123145.587500", "123146.375000", "123147.162500", "123147.950000", "123148.740000", "123149.527500", "123150.315000", "123151.102500", "123151.892500", "123152.680000", "123153.467500", "123154.257500", "123155.045000", "123155.832500"],
      "ContentTime": ["122437.890000", "122437.906000", "122437.906000", "122437.906000", "122437.906000", "122437.906000", "122437.906000", "122437.906000", "122437.906000", "122437.921000", "122437.921000", "122437.921000", "122437.921000", "122437.921000", "122437.921000", "122437.921000", "122437.921000", "122437.937000", "122437.937000", "122437.937000", "122437.937000", "122457.859000", "122457.859000", "122457.859000", "122457.859000", "122457.859000", "122457.875000", "122457.875000", "122457.875000", "122457.875000", "122457.875000", "122457.875000", "122457.875000", "122457.875000", "122457.890000", "122457.890000", "122457.890000", "122457.890000", "122457.890000", "122457.890000", "122457.890000", "122457.906000", "122457.906000", "122457.906000", "122457.906000", "122457.906000", "122457.906000", "122517.859000", "122517.859000", "122517.859000", "122517.859000", "122517.859000", "122517.875000", "122517.875000", "122517.875000", "122517.875000", "122517.875000", "122517.875000", "122517.875000", "122517.875000", "122517.890000", "122517.890000", "122517.890000", "122517.890000", "122517.890000", "122517.890000", "122517.890000", "122517.906000", "122517.906000", "122517.906000", "122517.906000", "122517.906000", "122537.859000", "122537.859000", "122537.859000", "122537.859000", "122537.859000", "122537.875000", "122537.875000", "122537.875000", "122537.875000", "122537.875000", "122537.875000", "122537.875000", "122537.890000", "122537.890000", "122537.890000", "122537.890000", "122537.890000", "122537.890000", "122537.890000", "122537.890000", "122537.906000", "122537.906000", "122537.906000", "122537.906000", "122537.906000", "122537.906000", "122557.859000", "122557.859000", "122557.859000", "122557.859000", "122557.859000", "122557.875000", "122557.875000", "122557.875000", "122557.875000", "122557.875000", "122557.875000", "122557.875000", "122557.875000", "122557.890000", "122557.890000", "122557.890000", "122557.890000", "122557.890000", "122557.890000", "122557.890000", "122557.906000", "122557.906000", "122557.906000", "122557.906000", "122557.906000", "122617.859000", "122617.859000", "122617.859000", "122617.859000", "122617.859000", "122617.875000", "122617.875000", "122617.875000", "122617.875000", "122617.875000", "122617.875000", "122617.875000", "122617.875000", "122617.890000", "122617.890000", "122617.890000", "122617.890000", "122617.890000", "122617.890000", "122617.890000", "122617.906000", "122617.906000", "122617.906000", "122617.906000", "122617.906000", "122617.906000", "122637.859000", "122637.859000", "122637.859000", "122637.859000", "122637.859000", "122637.875000", "122637.875000", "122637.875000", "122637.875000", "122637.875000", "122637.875000", "122637.875000", "122637.890000", "122637.890000", "122637.890000", "122637.890000", "122637.890000", "122637.890000", "122637.890000", "122637.890000", "122637.906000", "122637.906000", "122637.906000", "122637.906000", "122637.906000", "122657.859000", "122657.859000", "122657.859000", "122657.859000", "122657.859000", "122657.875000", "122657.875000", "122657.875000", "122657.875000", "122657.875000", "122657.875000", "122657.875000", "122657.875000", "122657.890000", "122657.890000", "122657.890000", "122657.890000", "122657.890000", "122657.890000", "122657.890000", "122657.906000", "122657.906000", "122657.906000", "122657.906000", "122657.906000", "122657.906000", "122717.859000", "122717.859000", "122717.859000", "122717.859000", "122717.859000", "122717.875000", "122717.875000", "122717.875000", "122717.875000", "122717.875000", "122717.875000", "122717.875000", "122717.875000", "122717.890000", "122717.890000", "122717.890000", "122717.890000", "122717.890000", "122717.890000", "122717.890000", "122717.906000", "122717.906000", "122717.906000", "122717.906000", "122717.906000", "122737.859000", "122737.859000", "122737.859000", "122737.859000", "122737.859000", "122737.875000", "122737.875000", "122737.875000", "122737.875000", "122737.875000", "122737.875000", "122737.875000", "122737.875000", "122737.890000", "122737.890000", "122737.890000", "122737.890000", "122737.890000", "122737.890000", "122737.890000", "122737.890000", "122737.906000", "122737.906000", "122737.906000", "122737.906000", "122737.906000", "122757.859000", "122757.859000", "122757.859000", "122757.859000", "122757.859000", "122757.875000", "122757.875000", "122757.875000", "122757.875000", "122757.875000", "122757.875000", "122757.875000", "122757.875000", "122757.890000", "122757.890000", "122757.890000", "122757.890000", "122757.890000", "122757.890000", "122757.890000", "122757.906000", "122757.906000", "122757.906000", "122757.906000", "122757.906000", "122817.859000", "122817.859000", "122817.859000", "122817.859000", "122817.859000", "122817.875000", "122817.875000", "122817.875000", "122817.875000", "122817.875000", "122817.875000", "122817.875000", "122817.890000", "122817.890000", "122817.890000", "122817.890000", "122817.890000", "122817.890000", "122817.890000", "122817.890000", "122817.906000", "122817.906000", "122817.906000", "122817.906000", "122817.906000", "122817.906000", "122837.859000", "122837.859000", "122837.859000", "122837.859000", "122837.859000", "122837.875000", "122837.875000", "122837.875000", "122837.875000", "122837.875000", "122837.875000", "122837.875000", "122837.875000", "122837.890000", "122837.890000", "122837.890000", "122837.890000", "122837.890000", "122837.890000", "122837.890000", "122837.906000", "122837.906000", "122837.906000", "122837.906000", "122837.906000", "122857.859000", "122857.859000", "122857.859000", "122857.859000", "122857.859000", "122857.875000", "122857.875000", "122857.875000", "122857.875000", "122857.875000", "122857.875000", "122857.875000", "122857.875000", "122857.890000", "122857.890000", "122857.890000", "122857.890000", "122857.890000", "122857.890000", "122857.890000", "122857.890000", "122857.906000", "122857.906000", "122857.906000", "122857.906000", "122857.906000", "122917.859000", "122917.859000", "122917.859000", "122917.859000", "122917.859000", "122917.875000", "122917.875000", "122917.875000", "122917.875000", "122917.875000", "122917.875000", "122917.875000", "122917.875000", "122917.890000", "122917.890000", "122917.890000", "122917.890000", "122917.890000", "122917.890000", "122917.890000", "122917.906000", "122917.906000", "122917.906000", "122917.906000", "122917.906000", "122937.859000", "122937.859000", "122937.859000", "122937.859000", "122937.859000", "122937.875000", "122937.875000", "122937.875000", "122937.875000", "122937.875000", "122937.875000", "122937.875000", "122937.875000", "122937.890000", "122937.921000", "122937.921000", "122937.921000", "122937.921000", "122937.921000", "122937.921000", "122937.921000", "122937.921000", "122937.937000", "122937.937000", "122937.937000", "122957.859000", "122957.859000", "122957.859000", "122957.859000", "122957.859000", "122957.875000", "122957.875000", "122957.875000", "122957.875000", "122957.875000", "122957.875000", "122957.875000", "122957.875000", "122957.890000", "122957.890000", "122957.890000", "122957.890000", "122957.890000", "122957.890000", "122957.890000", "122957.906000", "122957.906000", "122957.906000", "122957.906000", "122957.906000", "122957.906000", "123017.859000", "123017.859000", "123017.859000", "123017.859000", "123017.859000", "123017.875000", "123017.875000", "123017.875000", "123017.875000", "123017.875000", "123017.875000", "123017.875000", "123017.875000", "123017.890000", "123017.890000", "123017.890000", "123017.890000", "123017.890000", "123017.890000", "123017.890000", "123017.906000", "123017.906000", "123017.906000", "123017.906000", "123017.906000", "123037.859000", "123037.859000", "123037.859000", "123037.859000", "123037.859000", "123037.875000", "123037.875000", "123037.875000", "123037.875000", "123037.875000", "123037.875000", "123037.875000", "123037.875000", "123037.890000", "123037.890000", "123037.890000", "123037.890000", "123037.890000", "123037.890000", "123037.890000", "123037.890000", "123037.906000", "123037.906000", "123037.906000", "123037.906000", "123037.906000", "123057.859000", "123057.859000", "123057.859000", "123057.859000", "123057.859000", "123057.875000", "123057.875000", "123057.875000", "123057.875000", "123057.875000", "123057.875000", "123057.875000", "123057.875000", "123057.890000", "123057.890000", "123057.890000", "123057.890000", "123057.890000", "123057.890000", "123057.890000", "123057.906000", "123057.906000", "123057.906000", "123057.906000", "123057.906000", "123117.859000", "123117.859000", "123117.859000", "123117.859000", "123117.859000", "123117.875000", "123117.875000", "123117.875000", "123117.875000", "123117.875000", "123117.875000", "123117.875000", "123117.875000", "123117.890000", "123117.890000", "123117.890000", "123117.890000", "123117.890000", "123117.890000", "123117.890000", "123117.906000", "123117.906000", "123117.906000", "123117.906000", "123117.906000", "123117.906000", "123137.875000", "123137.875000", "123137.875000", "123137.875000", "123137.875000", "123137.875000", "123137.875000", "123137.875000", "123137.890000", "123137.890000", "123137.890000", "123137.890000", "123137.890000", "123137.890000", "123137.890000", "123137.906000", "123137.906000", "123137.906000", "123137.906000", "123137.906000", "123137.906000", "123137.906000", "123137.906000", "123137.921000", "123137.921000", "123156.843000", "123156.843000", "123156.843000", "123156.843000", "123156.843000", "123156.859000", "123156.859000", "123156.859000", "123156.859000", "123156.859000", "123156.859000", "123156.859000", "123156.859000", "123156.875000", "123156.875000", "123156.875000", "123156.875000", "123156.875000", "123156.875000", "123156.875000", "123156.890000", "123156.890000", "123156.890000", "123156.890000", "123156.890000"],
