{
  "AcquisitionMatrixPE": 104,
  "AcquisitionNumber": 1,
  "AcquisitionTime": "11:27:18.935000",
  "BandwidthPerPixelPhaseEncode": 13.935,
  "BaseResolution": 104,
  "CoilString": "C:HEA;HEP",
  "ConversionSoftware": "dcm2niix",
  "ConversionSoftwareVersion": "v1.0.20210317",
  "DerivedVendorReportedEchoSpacing": 0.000690017,
  "DeviceSerialNumber": "35450",
  "DwellTime": 2.5e-06,
  "EchoTime": 0.0348,
  "EffectiveEchoSpacing": 0.000690017,
  "FlipAngle": 55,
  "ImageComments": "Unaliased MB8/PE3 (remote)",
  "ImageOrientationPatientDICOM": [0.999962, -0.000563132, -0.00870835, -1.16843e-08, 0.997916, -0.0645323],
  "ImageType": [
    "ORIGINAL",
    "PRIMARY",
    "M",
    "MB",
    "ND",
    "MOSAIC"
],
  "ImagingFrequency": 123.235,
  "InPlanePhaseEncodingDirectionDICOM": "COL",
  "InstitutionAddress": "Univeristy Ave. 197,Newark,North East,US,07102-1814",
  "InstitutionName": "RUBIC",
  "InstitutionalDepartmentName": "Department",
  "MRAcquisitionType": "2D",
  "MagneticFieldStrength": 3,
  "Manufacturer": "Siemens",
  "ManufacturersModelName": "TrioTim",
  "Modality": "MR",
  "MultibandAccelerationFactor": 8,
  "PartialFourier": 0.875,
  "PatientPosition": "HFS",
  "PercentPhaseFOV": 100,
  "PercentSampling": 100,
  "PhaseEncodingDirection": "j-",
  "PhaseEncodingSteps": 91,
  "PhaseResolution": 1,
  "PixelBandwidth": 1923,
  "ProcedureStepDescription": "Cole^Michael",
  "ProtocolName": "cmrr_mbep2d_bold_2mm_MB8_Task_8x",
  "PulseSequenceDetails": "%CustomerSeq%\\cmrr_mbep2d_bold",
  "ReceiveCoilName": "32Ch_Head",
  "ReconMatrixPE": 104,
  "RepetitionTime": 0.785,
  "SAR": 0.12634,
  "ScanOptions": "PFP\\FS",
  "ScanningSequence": "EP",
  "SequenceName": "epfid2d1_104",
  "SequenceVariant": "SK\\SS",
  "SeriesDescription": "cmrr_mbep2d_bold_2mm_MB8_Task_8x",
  "SeriesNumber": 13,
  "ShimSetting": [2106, -393, -7307, 618, -28, -7, 14, 84],
  "SliceThickness": 2,
  "SliceTiming": [0, 0.4375, 0.0875, 0.525, 0.175, 0.6125, 0.2625, 0.7, 0.35, 0, 0.4375, 0.0875, 0.525, 0.175, 0.6125, 0.2625, 0.7, 0.35, 0, 0.4375, 0.0875, 0.525, 0.175, 0.6125, 0.2625, 0.7, 0.35, 0, 0.4375, 0.0875, 0.525, 0.175, 0.6125, 0.2625, 0.7, 0.35, 0, 0.4375, 0.0875, 0.525, 0.175, 0.6125, 0.2625, 0.7, 0.35, 0, 0.4375, 0.0875, 0.525, 0.175, 0.6125, 0.2625, 0.7, 0.35, 0, 0.4375, 0.0875, 0.525, 0.175, 0.6125, 0.2625, 0.7, 0.35, 0, 0.4375, 0.0875, 0.525, 0.175, 0.6125, 0.2625, 0.7, 0.35],
  "SoftwareVersions": "syngo MR B19",
  "SpacingBetweenSlices": 2,
  "StationName": "MRC35450",
  "TaskName": "cpro",
  "TotalReadoutTime": 0.0710717,
  "TxRefAmp": 346.353,
  "dcmmeta_affine": [
    [-1.999923825263977, -2.3368540880142064e-08, -0.017453067004680634, 104.6156234741211],
    [0.0011262634070590138, 1.9958312511444092, -0.12905970215797424, -79.98506164550781],
    [-0.017416691407561302, 0.1290646195411682, 1.9957551956176758, -104.05133819580078],
    [0.0, 0.0, 0.0, 1.0]
],
  "dcmmeta_reorient_transform": [
    [0.0, -1.0, 0.0, 103.0],
    [1.0, 0.0, 0.0, 0.0],
    [0.0, 0.0, 1.0, 0.0],
    [0.0, 0.0, 0.0, 1.0]
],
  "dcmmeta_shape": [104, 104, 72, 581],
  "dcmmeta_slice_dim": 2,
  "dcmmeta_version": 0.6,
  "global": {
    "const": {
      "AcquisitionMatrix": [104, 0, 0, 104],
      "AngioFlag": "N",
      "BitsAllocated": 16,
      "BitsStored": 12,
      "Columns": 936,
      "EchoNumbers": 1,
      "EchoTime": 34.8,
      "EchoTrainLength": 1,
      "FlipAngle": 55.0,
      "HighBit": 11,
      "ImageOrientationPatient": [0.99996192307697, -0.0005631317143, -0.0087083453584, -1.168427e-08, 0.99791561834852, -0.0645323070724],
      "ImagePositionPatient": [-936.58393308752, -955.38282646114, -29.821459407812],
      "ImageType": [
        "ORIGINAL",
        "PRIMARY",
        "M",
        "MB",
        "ND",
        "MOSAIC"
],
      "ImagedNucleus": "1H",
      "ImagingFrequency": 123.234513,
      "InPlanePhaseEncodingDirection": "COL",
      "MRAcquisitionType": "2D",
      "MagneticFieldStrength": 3.0,
      "Manufacturer": "SIEMENS",
      "ManufacturerModelName": "TrioTim",
      "Modality": "MR",
      "NumberOfAverages": 1.0,
      "NumberOfPhaseEncodingSteps": 91,
      "PercentPhaseFieldOfView": 100.0,
      "PercentSampling": 100.0,
      "PerformedProcedureStepStartTime": "102451.109000",
      "PhotometricInterpretation": "MONOCHROME2",
      "PixelBandwidth": 1923.0,
      "PixelRepresentation": 0,
      "PixelSpacing": [2.0, 2.0],
      "ProtocolName": "cmrr_mbep2d_bold_2mm_MB8_Task_8x",
      "RepetitionTime": 785.0,
      "Rows": 936,
      "SAR": 0.12633994817254,
      "SamplesPerPixel": 1,
      "ScanOptions": [
        "PFP",
        "FS"
],
      "ScanningSequence": "EP",
      "SequenceName": "epfid2d1_104",
      "SequenceVariant": [
        "SK",
        "SS"
],
      "SeriesDescription": "cmrr_mbep2d_bold_2mm_MB8_Task_8x",
      "SeriesNumber": 13,
      "SeriesTime": "112737.921000",
      "SliceLocation": -99.582008995307,
      "SliceThickness": 2.0,
      "SmallestImagePixelValue": 0,
      "SoftwareVersions": "syngo MR B19",
      "SpacingBetweenSlices": 1.9999999674173,
      "SpecificCharacterSet": "ISO_IR 100",
      "StudyID": "1",
      "StudyTime": "102451.062000",
      "TransmitCoilName": "Body",
      "VariableFlipAngleFlag": "N",
      "WindowCenterWidthExplanation": "Algo1",
      "dBdt": 0.0},
    "slices": {}
  },
  "time": {
    "samples": {
      "AcquisitionNumber": [1, 2, 3, 4, 5, 6, 7, 8, 9, 10, 11, 12, 13, 14, 15, 16, 17, 18, 19, 20, 21, 22, 23, 24, 25, 26, 27, 28, 29, 30, 31, 32, 33, 34, 35, 36, 37, 38, 39, 40, 41, 42, 43, 44, 45, 46, 47, 48, 49, 50, 51, 52, 53, 54, 55, 56, 57, 58, 59, 60, 61, 62, 63, 64, 65, 66, 67, 68, 69, 70, 71, 72, 73, 74, 75, 76, 77, 78, 79, 80, 81, 82, 83, 84, 85, 86, 87, 88, 89, 90, 91, 92, 93, 94, 95, 96, 97, 98, 99, 100, 101, 102, 103, 104, 105, 106, 107, 108, 109, 110, 111, 112, 113, 114, 115, 116, 117, 118, 119, 120, 121, 122, 123, 124, 125, 126, 127, 128, 129, 130, 131, 132, 133, 134, 135, 136, 137, 138, 139, 140, 141, 142, 143, 144, 145, 146, 147, 148, 149, 150, 151, 152, 153, 154, 155, 156, 157, 158, 159, 160, 161, 162, 163, 164, 165, 166, 167, 168, 169, 170, 171, 172, 173, 174, 175, 176, 177, 178, 179, 180, 181, 182, 183, 184, 185, 186, 187, 188, 189, 190, 191, 192, 193, 194, 195, 196, 197, 198, 199, 200, 201, 202, 203, 204, 205, 206, 207, 208, 209, 210, 211, 212, 213, 214, 215, 216, 217, 218, 219, 220, 221, 222, 223, 224, 225, 226, 227, 228, 229, 230, 231, 232, 233, 234, 235, 236, 237, 238, 239, 240, 241, 242, 243, 244, 245, 246, 247, 248, 249, 250, 251, 252, 253, 254, 255, 256, 257, 258, 259, 260, 261, 262, 263, 264, 265, 266, 267, 268, 269, 270, 271, 272, 273, 274, 275, 276, 277, 278, 279, 280, 281, 282, 283, 284, 285, 286, 287, 288, 289, 290, 291, 292, 293, 294, 295, 296, 297, 298, 299, 300, 301, 302, 303, 304, 305, 306, 307, 308, 309, 310, 311, 312, 313, 314, 315, 316, 317, 318, 319, 320, 321, 322, 323, 324, 325, 326, 327, 328, 329, 330, 331, 332, 333, 334, 335, 336, 337, 338, 339, 340, 341, 342, 343, 344, 345, 346, 347, 348, 349, 350, 351, 352, 353, 354, 355, 356, 357, 358, 359, 360, 361, 362, 363, 364, 365, 366, 367, 368, 369, 370, 371, 372, 373, 374, 375, 376, 377, 378, 379, 380, 381, 382, 383, 384, 385, 386, 387, 388, 389, 390, 391, 392, 393, 394, 395, 396, 397, 398, 399, 400, 401, 402, 403, 404, 405, 406, 407, 408, 409, 410, 411, 412, 413, 414, 415, 416, 417, 418, 419, 420, 421, 422, 423, 424, 425, 426, 427, 428, 429, 430, 431, 432, 433, 434, 435, 436, 437, 438, 439, 440, 441, 442, 443, 444, 445, 446, 447, 448, 449, 450, 451, 452, 453, 454, 455, 456, 457, 458, 459, 460, 461, 462, 463, 464, 465, 466, 467, 468, 469, 470, 471, 472, 473, 474, 475, 476, 477, 478, 479, 480, 481, 482, 483, 484, 485, 486, 487, 488, 489, 490, 491, 492, 493, 494, 495, 496, 497, 498, 499, 500, 501, 502, 503, 504, 505, 506, 507, 508, 509, 510, 511, 512, 513, 514, 515, 516, 517, 518, 519, 520, 521, 522, 523, 524, 525, 526, 527, 528, 529, 530, 531, 532, 533, 534, 535, 536, 537, 538, 539, 540, 541, 542, 543, 544, 545, 546, 547, 548, 549, 550, 551, 552, 553, 554, 555, 556, 557, 558, 559, 560, 561, 562, 563, 564, 565, 566, 567, 568, 569, 570, 571, 572, 573, 574, 575, 576, 577, 578, 579, 580, 581],
      "AcquisitionTime": ["112718.935000", "112719.722500", "112720.512500", "112721.300000", "112722.087500", "112722.877500", "112723.665000", "112724.452500", "112725.240000", "112726.030000", "112726.817500", "112727.605000", "112728.392500", "112729.182500", "112729.970000", "112730.757500", "112731.545000", "112732.335000", "112733.122500", "112733.910000", "112734.697500", "112735.487500", "112736.275000", "112737.062500", "112737.850000", "112738.640000", "112739.427500", "112740.215000", "112741.005000", "112741.792500", "112742.580000", "112743.367500", "112744.157500", "112744.945000", "112745.732500", "112746.520000", "112747.310000", "112748.097500", "112748.885000", "112749.672500", "112750.462500", "112751.250000", "112752.037500", "112752.825000", "112753.615000", "112754.402500", "112755.190000", "112755.977500", "112756.767500", "112757.555000", "112758.342500", "112759.132500", "112759.920000", "112800.707500", "112801.495000", "112802.285000", "112803.072500", "112803.860000", "112804.647500", "112805.437500", "112806.225000", "112807.012500", "112807.800000", "112808.590000", "112809.377500", "112810.165000", "112810.952500", "112811.742500", "112812.530000", "112813.317500", "112814.105000", "112814.895000", "112815.682500", "112816.470000", "112817.260000", "112818.047500", "112818.835000", "112819.622500", "112820.412500", "112821.200000", "112821.987500", "112822.775000", "112823.565000", "112824.352500", "112825.140000", "112825.927500", "112826.717500", "112827.505000", "112828.292500", "112829.080000", "112829.870000", "112830.657500", "112831.445000", "112832.235000", "112833.022500", "112833.810000", "112834.597500", "112835.387500", "112836.175000", "112836.962500", "112837.750000", "112838.540000", "112839.327500", "112840.115000", "112840.902500", "112841.692500", "112842.480000", "112843.267500", "112844.055000", "112844.845000", "112845.632500", "112846.420000", "112847.207500", "112847.997500", "112848.785000", "112849.572500", "112850.362500", "112851.150000", "112851.937500", "112852.725000", "112853.515000", "112854.302500", "112855.090000", "112855.877500", "112856.667500", "112857.455000", "112858.242500", "112859.030000", "112859.820000", "112900.607500", "112901.395000", "112902.182500", "112902.972500", "112903.760000", "112904.547500", "112905.335000", "112906.125000", "112906.912500", "112907.700000", "112908.490000", "112909.277500", "112910.065000", "112910.852500", "112911.642500", "112912.430000", "112913.217500", "112914.005000", "112914.795000", "112915.582500", "112916.370000", "112917.157500", "112917.947500", "112918.735000", "112919.522500", "112920.310000", "112921.100000", "112921.887500", "112922.675000", "112923.462500", "112924.252500", "112925.040000", "112925.827500", "112926.617500", "112927.405000", "112928.192500", "112928.980000", "112929.770000", "112930.557500", "112931.345000", "112932.132500", "112932.922500", "112933.710000", "112934.497500", "112935.285000", "112936.075000", "112936.862500", "112937.650000", "112938.437500", "112939.227500", "112940.015000", "112940.802500", "112941.590000", "112942.380000", "112943.167500", "112943.955000", "112944.745000", "112945.532500", "112946.320000", "112947.107500", "112947.897500", "112948.685000", "112949.472500", "112950.260000", "112951.050000", "112951.837500", "112952.625000", "112953.412500", "112954.202500", "112954.990000", "112955.777500", "112956.565000", "112957.355000", "112958.142500", "112958.930000", "112959.717500", "113000.507500", "113001.295000", "113002.082500", "113002.872500", "113003.660000", "113004.447500", "113005.235000", "113006.025000", "113006.812500", "113007.600000", "113008.387500", "113009.177500", "113009.965000", "113010.752500", "113011.540000", "113012.330000", "113013.117500", "113013.905000", "113014.692500", "113015.482500", "113016.270000", "113017.057500", "113017.845000", "113018.635000", "113019.422500", "113020.210000", "113021.000000", "113021.787500", "113022.575000", "113023.362500", "113024.152500", "113024.940000", "113025.727500", "113026.515000", "113027.305000", "113028.092500", "113028.880000", "113029.667500", "113030.457500", "113031.245000", "113032.032500", "113032.820000", "113033.610000", "113034.397500", "113035.185000", "113035.972500", "113036.762500", "113037.550000", "113038.337500", "113039.127500", "113039.915000", "113040.702500", "113041.490000", "113042.280000", "113043.067500", "113043.855000", "113044.642500", "113045.432500", "113046.220000", "113047.007500", "113047.795000", "113048.585000", "113049.372500", "113050.160000", "113050.947500", "113051.737500", "113052.525000", "113053.312500", "113054.100000", "113054.890000", "113055.677500", "113056.465000", "113057.255000", "113058.042500", "113058.830000", "113059.617500", "113100.407500", "113101.195000", "113101.982500", "113102.770000", "113103.560000", "113104.347500", "113105.135000", "113105.922500", "113106.712500", "113107.500000", "113108.287500", "113109.075000", "113109.865000", "113110.652500", "113111.440000", "113112.227500", "113113.017500", "113113.805000", "113114.592500", "113115.382500", "113116.170000", "113116.957500", "113117.745000", "113118.535000", "113119.322500", "113120.110000", "113120.897500", "113121.687500", "113122.475000", "113123.262500", "113124.050000", "113124.840000", "113125.627500", "113126.415000", "113127.202500", "113127.992500", "113128.780000", "113129.567500", "113130.355000", "113131.145000", "113131.932500", "113132.720000", "113133.510000", "113134.297500", "113135.085000", "113135.872500", "113136.662500", "113137.450000", "113138.237500", "113139.025000", "113139.815000", "113140.602500", "113141.390000", "113142.177500", "113142.967500", "113143.755000", "113144.542500", "113145.330000", "113146.120000", "113146.907500", "113147.695000", "113148.485000", "113149.272500", "113150.060000", "113150.847500", "113151.637500", "113152.425000", "113153.212500", "113154.000000", "113154.790000", "113155.577500", "113156.365000", "113157.152500", "113157.942500", "113158.730000", "113159.517500", "113200.305000", "113201.095000", "113201.882500", "113202.670000", "113203.457500", "113204.247500", "113205.035000", "113205.822500", "113206.612500", "113207.400000", "113208.187500", "113208.975000", "113209.765000", "113210.552500", "113211.340000", "113212.127500", "113212.917500", "113213.705000", "113214.492500", "113215.280000", "113216.070000", "113216.857500", "113217.645000", "113218.432500", "113219.222500", "113220.010000", "113220.797500", "113221.585000", "113222.375000", "113223.162500", "113223.950000", "113224.740000", "113225.527500", "113226.315000", "113227.102500", "113227.892500", "113228.680000", "113229.467500", "113230.255000", "113231.045000", "113231.832500", "113232.620000", "113233.407500", "113234.197500", "113234.985000", "113235.772500", "113236.560000", "113237.350000", "113238.137500", "113238.925000", "113239.712500", "113240.502500", "113241.290000", "113242.077500", "113242.867500", "113243.655000", "113244.442500", "113245.230000", "113246.020000", "113246.807500", "113247.595000", "113248.382500", "113249.172500", "113249.960000", "113250.747500", "113251.535000", "113252.325000", "113253.112500", "113253.900000", "113254.687500", "113255.477500", "113256.265000", "113257.052500", "113257.840000", "113258.630000", "113259.417500", "113300.205000", "113300.995000", "113301.782500", "113302.570000", "113303.357500", "113304.147500", "113304.935000", "113305.722500", "113306.510000", "113307.300000", "113308.087500", "113308.875000", "113309.662500", "113310.452500", "113311.240000", "113312.027500", "113312.815000", "113313.605000", "113314.392500", "113315.180000", "113315.967500", "113316.757500", "113317.545000", "113318.332500", "113319.122500", "113319.910000", "113320.697500", "113321.485000", "113322.275000", "113323.062500", "113323.850000", "113324.637500", "113325.427500", "113326.215000", "113327.002500", "113327.790000", "113328.580000", "113329.367500", "113330.155000", "113330.942500", "113331.732500", "113332.520000", "113333.307500", "113334.095000", "113334.885000", "113335.672500", "113336.460000", "113337.250000", "113338.037500", "113338.825000", "113339.612500", "113340.402500", "113341.190000", "113341.977500", "113342.765000", "113343.555000", "113344.342500", "113345.130000", "113345.917500", "113346.707500", "113347.495000", "113348.282500", "113349.070000", "113349.860000", "113350.647500", "113351.435000", "113352.222500", "113353.012500", "113353.800000", "113354.587500", "113355.377500", "113356.165000", "113356.952500", "113357.740000", "113358.530000", "113359.317500", "113400.105000", "113400.892500", "113401.682500", "113402.470000", "113403.257500", "113404.045000", "113404.835000", "113405.622500", "113406.410000", "113407.197500", "113407.987500", "113408.775000", "113409.562500", "113410.350000", "113411.140000", "113411.927500", "113412.715000", "113413.505000", "113414.292500", "113415.080000", "113415.867500", "113416.657500", "113417.445000", "113418.232500", "113419.020000", "113419.810000", "113420.597500", "113421.385000", "113422.172500", "113422.962500", "113423.750000", "113424.537500", "113425.325000", "113426.115000", "113426.902500", "113427.690000", "113428.477500", "113429.267500", "113430.055000", "113430.842500", "113431.632500", "113432.420000", "113433.207500", "113433.995000", "113434.785000", "113435.572500", "113436.360000", "113437.147500", "113437.937500", "113438.725000", "113439.512500", "113440.300000", "113441.090000", "113441.877500", "113442.665000", "113443.452500", "113444.242500", "113445.030000", "113445.817500", "113446.605000", "113447.395000", "113448.182500", "113448.970000", "113449.760000", "113450.547500", "113451.335000", "113452.122500", "113452.912500", "113453.700000", "113454.487500", "113455.275000", "113456.065000"],
      "ContentTime": ["112737.921000", "112737.921000", "112737.921000", "112737.921000", "112737.921000", "112737.921000", "112737.921000", "112737.937000", "112737.937000", "112737.937000", "112737.937000", "112737.937000", "112737.953000", "112737.953000", "112737.953000", "112737.953000", "112737.953000", "112737.953000", "112737.953000", "112737.968000", "112737.968000", "112737.968000", "112737.968000", "112757.890000", "112757.890000", "112757.890000", "112757.890000", "112757.890000", "112757.906000", "112757.906000", "112757.906000", "112757.906000", "112757.906000", "112757.906000", "112757.906000", "112757.906000", "112757.921000", "112757.921000", "112757.921000", "112757.921000", "112757.921000", "112757.921000", "112757.921000", "112757.921000", "112757.937000", "112757.937000", "112757.937000", "112757.937000", "112757.937000", "112817.890000", "112817.890000", "112817.890000", "112817.890000", "112817.890000", "112817.906000", "112817.906000", "112817.906000", "112817.906000", "112817.906000", "112817.906000", "112817.906000", "112817.906000", "112817.921000", "112817.921000", "112817.921000", "112817.921000", "112817.921000", "112817.921000", "112817.921000", "112817.937000", "112817.937000", "112817.937000", "112817.937000", "112817.937000", "112837.890000", "112837.890000", "112837.890000", "112837.890000", "112837.890000", "112837.906000", "112837.906000", "112837.906000", "112837.906000", "112837.906000", "112837.906000", "112837.906000", "112837.906000", "112837.921000", "112837.921000", "112837.921000", "112837.921000", "112837.921000", "112837.921000", "112837.921000", "112837.937000", "112837.937000", "112837.937000", "112837.937000", "112837.937000", "112837.937000", "112857.890000", "112857.890000", "112857.890000", "112857.890000", "112857.890000", "112857.906000", "112857.906000", "112857.906000", "112857.906000", "112857.906000", "112857.906000", "112857.921000", "112857.921000", "112857.921000", "112857.921000", "112857.921000", "112857.921000", "112857.921000", "112857.921000", "112857.937000", "112857.937000", "112857.937000", "112857.937000", "112857.937000", "112857.937000", "112917.890000", "112917.890000", "112917.890000", "112917.890000", "112917.890000", "112917.906000", "112917.906000", "112917.906000", "112917.906000", "112917.906000", "112917.906000", "112917.906000", "112917.906000", "112917.921000", "112917.921000", "112917.921000", "112917.921000", "112917.921000", "112917.921000", "112917.921000", "112917.921000", "112917.937000", "112917.937000", "112917.937000", "112917.937000", "112937.890000", "112937.890000", "112937.890000", "112937.890000", "112937.890000", "112937.906000", "112937.906000", "112937.906000", "112937.906000", "112937.906000", "112937.906000", "112937.906000", "112937.906000", "112937.921000", "112937.921000", "112937.921000", "112937.921000", "112937.921000", "112937.921000", "112937.921000", "112937.937000", "112937.937000", "112937.937000", "112937.937000", "112937.937000", "112937.937000", "112957.890000", "112957.890000", "112957.890000", "112957.890000", "112957.890000", "112957.906000", "112957.906000", "112957.906000", "112957.906000", "112957.906000", "112957.906000", "112957.906000", "112957.906000", "112957.921000", "112957.921000", "112957.921000", "112957.921000", "112957.921000", "112957.921000", "112957.921000", "112957.937000", "112957.937000", "112957.937000", "112957.937000", "112957.937000", "113017.890000", "113017.890000", "113017.890000", "113017.890000", "113017.890000", "113017.906000", "113017.906000", "113017.906000", "113017.906000", "113017.906000", "113017.906000", "113017.921000", "113017.921000", "113017.921000", "113017.921000", "113017.921000", "113017.921000", "113017.921000", "113017.921000", "113017.937000", "113017.984000", "113017.984000", "113018.000000", "113018.000000", "113018.000000", "113018.000000", "113037.890000", "113037.890000", "113037.890000", "113037.890000", "113037.890000", "113037.906000", "113037.906000", "113037.906000", "113037.906000", "113037.906000", "113037.906000", "113037.906000", "113037.906000", "113037.921000", "113037.921000", "113037.921000", "113037.921000", "113037.921000", "113037.921000", "113037.921000", "113037.937000", "113037.937000", "113037.937000", "113037.937000", "113037.937000", "113057.890000", "113057.890000", "113057.890000", "113057.890000", "113057.890000", "113057.906000", "113057.906000", "113057.906000", "113057.906000", "113057.906000", "113057.906000", "113057.906000", "113057.906000", "113057.921000", "113057.921000", "113057.921000", "113057.921000", "113057.921000", "113057.921000", "113057.937000", "113057.937000", "113057.937000", "113057.937000", "113057.937000", "113057.937000", "113057.937000", "113117.890000", "113117.890000", "113117.890000", "113117.890000", "113117.890000", "113117.906000", "113117.906000", "113117.906000", "113117.906000", "113117.906000", "113117.906000", "113117.906000", "113117.906000", "113117.921000", "113117.921000", "113117.921000", "113117.921000", "113117.921000", "113117.921000", "113117.921000", "113117.937000", "113117.937000", "113117.937000", "113117.937000", "113117.937000", "113137.890000", "113137.890000", "113137.890000", "113137.890000", "113137.890000", "113137.906000", "113137.921000", "113137.921000", "113137.921000", "113137.921000", "113137.921000", "113137.921000", "113137.921000", "113137.937000", "113137.937000", "113137.937000", "113137.937000", "113137.937000", "113137.937000", "113137.937000", "113137.937000", "113137.953000", "113137.953000", "113137.953000", "113137.953000", "113137.953000", "113157.890000", "113157.890000", "113157.890000", "113157.890000", "113157.890000", "113157.906000", "113157.906000", "113157.906000", "113157.906000", "113157.906000", "113157.906000", "113157.906000", "113157.906000", "113157.921000", "113157.921000", "113157.921000", "113157.921000", "113157.921000", "113157.921000", "113157.921000", "113157.937000", "113157.937000", "113157.937000", "113157.937000", "113157.937000", "113217.890000", "113217.890000", "113217.890000", "113217.890000", "113217.890000", "113217.906000", "113217.906000", "113217.906000", "113217.906000", "113217.906000", "113217.906000", "113217.906000", "113217.906000", "113217.921000", "113217.921000", "113217.921000", "113217.921000", "113217.921000", "113217.921000", "113217.921000", "113217.937000", "113217.937000", "113217.937000", "113217.937000", "113217.937000", "113217.937000", "113237.890000", "113237.890000", "113237.890000", "113237.890000", "113237.890000", "113237.906000", "113237.906000", "113237.906000", "113237.906000", "113237.906000", "113237.906000", "113237.906000", "113237.906000", "113237.921000", "113237.921000", "113237.921000", "113237.921000", "113237.921000", "113237.921000", "113237.921000", "113237.921000", "113237.937000", "113237.937000", "113237.937000", "113237.937000", "113257.890000", "113257.890000", "113257.890000", "113257.890000", "113257.890000", "113257.937000", "113257.937000", "113257.953000", "113257.953000", "113257.953000", "113257.953000", "113257.953000", "113257.953000", "113257.953000", "113257.953000", "113257.968000", "113257.968000", "113257.968000", "113257.968000", "113257.968000", "113257.968000", "113257.968000", "113257.968000", "113257.984000", "113257.984000", "113257.984000", "113317.890000", "113317.890000", "113317.890000", "113317.890000", "113317.890000", "113317.906000", "113317.906000", "113317.906000", "113317.906000", "113317.906000", "113317.906000", "113317.906000", "113317.906000", "113317.921000", "113317.921000", "113317.921000", "113317.921000", "113317.921000", "113317.921000", "113317.921000", "113317.937000", "113317.937000", "113317.937000", "113317.937000", "113317.937000", "113337.890000", "113337.890000", "113337.890000", "113337.890000", "113337.890000", "113337.906000", "113337.906000", "113337.906000", "113337.906000", "113337.906000", "113337.906000", "113337.906000", "113337.906000", "113337.921000", "113337.921000", "113337.921000", "113337.921000", "113337.921000", "113337.921000", "113337.921000", "113337.937000", "113337.937000", "113337.937000", "113337.937000", "113337.937000", "113337.937000", "113357.890000", "113357.890000", "113357.890000", "113357.890000", "113357.890000", "113357.906000", "113357.906000", "113357.906000", "113357.906000", "113357.906000", "113357.906000", "113357.906000", "113357.906000", "113357.921000", "113357.921000", "113357.921000", "113357.921000", "113357.921000", "113357.921000", "113357.921000", "113357.921000", "113357.937000", "113357.937000", "113357.937000", "113357.937000", "113417.890000", "113417.890000", "113417.890000", "113417.890000", "113417.890000", "113417.906000", "113417.906000", "113417.906000", "113417.906000", "113417.921000", "113417.921000", "113417.921000", "113417.921000", "113417.921000", "113417.921000", "113417.921000", "113417.921000", "113417.937000", "113417.937000", "113417.937000", "113417.937000", "113417.937000", "113417.937000", "113417.937000", "113417.953000", "113417.953000", "113437.890000", "113437.890000", "113437.890000", "113437.890000", "113437.890000", "113437.906000", "113437.906000", "113437.906000", "113437.906000", "113437.906000", "113437.906000", "113437.906000", "113437.906000", "113437.921000", "113437.921000", "113437.921000", "113437.921000", "113437.921000", "113437.921000", "113437.921000", "113437.937000", "113437.937000", "113437.937000", "113437.937000", "113437.937000", "113455.500000", "113455.500000", "113455.500000", "113455.500000", "113455.500000", "113455.500000", "113455.500000", "113455.515000", "113455.515000", "113455.515000", "113455.515000", "113455.515000", "113455.515000", "113455.531000", "113455.531000", "113455.531000", "113455.531000", "113455.531000", "113455.531000", "113455.531000", "113455.531000", "113455.546000", "113455.546000"],
