{
  "AcquisitionMatrixPE": 104,
  "AcquisitionNumber": 1,
  "AcquisitionTime": "12:07:57.712500",
  "BandwidthPerPixelPhaseEncode": 13.935,
  "BaseResolution": 104,
  "CoilString": "C:HEA;HEP",
  "ConversionSoftware": "dcm2niix",
  "ConversionSoftwareVersion": "v1.0.20210317",
  "DerivedVendorReportedEchoSpacing": 0.000690017,
  "DeviceSerialNumber": "35450",
  "DwellTime": 2.5e-06,
  "EchoTime": 0.0348,
  "EffectiveEchoSpacing": 0.000690017,
  "FlipAngle": 55,
  "ImageComments": "Unaliased MB8/PE3 (remote)",
  "ImageOrientationPatientDICOM": [0.999962, -0.000563132, -0.00870835, -1.16843e-08, 0.997916, -0.0645323],
  "ImageType": [
    "ORIGINAL",
    "PRIMARY",
    "M",
    "MB",
    "ND",
    "MOSAIC"
],
  "ImagingFrequency": 123.235,
  "InPlanePhaseEncodingDirectionDICOM": "COL",
  "InstitutionAddress": "Univeristy Ave. 197,Newark,North East,US,07102-1814",
  "InstitutionName": "RUBIC",
  "InstitutionalDepartmentName": "Department",
  "MRAcquisitionType": "2D",
  "MagneticFieldStrength": 3,
  "Manufacturer": "Siemens",
  "ManufacturersModelName": "TrioTim",
  "Modality": "MR",
  "MultibandAccelerationFactor": 8,
  "PartialFourier": 0.875,
  "PatientPosition": "HFS",
  "PercentPhaseFOV": 100,
  "PercentSampling": 100,
  "PhaseEncodingDirection": "j-",
  "PhaseEncodingSteps": 91,
  "PhaseResolution": 1,
  "PixelBandwidth": 1923,
  "ProcedureStepDescription": "Cole^Michael",
  "ProtocolName": "cmrr_mbep2d_bold_2mm_MB8_Task_8x",
  "PulseSequenceDetails": "%CustomerSeq%\\cmrr_mbep2d_bold",
  "ReceiveCoilName": "32Ch_Head",
  "ReconMatrixPE": 104,
  "RepetitionTime": 0.785,
  "SAR": 0.119698,
  "ScanOptions": "PFP\\FS",
  "ScanningSequence": "EP",
  "SequenceName": "epfid2d1_104",
  "SequenceVariant": "SK\\SS",
  "SeriesDescription": "cmrr_mbep2d_bold_2mm_MB8_Task_8x",
  "SeriesNumber": 23,
  "ShimSetting": [2106, -393, -7307, 618, -28, -7, 14, 84],
  "SliceThickness": 2,
  "SliceTiming": [0, 0.4375, 0.0875, 0.525, 0.175, 0.6125, 0.2625, 0.7, 0.35, 0, 0.4375, 0.0875, 0.525, 0.175, 0.6125, 0.2625, 0.7, 0.35, 0, 0.4375, 0.0875, 0.525, 0.175, 0.6125, 0.2625, 0.7, 0.35, 0, 0.4375, 0.0875, 0.525, 0.175, 0.6125, 0.2625, 0.7, 0.35, 0, 0.4375, 0.0875, 0.525, 0.175, 0.6125, 0.2625, 0.7, 0.35, 0, 0.4375, 0.0875, 0.525, 0.175, 0.6125, 0.2625, 0.7, 0.35, 0, 0.4375, 0.0875, 0.525, 0.175, 0.6125, 0.2625, 0.7, 0.35, 0, 0.4375, 0.0875, 0.525, 0.175, 0.6125, 0.2625, 0.7, 0.35],
  "SoftwareVersions": "syngo MR B19",
  "SpacingBetweenSlices": 2,
  "StationName": "MRC35450",
  "TaskName": "cpro",
  "TotalReadoutTime": 0.0710717,
  "TxRefAmp": 346.353,
  "dcmmeta_affine": [
    [-1.999923825263977, -2.3368540880142064e-08, -0.017453067004680634, 104.6156234741211],
    [0.0011262634070590138, 1.9958312511444092, -0.12905970215797424, -79.98506164550781],
    [-0.017416691407561302, 0.1290646195411682, 1.9957551956176758, -104.05133819580078],
    [0.0, 0.0, 0.0, 1.0]
],
  "dcmmeta_reorient_transform": [
    [0.0, -1.0, 0.0, 103.0],
    [1.0, 0.0, 0.0, 0.0],
    [0.0, 0.0, 1.0, 0.0],
    [0.0, 0.0, 0.0, 1.0]
],
  "dcmmeta_shape": [104, 104, 72, 581],
  "dcmmeta_slice_dim": 2,
  "dcmmeta_version": 0.6,
  "global": {
    "const": {
      "AcquisitionMatrix": [104, 0, 0, 104],
      "AngioFlag": "N",
      "BitsAllocated": 16,
      "BitsStored": 12,
      "Columns": 936,
      "EchoNumbers": 1,
      "EchoTime": 34.8,
      "EchoTrainLength": 1,
      "FlipAngle": 55.0,
      "HighBit": 11,
      "ImageOrientationPatient": [0.99996192307697, -0.0005631317143, -0.0087083453584, -1.168427e-08, 0.99791561834852, -0.0645323070724],
      "ImagePositionPatient": [-936.58393308752, -955.38282646114, -29.821459407812],
      "ImageType": [
        "ORIGINAL",
        "PRIMARY",
        "M",
        "MB",
        "ND",
        "MOSAIC"
],
      "ImagedNucleus": "1H",
      "ImagingFrequency": 123.234513,
      "InPlanePhaseEncodingDirection": "COL",
      "MRAcquisitionType": "2D",
      "MagneticFieldStrength": 3.0,
      "Manufacturer": "SIEMENS",
      "ManufacturerModelName": "TrioTim",
      "Modality": "MR",
      "NumberOfAverages": 1.0,
      "NumberOfPhaseEncodingSteps": 91,
      "PercentPhaseFieldOfView": 100.0,
      "PercentSampling": 100.0,
      "PerformedProcedureStepStartTime": "102451.109000",
      "PhotometricInterpretation": "MONOCHROME2",
      "PixelBandwidth": 1923.0,
      "PixelRepresentation": 0,
      "PixelSpacing": [2.0, 2.0],
      "ProtocolName": "cmrr_mbep2d_bold_2mm_MB8_Task_8x",
      "RepetitionTime": 785.0,
      "Rows": 936,
      "SAR": 0.11969770658937,
      "SamplesPerPixel": 1,
      "ScanOptions": [
        "PFP",
        "FS"
],
      "ScanningSequence": "EP",
      "SequenceName": "epfid2d1_104",
      "SequenceVariant": [
        "SK",
        "SS"
],
      "SeriesDescription": "cmrr_mbep2d_bold_2mm_MB8_Task_8x",
      "SeriesNumber": 23,
      "SeriesTime": "120815.703000",
      "SliceLocation": -99.582008995307,
      "SliceThickness": 2.0,
      "SmallestImagePixelValue": 0,
      "SoftwareVersions": "syngo MR B19",
      "SpacingBetweenSlices": 1.9999999674173,
      "SpecificCharacterSet": "ISO_IR 100",
      "StudyID": "1",
      "StudyTime": "102451.062000",
      "TransmitCoilName": "Body",
      "VariableFlipAngleFlag": "N",
      "WindowCenterWidthExplanation": "Algo1",
      "dBdt": 0.0},
    "slices": {}
  },
  "time": {
    "samples": {
      "AcquisitionNumber": [1, 2, 3, 4, 5, 6, 7, 8, 9, 10, 11, 12, 13, 14, 15, 16, 17, 18, 19, 20, 21, 22, 23, 24, 25, 26, 27, 28, 29, 30, 31, 32, 33, 34, 35, 36, 37, 38, 39, 40, 41, 42, 43, 44, 45, 46, 47, 48, 49, 50, 51, 52, 53, 54, 55, 56, 57, 58, 59, 60, 61, 62, 63, 64, 65, 66, 67, 68, 69, 70, 71, 72, 73, 74, 75, 76, 77, 78, 79, 80, 81, 82, 83, 84, 85, 86, 87, 88, 89, 90, 91, 92, 93, 94, 95, 96, 97, 98, 99, 100, 101, 102, 103, 104, 105, 106, 107, 108, 109, 110, 111, 112, 113, 114, 115, 116, 117, 118, 119, 120, 121, 122, 123, 124, 125, 126, 127, 128, 129, 130, 131, 132, 133, 134, 135, 136, 137, 138, 139, 140, 141, 142, 143, 144, 145, 146, 147, 148, 149, 150, 151, 152, 153, 154, 155, 156, 157, 158, 159, 160, 161, 162, 163, 164, 165, 166, 167, 168, 169, 170, 171, 172, 173, 174, 175, 176, 177, 178, 179, 180, 181, 182, 183, 184, 185, 186, 187, 188, 189, 190, 191, 192, 193, 194, 195, 196, 197, 198, 199, 200, 201, 202, 203, 204, 205, 206, 207, 208, 209, 210, 211, 212, 213, 214, 215, 216, 217, 218, 219, 220, 221, 222, 223, 224, 225, 226, 227, 228, 229, 230, 231, 232, 233, 234, 235, 236, 237, 238, 239, 240, 241, 242, 243, 244, 245, 246, 247, 248, 249, 250, 251, 252, 253, 254, 255, 256, 257, 258, 259, 260, 261, 262, 263, 264, 265, 266, 267, 268, 269, 270, 271, 272, 273, 274, 275, 276, 277, 278, 279, 280, 281, 282, 283, 284, 285, 286, 287, 288, 289, 290, 291, 292, 293, 294, 295, 296, 297, 298, 299, 300, 301, 302, 303, 304, 305, 306, 307, 308, 309, 310, 311, 312, 313, 314, 315, 316, 317, 318, 319, 320, 321, 322, 323, 324, 325, 326, 327, 328, 329, 330, 331, 332, 333, 334, 335, 336, 337, 338, 339, 340, 341, 342, 343, 344, 345, 346, 347, 348, 349, 350, 351, 352, 353, 354, 355, 356, 357, 358, 359, 360, 361, 362, 363, 364, 365, 366, 367, 368, 369, 370, 371, 372, 373, 374, 375, 376, 377, 378, 379, 380, 381, 382, 383, 384, 385, 386, 387, 388, 389, 390, 391, 392, 393, 394, 395, 396, 397, 398, 399, 400, 401, 402, 403, 404, 405, 406, 407, 408, 409, 410, 411, 412, 413, 414, 415, 416, 417, 418, 419, 420, 421, 422, 423, 424, 425, 426, 427, 428, 429, 430, 431, 432, 433, 434, 435, 436, 437, 438, 439, 440, 441, 442, 443, 444, 445, 446, 447, 448, 449, 450, 451, 452, 453, 454, 455, 456, 457, 458, 459, 460, 461, 462, 463, 464, 465, 466, 467, 468, 469, 470, 471, 472, 473, 474, 475, 476, 477, 478, 479, 480, 481, 482, 483, 484, 485, 486, 487, 488, 489, 490, 491, 492, 493, 494, 495, 496, 497, 498, 499, 500, 501, 502, 503, 504, 505, 506, 507, 508, 509, 510, 511, 512, 513, 514, 515, 516, 517, 518, 519, 520, 521, 522, 523, 524, 525, 526, 527, 528, 529, 530, 531, 532, 533, 534, 535, 536, 537, 538, 539, 540, 541, 542, 543, 544, 545, 546, 547, 548, 549, 550, 551, 552, 553, 554, 555, 556, 557, 558, 559, 560, 561, 562, 563, 564, 565, 566, 567, 568, 569, 570, 571, 572, 573, 574, 575, 576, 577, 578, 579, 580, 581],
      "AcquisitionTime": ["120757.712500", "120758.502500", "120759.290000", "120800.077500", "120800.865000", "120801.655000", "120802.442500", "120803.230000", "120804.017500", "120804.807500", "120805.595000", "120806.382500", "120807.170000", "120807.960000", "120808.747500", "120809.535000", "120810.325000", "120811.112500", "120811.900000", "120812.687500", "120813.477500", "120814.265000", "120815.052500", "120815.840000", "120816.630000", "120817.417500", "120818.205000", "120818.992500", "120819.782500", "120820.570000", "120821.357500", "120822.145000", "120822.935000", "120823.722500", "120824.510000", "120825.300000", "120826.087500", "120826.875000", "120827.662500", "120828.452500", "120829.240000", "120830.027500", "120830.815000", "120831.605000", "120832.392500", "120833.180000", "120833.967500", "120834.757500", "120835.545000", "120836.332500", "120837.120000", "120837.910000", "120838.697500", "120839.485000", "120840.272500", "120841.062500", "120841.850000", "120842.637500", "120843.427500", "120844.215000", "120845.002500", "120845.790000", "120846.580000", "120847.367500", "120848.155000", "120848.942500", "120849.732500", "120850.520000", "120851.307500", "120852.095000", "120852.885000", "120853.672500", "120854.460000", "120855.247500", "120856.037500", "120856.825000", "120857.612500", "120858.400000", "120859.190000", "120859.977500", "120900.765000", "120901.555000", "120902.342500", "120903.130000", "120903.917500", "120904.707500", "120905.495000", "120906.282500", "120907.070000", "120907.860000", "120908.647500", "120909.435000", "120910.222500", "120911.012500", "120911.800000", "120912.587500", "120913.375000", "120914.165000", "120914.952500", "120915.740000", "120916.527500", "120917.317500", "120918.105000", "120918.892500", "120919.682500", "120920.470000", "120921.257500", "120922.045000", "120922.835000", "120923.622500", "120924.410000", "120925.197500", "120925.987500", "120926.775000", "120927.562500", "120928.350000", "120929.140000", "120929.927500", "120930.715000", "120931.502500", "120932.292500", "120933.080000", "120933.867500", "120934.655000", "120935.445000", "120936.232500", "120937.020000", "120937.810000", "120938.597500", "120939.385000", "120940.172500", "120940.962500", "120941.750000", "120942.537500", "120943.325000", "120944.115000", "120944.902500", "120945.690000", "120946.477500", "120947.267500", "120948.055000", "120948.842500", "120949.630000", "120950.420000", "120951.207500", "120951.995000", "120952.782500", "120953.572500", "120954.360000", "120955.147500", "120955.937500", "120956.725000", "120957.512500", "120958.300000", "120959.090000", "120959.877500", "121000.665000", "121001.452500", "121002.242500", "121003.030000", "121003.817500", "121004.605000", "121005.395000", "121006.182500", "121006.970000", "121007.757500", "121008.547500", "121009.335000", "121010.122500", "121010.910000", "121011.700000", "121012.487500", "121013.275000", "121014.065000", "121014.852500", "121015.640000", "121016.427500", "121017.217500", "121018.005000", "121018.792500", "121019.580000", "121020.370000", "121021.157500", "121021.945000", "121022.732500", "121023.522500", "121024.310000", "121025.097500", "121025.885000", "121026.675000", "121027.462500", "121028.250000", "121029.037500", "121029.827500", "121030.615000", "121031.402500", "121032.192500", "121032.980000", "121033.767500", "121034.555000", "121035.345000", "121036.132500", "121036.920000", "121037.707500", "121038.497500", "121039.285000", "121040.072500", "121040.860000", "121041.650000", "121042.437500", "121043.225000", "121044.012500", "121044.802500", "121045.590000", "121046.377500", "121047.165000", "121047.955000", "121048.742500", "121049.530000", "121050.320000", "121051.107500", "121051.895000", "121052.682500", "121053.472500", "121054.260000", "121055.047500", "121055.835000", "121056.625000", "121057.412500", "121058.200000", "121058.987500", "121059.777500", "121100.565000", "121101.352500", "121102.140000", "121102.930000", "121103.717500", "121104.505000", "121105.292500", "121106.082500", "121106.870000", "121107.657500", "121108.447500", "121109.235000", "121110.022500", "121110.810000", "121111.600000", "121112.387500", "121113.175000", "121113.962500", "121114.752500", "121115.540000", "121116.327500", "121117.115000", "121117.905000", "121118.692500", "121119.480000", "121120.267500", "121121.057500", "121121.845000", "121122.632500", "121123.420000", "121124.210000", "121124.997500", "121125.785000", "121126.575000", "121127.362500", "121128.150000", "121128.937500", "121129.727500", "121130.515000", "121131.302500", "121132.090000", "121132.880000", "121133.667500", "121134.455000", "121135.242500", "121136.032500", "121136.820000", "121137.607500", "121138.395000", "121139.185000", "121139.972500", "121140.760000", "121141.550000", "121142.337500", "121143.125000", "121143.912500", "121144.702500", "121145.490000", "121146.277500", "121147.065000", "121147.855000", "121148.642500", "121149.430000", "121150.217500", "121151.007500", "121151.795000", "121152.582500", "121153.370000", "121154.160000", "121154.947500", "121155.735000", "121156.522500", "121157.312500", "121158.100000", "121158.887500", "121159.677500", "121200.465000", "121201.252500", "121202.040000", "121202.830000", "121203.617500", "121204.405000", "121205.192500", "121205.982500", "121206.770000", "121207.557500", "121208.345000", "121209.135000", "121209.922500", "121210.710000", "121211.497500", "121212.287500", "121213.075000", "121213.862500", "121214.650000", "121215.440000", "121216.227500", "121217.015000", "121217.805000", "121218.592500", "121219.380000", "121220.167500", "121220.957500", "121221.745000", "121222.532500", "121223.320000", "121224.110000", "121224.897500", "121225.685000", "121226.472500", "121227.262500", "121228.050000", "121228.837500", "121229.625000", "121230.415000", "121231.202500", "121231.990000", "121232.777500", "121233.567500", "121234.355000", "121235.142500", "121235.932500", "121236.720000", "121237.507500", "121238.295000", "121239.085000", "121239.872500", "121240.660000", "121241.447500", "121242.237500", "121243.025000", "121243.812500", "121244.600000", "121245.390000", "121246.177500", "121246.965000", "121247.752500", "121248.542500", "121249.330000", "121250.117500", "121250.905000", "121251.695000", "121252.482500", "121253.270000", "121254.060000", "121254.847500", "121255.635000", "121256.422500", "121257.212500", "121258.000000", "121258.787500", "121259.575000", "121300.365000", "121301.152500", "121301.940000", "121302.727500", "121303.517500", "121304.305000", "121305.092500", "121305.880000", "121306.670000", "121307.457500", "121308.245000", "121309.032500", "121309.822500", "121310.610000", "121311.397500", "121312.187500", "121312.975000", "121313.762500", "121314.550000", "121315.340000", "121316.127500", "121316.915000", "121317.702500", "121318.492500", "121319.280000", "121320.067500", "121320.855000", "121321.645000", "121322.432500", "121323.220000", "121324.007500", "121324.797500", "121325.585000", "121326.372500", "121327.160000", "121327.950000", "121328.737500", "121329.525000", "121330.315000", "121331.102500", "121331.890000", "121332.677500", "121333.467500", "121334.255000", "121335.042500", "121335.830000", "121336.620000", "121337.407500", "121338.195000", "121338.982500", "121339.772500", "121340.560000", "121341.347500", "121342.135000", "121342.925000", "121343.712500", "121344.500000", "121345.287500", "121346.077500", "121346.865000", "121347.652500", "121348.442500", "121349.230000", "121350.017500", "121350.805000", "121351.595000", "121352.382500", "121353.170000", "121353.957500", "121354.747500", "121355.535000", "121356.322500", "121357.110000", "121357.900000", "121358.687500", "121359.475000", "121400.262500", "121401.052500", "121401.840000", "121402.627500", "121403.415000", "121404.205000", "121404.992500", "121405.780000", "121406.570000", "121407.357500", "121408.145000", "121408.932500", "121409.722500", "121410.510000", "121411.297500", "121412.085000", "121412.875000", "121413.662500", "121414.450000", "121415.237500", "121416.027500", "121416.815000", "121417.602500", "121418.390000", "121419.180000", "121419.967500", "121420.755000", "121421.542500", "121422.332500", "121423.120000", "121423.907500", "121424.697500", "121425.485000", "121426.272500", "121427.060000", "121427.850000", "121428.637500", "121429.425000", "121430.212500", "121431.002500", "121431.790000", "121432.577500", "121433.365000", "121434.155000", "121434.942500", "121435.730000", "121436.517500", "121437.307500", "121438.095000", "121438.882500", "121439.670000", "121440.460000", "121441.247500", "121442.035000", "121442.825000", "121443.612500", "121444.400000", "121445.187500", "121445.977500", "121446.765000", "121447.552500", "121448.340000", "121449.130000", "121449.917500", "121450.705000", "121451.492500", "121452.282500", "121453.070000", "121453.857500", "121454.645000", "121455.435000", "121456.222500", "121457.010000", "121457.800000", "121458.587500", "121459.375000", "121500.162500", "121500.952500", "121501.740000", "121502.527500", "121503.315000", "121504.105000", "121504.892500", "121505.680000", "121506.467500", "121507.257500", "121508.045000", "121508.832500", "121509.620000", "121510.410000", "121511.197500", "121511.985000", "121512.772500", "121513.562500", "121514.350000", "121515.137500", "121515.927500", "121516.715000", "121517.502500", "121518.290000", "121519.080000", "121519.867500", "121520.655000", "121521.442500", "121522.232500", "121523.020000", "121523.807500", "121524.595000", "121525.385000", "121526.172500", "121526.960000", "121527.747500", "121528.537500", "121529.325000", "121530.112500", "121530.900000", "121531.690000", "121532.477500", "121533.265000", "121534.055000", "121534.842500"],
      "ContentTime": ["120815.703000", "120815.703000", "120815.718000", "120815.718000", "120815.718000", "120815.718000", "120815.718000", "120815.718000", "120815.718000", "120815.734000", "120815.734000", "120815.734000", "120815.734000", "120815.734000", "120815.734000", "120815.734000", "120815.734000", "120815.750000", "120815.750000", "120815.750000", "120835.687000", "120835.687000", "120835.687000", "120835.687000", "120835.687000", "120835.703000", "120835.703000", "120835.703000", "120835.703000", "120835.703000", "120835.703000", "120835.703000", "120835.703000", "120835.718000", "120835.718000", "120835.718000", "120835.718000", "120835.718000", "120835.718000", "120835.718000", "120835.734000", "120835.734000", "120835.734000", "120835.734000", "120835.734000", "120835.734000", "120855.687000", "120855.687000", "120855.687000", "120855.687000", "120855.687000", "120855.703000", "120855.703000", "120855.703000", "120855.703000", "120855.703000", "120855.703000", "120855.703000", "120855.703000", "120855.718000", "120855.718000", "120855.718000", "120855.718000", "120855.718000", "120855.718000", "120855.718000", "120855.734000", "120855.734000", "120855.734000", "120855.734000", "120855.734000", "120915.687000", "120915.687000", "120915.687000", "120915.687000", "120915.687000", "120915.703000", "120915.703000", "120915.703000", "120915.703000", "120915.703000", "120915.703000", "120915.703000", "120915.703000", "120915.718000", "120915.718000", "120915.718000", "120915.718000", "120915.718000", "120915.718000", "120915.718000", "120915.734000", "120915.734000", "120915.734000", "120915.734000", "120915.734000", "120915.734000", "120935.687000", "120935.687000", "120935.687000", "120935.687000", "120935.687000", "120935.703000", "120935.703000", "120935.703000", "120935.703000", "120935.703000", "120935.703000", "120935.703000", "120935.703000", "120935.718000", "120935.718000", "120935.718000", "120935.718000", "120935.718000", "120935.718000", "120935.718000", "120935.734000", "120935.734000", "120935.734000", "120935.734000", "120935.734000", "120955.687000", "120955.687000", "120955.687000", "120955.687000", "120955.687000", "120955.703000", "120955.703000", "120955.703000", "120955.703000", "120955.703000", "120955.703000", "120955.703000", "120955.703000", "120955.718000", "120955.718000", "120955.718000", "120955.718000", "120955.718000", "120955.718000", "120955.718000", "120955.718000", "120955.734000", "120955.734000", "120955.734000", "120955.734000", "120955.734000", "121015.687000", "121015.687000", "121015.687000", "121015.687000", "121015.687000", "121015.703000", "121015.703000", "121015.703000", "121015.703000", "121015.703000", "121015.703000", "121015.703000", "121015.703000", "121015.718000", "121015.718000", "121015.718000", "121015.718000", "121015.718000", "121015.718000", "121015.718000", "121015.734000", "121015.734000", "121015.734000", "121015.734000", "121015.734000", "121035.687000", "121035.687000", "121035.687000", "121035.687000", "121035.687000", "121035.703000", "121035.703000", "121035.703000", "121035.703000", "121035.703000", "121035.703000", "121035.703000", "121035.703000", "121035.718000", "121035.718000", "121035.718000", "121035.718000", "121035.718000", "121035.718000", "121035.718000", "121035.734000", "121035.734000", "121035.734000", "121035.734000", "121035.734000", "121055.687000", "121055.687000", "121055.687000", "121055.687000", "121055.687000", "121055.703000", "121055.703000", "121055.703000", "121055.703000", "121055.703000", "121055.703000", "121055.703000", "121055.703000", "121055.718000", "121055.718000", "121055.718000", "121055.718000", "121055.718000", "121055.718000", "121055.718000", "121055.718000", "121055.734000", "121055.734000", "121055.734000", "121055.734000", "121055.734000", "121115.687000", "121115.687000", "121115.687000", "121115.687000", "121115.687000", "121115.703000", "121115.703000", "121115.703000", "121115.703000", "121115.703000", "121115.703000", "121115.703000", "121115.703000", "121115.718000", "121115.718000", "121115.718000", "121115.718000", "121115.734000", "121115.734000", "121115.734000", "121115.734000", "121115.734000", "121115.734000", "121115.750000", "121115.750000", "121135.687000", "121135.687000", "121135.687000", "121135.687000", "121135.687000", "121135.703000", "121135.703000", "121135.703000", "121135.703000", "121135.703000", "121135.703000", "121135.703000", "121135.703000", "121135.718000", "121135.718000", "121135.718000", "121135.718000", "121135.718000", "121135.718000", "121135.718000", "121135.734000", "121135.734000", "121135.734000", "121135.734000", "121135.734000", "121135.734000", "121155.687000", "121155.687000", "121155.687000", "121155.687000", "121155.687000", "121155.703000", "121155.703000", "121155.703000", "121155.703000", "121155.703000", "121155.703000", "121155.703000", "121155.703000", "121155.718000", "121155.718000", "121155.718000", "121155.718000", "121155.718000", "121155.718000", "121155.718000", "121155.734000", "121155.734000", "121155.734000", "121155.734000", "121155.734000", "121215.687000", "121215.687000", "121215.687000", "121215.687000", "121215.687000", "121215.703000", "121215.703000", "121215.703000", "121215.703000", "121215.703000", "121215.703000", "121215.703000", "121215.703000", "121215.718000", "121215.718000", "121215.718000", "121215.718000", "121215.718000", "121215.718000", "121215.718000", "121215.734000", "121215.734000", "121215.734000", "121215.734000", "121215.734000", "121215.734000", "121235.687000", "121235.687000", "121235.687000", "121235.687000", "121235.687000", "121235.703000", "121235.703000", "121235.703000", "121235.703000", "121235.703000", "121235.703000", "121235.718000", "121235.718000", "121235.718000", "121235.734000", "121235.734000", "121235.734000", "121235.734000", "121235.734000", "121235.734000", "121235.734000", "121235.750000", "121235.750000", "121235.750000", "121235.750000", "121255.687000", "121255.687000", "121255.687000", "121255.687000", "121255.687000", "121255.703000", "121255.703000", "121255.703000", "121255.703000", "121255.703000", "121255.703000", "121255.703000", "121255.703000", "121255.718000", "121255.718000", "121255.718000", "121255.718000", "121255.718000", "121255.718000", "121255.718000", "121255.734000", "121255.734000", "121255.734000", "121255.734000", "121255.734000", "121255.734000", "121315.687000", "121315.687000", "121315.687000", "121315.687000", "121315.687000", "121315.703000", "121315.703000", "121315.703000", "121315.703000", "121315.703000", "121315.703000", "121315.703000", "121315.703000", "121315.718000", "121315.718000", "121315.718000", "121315.718000", "121315.718000", "121315.718000", "121315.718000", "121315.734000", "121315.734000", "121315.734000", "121315.734000", "121315.734000", "121335.687000", "121335.687000", "121335.687000", "121335.687000", "121335.687000", "121335.703000", "121335.703000", "121335.703000", "121335.703000", "121335.703000", "121335.703000", "121335.703000", "121335.703000", "121335.718000", "121335.718000", "121335.718000", "121335.718000", "121335.718000", "121335.718000", "121335.718000", "121335.734000", "121335.734000", "121335.734000", "121335.734000", "121335.734000", "121335.734000", "121355.687000", "121355.687000", "121355.687000", "121355.687000", "121355.687000", "121355.703000", "121355.703000", "121355.703000", "121355.703000", "121355.703000", "121355.703000", "121355.703000", "121355.703000", "121355.718000", "121355.718000", "121355.718000", "121355.718000", "121355.718000", "121355.718000", "121355.718000", "121355.734000", "121355.734000", "121355.734000", "121355.734000", "121355.734000", "121415.687000", "121415.687000", "121415.687000", "121415.687000", "121415.687000", "121415.703000", "121415.703000", "121415.703000", "121415.703000", "121415.703000", "121415.703000", "121415.703000", "121415.703000", "121415.718000", "121415.718000", "121415.718000", "121415.718000", "121415.718000", "121415.718000", "121415.718000", "121415.734000", "121415.734000", "121415.734000", "121415.734000", "121415.734000", "121415.734000", "121435.687000", "121435.687000", "121435.687000", "121435.687000", "121435.687000", "121435.703000", "121435.703000", "121435.703000", "121435.703000", "121435.703000", "121435.703000", "121435.703000", "121435.703000", "121435.718000", "121435.718000", "121435.718000", "121435.718000", "121435.718000", "121435.718000", "121435.718000", "121435.734000", "121435.734000", "121435.734000", "121435.734000", "121435.734000", "121455.687000", "121455.687000", "121455.687000", "121455.687000", "121455.687000", "121455.703000", "121455.703000", "121455.703000", "121455.703000", "121455.703000", "121455.703000", "121455.703000", "121455.703000", "121455.718000", "121455.718000", "121455.718000", "121455.718000", "121455.718000", "121455.718000", "121455.718000", "121455.734000", "121455.734000", "121455.734000", "121455.734000", "121455.734000", "121455.734000", "121515.687000", "121515.687000", "121515.687000", "121515.687000", "121515.687000", "121515.703000", "121515.703000", "121515.703000", "121515.703000", "121515.703000", "121515.703000", "121515.703000", "121515.703000", "121515.718000", "121515.718000", "121515.718000", "121515.718000", "121515.718000", "121515.718000", "121515.718000", "121515.734000", "121515.734000", "121515.734000", "121515.734000", "121515.734000", "121535.703000", "121535.703000", "121535.703000", "121535.703000", "121535.703000", "121535.703000", "121535.703000", "121535.718000", "121535.718000", "121535.718000", "121535.718000", "121535.718000", "121535.718000", "121535.734000", "121535.734000", "121535.734000", "121535.734000", "121535.734000", "121535.734000", "121535.734000", "121535.734000", "121535.750000", "121535.750000", "121535.750000", "121535.750000", "121535.750000"],
