{
  "AcquisitionMatrixPE": 104,
  "AcquisitionNumber": 1,
  "AcquisitionTime": "15:35:32.130000",
  "BandwidthPerPixelPhaseEncode": 13.935,
  "BaseResolution": 104,
  "CoilString": "C:HEA;HEP",
  "ConversionSoftware": "dcm2niix",
  "ConversionSoftwareVersion": "v1.0.20210317",
  "DerivedVendorReportedEchoSpacing": 0.000690017,
  "DeviceSerialNumber": "35450",
  "DwellTime": 2.5e-06,
  "EchoTime": 0.0348,
  "EffectiveEchoSpacing": 0.000690017,
  "FlipAngle": 55,
  "ImageComments": "Unaliased MB8/PE3",
  "ImageOrientationPatientDICOM": [1, 3.08791e-05, -0.000769807, 3.38229e-08, 0.999195, 0.0401244],
  "ImageType": [
    "ORIGINAL",
    "PRIMARY",
    "M",
    "MB",
    "ND",
    "MOSAIC"
],
  "ImagingFrequency": 123.235,
  "InPlanePhaseEncodingDirectionDICOM": "COL",
  "InstitutionAddress": "Univeristy Ave. 197,Newark,North East,US,07102-1814",
  "InstitutionName": "RUBIC",
  "InstitutionalDepartmentName": "Department",
  "MRAcquisitionType": "2D",
  "MagneticFieldStrength": 3,
  "Manufacturer": "Siemens",
  "ManufacturersModelName": "TrioTim",
  "Modality": "MR",
  "MultibandAccelerationFactor": 8,
  "PartialFourier": 0.875,
  "PatientPosition": "HFS",
  "PercentPhaseFOV": 100,
  "PercentSampling": 100,
  "PhaseEncodingDirection": "j-",
  "PhaseEncodingSteps": 91,
  "PhaseResolution": 1,
  "PixelBandwidth": 1923,
  "ProcedureStepDescription": "Cole^Michael",
  "ProtocolName": "cmrr_mbep2d_bold_2mm_MB8_Task_8x",
  "PulseSequenceDetails": "%CustomerSeq%\\cmrr_mbep2d_bold",
  "ReceiveCoilName": "32Ch_Head",
  "ReconMatrixPE": 104,
  "RepetitionTime": 0.785,
  "SAR": 0.12545,
  "ScanOptions": "PFP\\FS",
  "ScanningSequence": "EP",
  "SequenceName": "epfid2d1_104",
  "SequenceVariant": "SK\\SS",
  "SeriesDescription": "cmrr_mbep2d_bold_2mm_MB8_Task_8x",
  "SeriesNumber": 13,
  "ShimSetting": [2136, -396, -7361, 611, 126, -283, 243, 115],
  "SliceThickness": 2,
  "SliceTiming": [0, 0.4375, 0.0875, 0.525, 0.175, 0.6125, 0.2625, 0.7, 0.35, 0, 0.4375, 0.0875, 0.525, 0.175, 0.6125, 0.2625, 0.7, 0.35, 0, 0.4375, 0.0875, 0.525, 0.175, 0.6125, 0.2625, 0.7, 0.35, 0, 0.4375, 0.0875, 0.525, 0.175, 0.6125, 0.2625, 0.7, 0.35, 0, 0.4375, 0.0875, 0.525, 0.175, 0.6125, 0.2625, 0.7, 0.35, 0, 0.4375, 0.0875, 0.525, 0.175, 0.6125, 0.2625, 0.7, 0.35, 0, 0.4375, 0.0875, 0.525, 0.175, 0.6125, 0.2625, 0.7, 0.35, 0, 0.4375, 0.0875, 0.525, 0.175, 0.6125, 0.2625, 0.7, 0.35],
  "SoftwareVersions": "syngo MR B19",
  "SpacingBetweenSlices": 2,
  "StationName": "MRC35450",
  "TaskName": "cpro",
  "TotalReadoutTime": 0.0710717,
  "TxRefAmp": 316.635,
  "dcmmeta_affine": [
    [-1.9999994039535522, 6.764582849427825e-08, -0.001540852477774024, 103.8758316040039],
    [-6.175820453790948e-05, 1.9983893632888794, 0.08024879544973373, -95.44953918457031],
    [-0.0015396144008263946, -0.08024881780147552, 1.9983887672424316, -80.98434448242188],
    [0.0, 0.0, 0.0, 1.0]
],
  "dcmmeta_reorient_transform": [
    [0.0, -1.0, 0.0, 103.0],
    [1.0, 0.0, 0.0, 0.0],
    [0.0, 0.0, 1.0, 0.0],
    [0.0, 0.0, 0.0, 1.0]
],
  "dcmmeta_shape": [104, 104, 72, 581],
  "dcmmeta_slice_dim": 2,
  "dcmmeta_version": 0.6,
  "global": {
    "const": {
      "AcquisitionMatrix": [104, 0, 0, 104],
      "AngioFlag": "N",
      "BitsAllocated": 16,
      "BitsStored": 12,
      "Columns": 936,
      "EchoNumbers": 1,
      "EchoTime": 34.8,
      "EchoTrainLength": 1,
      "FlipAngle": 55.0,
      "HighBit": 11,
      "ImageOrientationPatient": [0.99999970322165, 3.087910234e-05, -0.0007698071778, 3.3822915e-08, 0.99919469164063, 0.04012440899488],
      "ImagePositionPatient": [-935.87561766422, -941.74024117954, -121.99300416356],
      "ImageType": [
        "ORIGINAL",
        "PRIMARY",
        "M",
        "MB",
        "ND",
        "MOSAIC"
],
      "ImagedNucleus": "1H",
      "ImagingFrequency": 123.234798,
      "InPlanePhaseEncodingDirection": "COL",
      "MRAcquisitionType": "2D",
      "MagneticFieldStrength": 3.0,
      "Manufacturer": "SIEMENS",
      "ManufacturerModelName": "TrioTim",
      "Modality": "MR",
      "NumberOfAverages": 1.0,
      "NumberOfPhaseEncodingSteps": 91,
      "PercentPhaseFieldOfView": 100.0,
      "PercentSampling": 100.0,
      "PerformedProcedureStepStartTime": "144413.281000",
      "PhotometricInterpretation": "MONOCHROME2",
      "PixelBandwidth": 1923.0,
      "PixelRepresentation": 0,
      "PixelSpacing": [2.0, 2.0],
      "ProtocolName": "cmrr_mbep2d_bold_2mm_MB8_Task_8x",
      "RepetitionTime": 785.0,
      "Rows": 936,
      "SAR": 0.12545003592959,
      "SamplesPerPixel": 1,
      "ScanOptions": [
        "PFP",
        "FS"
],
      "ScanningSequence": "EP",
      "SequenceName": "epfid2d1_104",
      "SequenceVariant": [
        "SK",
        "SS"
],
      "SeriesDescription": "cmrr_mbep2d_bold_2mm_MB8_Task_8x",
      "SeriesNumber": 13,
      "SeriesTime": "160426.000000",
      "SliceLocation": -84.828989731311,
      "SliceThickness": 2.0,
      "SmallestImagePixelValue": 0,
      "SoftwareVersions": "syngo MR B19",
      "SpacingBetweenSlices": 1.9999999568563,
      "SpecificCharacterSet": "ISO_IR 100",
      "StudyID": "1",
      "StudyTime": "144413.250000",
      "TransmitCoilName": "Body",
      "VariableFlipAngleFlag": "N",
      "WindowCenterWidthExplanation": "Algo1",
      "dBdt": 0.0},
    "slices": {}
  },
  "time": {
    "samples": {
      "AcquisitionNumber": [1, 2, 3, 4, 5, 6, 7, 8, 9, 10, 11, 12, 13, 14, 15, 16, 17, 18, 19, 20, 21, 22, 23, 24, 25, 26, 27, 28, 29, 30, 31, 32, 33, 34, 35, 36, 37, 38, 39, 40, 41, 42, 43, 44, 45, 46, 47, 48, 49, 50, 51, 52, 53, 54, 55, 56, 57, 58, 59, 60, 61, 62, 63, 64, 65, 66, 67, 68, 69, 70, 71, 72, 73, 74, 75, 76, 77, 78, 79, 80, 81, 82, 83, 84, 85, 86, 87, 88, 89, 90, 91, 92, 93, 94, 95, 96, 97, 98, 99, 100, 101, 102, 103, 104, 105, 106, 107, 108, 109, 110, 111, 112, 113, 114, 115, 116, 117, 118, 119, 120, 121, 122, 123, 124, 125, 126, 127, 128, 129, 130, 131, 132, 133, 134, 135, 136, 137, 138, 139, 140, 141, 142, 143, 144, 145, 146, 147, 148, 149, 150, 151, 152, 153, 154, 155, 156, 157, 158, 159, 160, 161, 162, 163, 164, 165, 166, 167, 168, 169, 170, 171, 172, 173, 174, 175, 176, 177, 178, 179, 180, 181, 182, 183, 184, 185, 186, 187, 188, 189, 190, 191, 192, 193, 194, 195, 196, 197, 198, 199, 200, 201, 202, 203, 204, 205, 206, 207, 208, 209, 210, 211, 212, 213, 214, 215, 216, 217, 218, 219, 220, 221, 222, 223, 224, 225, 226, 227, 228, 229, 230, 231, 232, 233, 234, 235, 236, 237, 238, 239, 240, 241, 242, 243, 244, 245, 246, 247, 248, 249, 250, 251, 252, 253, 254, 255, 256, 257, 258, 259, 260, 261, 262, 263, 264, 265, 266, 267, 268, 269, 270, 271, 272, 273, 274, 275, 276, 277, 278, 279, 280, 281, 282, 283, 284, 285, 286, 287, 288, 289, 290, 291, 292, 293, 294, 295, 296, 297, 298, 299, 300, 301, 302, 303, 304, 305, 306, 307, 308, 309, 310, 311, 312, 313, 314, 315, 316, 317, 318, 319, 320, 321, 322, 323, 324, 325, 326, 327, 328, 329, 330, 331, 332, 333, 334, 335, 336, 337, 338, 339, 340, 341, 342, 343, 344, 345, 346, 347, 348, 349, 350, 351, 352, 353, 354, 355, 356, 357, 358, 359, 360, 361, 362, 363, 364, 365, 366, 367, 368, 369, 370, 371, 372, 373, 374, 375, 376, 377, 378, 379, 380, 381, 382, 383, 384, 385, 386, 387, 388, 389, 390, 391, 392, 393, 394, 395, 396, 397, 398, 399, 400, 401, 402, 403, 404, 405, 406, 407, 408, 409, 410, 411, 412, 413, 414, 415, 416, 417, 418, 419, 420, 421, 422, 423, 424, 425, 426, 427, 428, 429, 430, 431, 432, 433, 434, 435, 436, 437, 438, 439, 440, 441, 442, 443, 444, 445, 446, 447, 448, 449, 450, 451, 452, 453, 454, 455, 456, 457, 458, 459, 460, 461, 462, 463, 464, 465, 466, 467, 468, 469, 470, 471, 472, 473, 474, 475, 476, 477, 478, 479, 480, 481, 482, 483, 484, 485, 486, 487, 488, 489, 490, 491, 492, 493, 494, 495, 496, 497, 498, 499, 500, 501, 502, 503, 504, 505, 506, 507, 508, 509, 510, 511, 512, 513, 514, 515, 516, 517, 518, 519, 520, 521, 522, 523, 524, 525, 526, 527, 528, 529, 530, 531, 532, 533, 534, 535, 536, 537, 538, 539, 540, 541, 542, 543, 544, 545, 546, 547, 548, 549, 550, 551, 552, 553, 554, 555, 556, 557, 558, 559, 560, 561, 562, 563, 564, 565, 566, 567, 568, 569, 570, 571, 572, 573, 574, 575, 576, 577, 578, 579, 580, 581],
      "AcquisitionTime": ["153532.130000", "153532.917500", "153533.705000", "153534.492500", "153535.282500", "153536.070000", "153536.857500", "153537.647500", "153538.435000", "153539.222500", "153540.010000", "153540.800000", "153541.587500", "153542.375000", "153543.162500", "153543.952500", "153544.740000", "153545.527500", "153546.315000", "153547.105000", "153547.892500", "153548.680000", "153549.467500", "153550.257500", "153551.045000", "153551.832500", "153552.620000", "153553.410000", "153554.197500", "153554.985000", "153555.775000", "153556.562500", "153557.350000", "153558.137500", "153558.927500", "153559.715000", "153600.502500", "153601.290000", "153602.080000", "153602.867500", "153603.655000", "153604.442500", "153605.232500", "153606.020000", "153606.807500", "153607.595000", "153608.385000", "153609.172500", "153609.960000", "153610.747500", "153611.537500", "153612.325000", "153613.112500", "153613.902500", "153614.690000", "153615.477500", "153616.265000", "153617.055000", "153617.842500", "153618.630000", "153619.417500", "153620.207500", "153620.995000", "153621.782500", "153622.570000", "153623.360000", "153624.147500", "153624.935000", "153625.722500", "153626.512500", "153627.300000", "153628.087500", "153628.875000", "153629.665000", "153630.452500", "153631.240000", "153632.030000", "153632.817500", "153633.605000", "153634.392500", "153635.182500", "153635.970000", "153636.757500", "153637.545000", "153638.335000", "153639.122500", "153639.910000", "153640.697500", "153641.487500", "153642.275000", "153643.062500", "153643.850000", "153644.640000", "153645.427500", "153646.215000", "153647.002500", "153647.792500", "153648.580000", "153649.367500", "153650.157500", "153650.945000", "153651.732500", "153652.520000", "153653.310000", "153654.097500", "153654.885000", "153655.672500", "153656.462500", "153657.250000", "153658.037500", "153658.825000", "153659.615000", "153700.402500", "153701.190000", "153701.977500", "153702.767500", "153703.555000", "153704.342500", "153705.132500", "153705.920000", "153706.707500", "153707.495000", "153708.285000", "153709.072500", "153709.860000", "153710.647500", "153711.437500", "153712.225000", "153713.012500", "153713.800000", "153714.590000", "153715.377500", "153716.165000", "153716.952500", "153717.742500", "153718.530000", "153719.317500", "153720.105000", "153720.895000", "153721.682500", "153722.470000", "153723.260000", "153724.047500", "153724.835000", "153725.622500", "153726.412500", "153727.200000", "153727.987500", "153728.775000", "153729.565000", "153730.352500", "153731.140000", "153731.927500", "153732.717500", "153733.505000", "153734.292500", "153735.080000", "153735.870000", "153736.657500", "153737.445000", "153738.232500", "153739.022500", "153739.810000", "153740.597500", "153741.387500", "153742.175000", "153742.962500", "153743.750000", "153744.540000", "153745.327500", "153746.115000", "153746.902500", "153747.692500", "153748.480000", "153749.267500", "153750.055000", "153750.845000", "153751.632500", "153752.420000", "153753.207500", "153753.997500", "153754.785000", "153755.572500", "153756.360000", "153757.150000", "153757.937500", "153758.725000", "153759.515000", "153800.302500", "153801.090000", "153801.877500", "153802.667500", "153803.455000", "153804.242500", "153805.030000", "153805.820000", "153806.607500", "153807.395000", "153808.182500", "153808.972500", "153809.760000", "153810.547500", "153811.335000", "153812.125000", "153812.912500", "153813.700000", "153814.487500", "153815.277500", "153816.065000", "153816.852500", "153817.642500", "153818.430000", "153819.217500", "153820.005000", "153820.795000", "153821.582500", "153822.370000", "153823.157500", "153823.947500", "153824.735000", "153825.522500", "153826.310000", "153827.100000", "153827.887500", "153828.675000", "153829.462500", "153830.252500", "153831.040000", "153831.827500", "153832.615000", "153833.405000", "153834.192500", "153834.980000", "153835.770000", "153836.557500", "153837.345000", "153838.132500", "153838.922500", "153839.710000", "153840.497500", "153841.285000", "153842.075000", "153842.862500", "153843.650000", "153844.437500", "153845.227500", "153846.015000", "153846.802500", "153847.590000", "153848.380000", "153849.167500", "153849.955000", "153850.742500", "153851.532500", "153852.320000", "153853.107500", "153853.897500", "153854.685000", "153855.472500", "153856.260000", "153857.050000", "153857.837500", "153858.625000", "153859.412500", "153900.202500", "153900.990000", "153901.777500", "153902.565000", "153903.355000", "153904.142500", "153904.930000", "153905.717500", "153906.507500", "153907.295000", "153908.082500", "153908.870000", "153909.660000", "153910.447500", "153911.235000", "153912.025000", "153912.812500", "153913.600000", "153914.387500", "153915.177500", "153915.965000", "153916.752500", "153917.540000", "153918.330000", "153919.117500", "153919.905000", "153920.692500", "153921.482500", "153922.270000", "153923.057500", "153923.845000", "153924.635000", "153925.422500", "153926.210000", "153926.997500", "153927.787500", "153928.575000", "153929.362500", "153930.152500", "153930.940000", "153931.727500", "153932.515000", "153933.305000", "153934.092500", "153934.880000", "153935.667500", "153936.457500", "153937.245000", "153938.032500", "153938.820000", "153939.610000", "153940.397500", "153941.185000", "153941.972500", "153942.762500", "153943.550000", "153944.337500", "153945.125000", "153945.915000", "153946.702500", "153947.490000", "153948.280000", "153949.067500", "153949.855000", "153950.642500", "153951.432500", "153952.220000", "153953.007500", "153953.795000", "153954.585000", "153955.372500", "153956.160000", "153956.947500", "153957.737500", "153958.525000", "153959.312500", "154000.100000", "154000.890000", "154001.677500", "154002.465000", "154003.252500", "154004.042500", "154004.830000", "154005.617500", "154006.407500", "154007.195000", "154007.982500", "154008.770000", "154009.560000", "154010.347500", "154011.135000", "154011.922500", "154012.712500", "154013.500000", "154014.287500", "154015.075000", "154015.865000", "154016.652500", "154017.440000", "154018.227500", "154019.017500", "154019.805000", "154020.592500", "154021.382500", "154022.170000", "154022.957500", "154023.745000", "154024.535000", "154025.322500", "154026.110000", "154026.897500", "154027.687500", "154028.475000", "154029.262500", "154030.050000", "154030.840000", "154031.627500", "154032.415000", "154033.202500", "154033.992500", "154034.780000", "154035.567500", "154036.355000", "154037.145000", "154037.932500", "154038.720000", "154039.510000", "154040.297500", "154041.085000", "154041.872500", "154042.662500", "154043.450000", "154044.237500", "154045.025000", "154045.815000", "154046.602500", "154047.390000", "154048.177500", "154048.967500", "154049.755000", "154050.542500", "154051.330000", "154052.120000", "154052.907500", "154053.695000", "154054.482500", "154055.272500", "154056.060000", "154056.847500", "154057.637500", "154058.425000", "154059.212500", "154100.000000", "154100.790000", "154101.577500", "154102.365000", "154103.152500", "154103.942500", "154104.730000", "154105.517500", "154106.305000", "154107.095000", "154107.882500", "154108.670000", "154109.457500", "154110.247500", "154111.035000", "154111.822500", "154112.610000", "154113.400000", "154114.187500", "154114.975000", "154115.765000", "154116.552500", "154117.340000", "154118.127500", "154118.917500", "154119.705000", "154120.492500", "154121.280000", "154122.070000", "154122.857500", "154123.645000", "154124.432500", "154125.222500", "154126.010000", "154126.797500", "154127.585000", "154128.375000", "154129.162500", "154129.950000", "154130.737500", "154131.527500", "154132.315000", "154133.102500", "154133.892500", "154134.680000", "154135.467500", "154136.255000", "154137.045000", "154137.832500", "154138.620000", "154139.407500", "154140.197500", "154140.985000", "154141.772500", "154142.560000", "154143.350000", "154144.137500", "154144.925000", "154145.712500", "154146.502500", "154147.290000", "154148.077500", "154148.865000", "154149.655000", "154150.442500", "154151.230000", "154152.020000", "154152.807500", "154153.595000", "154154.382500", "154155.172500", "154155.960000", "154156.747500", "154157.535000", "154158.325000", "154159.112500", "154159.900000", "154200.687500", "154201.477500", "154202.265000", "154203.052500", "154203.840000", "154204.630000", "154205.417500", "154206.205000", "154206.992500", "154207.782500", "154208.570000", "154209.357500", "154210.147500", "154210.935000", "154211.722500", "154212.510000", "154213.300000", "154214.087500", "154214.875000", "154215.662500", "154216.452500", "154217.240000", "154218.027500", "154218.815000", "154219.605000", "154220.392500", "154221.180000", "154221.967500", "154222.757500", "154223.545000", "154224.332500", "154225.120000", "154225.910000", "154226.697500", "154227.485000", "154228.275000", "154229.062500", "154229.850000", "154230.637500", "154231.427500", "154232.215000", "154233.002500", "154233.790000", "154234.580000", "154235.367500", "154236.155000", "154236.942500", "154237.732500", "154238.520000", "154239.307500", "154240.095000", "154240.885000", "154241.672500", "154242.460000", "154243.247500", "154244.037500", "154244.825000", "154245.612500", "154246.402500", "154247.190000", "154247.977500", "154248.765000", "154249.555000", "154250.342500", "154251.130000", "154251.917500", "154252.707500", "154253.495000", "154254.282500", "154255.070000", "154255.860000", "154256.647500", "154257.435000", "154258.222500", "154259.012500", "154259.800000", "154300.587500", "154301.375000", "154302.165000", "154302.952500", "154303.740000", "154304.530000", "154305.317500", "154306.105000", "154306.892500", "154307.682500", "154308.470000", "154309.257500"],
      "ContentTime": ["160426.000000", "160426.000000", "160426.000000", "160525.968000", "160525.984000", "160525.984000", "160525.984000", "160525.984000", "160525.984000", "160525.984000", "160525.984000", "160526.000000", "160526.000000", "160526.000000", "160526.000000", "160526.000000", "160526.000000", "160526.000000", "160526.015000", "160526.015000", "160526.015000", "160526.015000", "160526.015000", "160526.015000", "160526.015000", "160526.031000", "160526.031000", "160526.031000", "160526.031000", "160526.031000", "160625.968000", "160625.984000", "160625.984000", "160625.984000", "160625.984000", "160625.984000", "160625.984000", "160625.984000", "160626.000000", "160626.000000", "160626.000000", "160626.000000", "160626.000000", "160626.000000", "160626.000000", "160626.015000", "160626.015000", "160626.015000", "160626.015000", "160626.015000", "160626.015000", "160626.015000", "160626.031000", "160626.031000", "160626.031000", "160626.031000", "160626.031000", "160626.031000", "160725.968000", "160725.984000", "160725.984000", "160725.984000", "160725.984000", "160725.984000", "160725.984000", "160725.984000", "160726.000000", "160726.000000", "160726.000000", "160726.000000", "160726.000000", "160726.000000", "160726.000000", "160726.015000", "160726.015000", "160726.015000", "160726.015000", "160726.015000", "160726.015000", "160726.015000", "160726.031000", "160726.031000", "160726.031000", "160726.031000", "160726.031000", "160825.968000", "160825.984000", "160825.984000", "160825.984000", "160825.984000", "160825.984000", "160825.984000", "160825.984000", "160826.000000", "160826.000000", "160826.000000", "160826.000000", "160826.000000", "160826.000000", "160826.000000", "160826.015000", "160826.015000", "160826.015000", "160826.015000", "160826.015000", "160826.015000", "160826.015000", "160826.031000", "160826.031000", "160826.031000", "160826.031000", "160826.031000", "160925.968000", "160925.984000", "160925.984000", "160925.984000", "160925.984000", "160925.984000", "160925.984000", "160925.984000", "160926.000000", "160926.000000", "160926.000000", "160926.000000", "160926.000000", "160926.000000", "160926.000000", "160926.000000", "160926.015000", "160926.015000", "160926.015000", "160926.015000", "160926.015000", "160926.015000", "160926.015000", "160926.031000", "160926.031000", "160926.031000", "160926.031000", "160926.031000", "161025.968000", "161025.984000", "161025.984000", "161025.984000", "161025.984000", "161025.984000", "161025.984000", "161025.984000", "161026.000000", "161026.000000", "161026.000000", "161026.000000", "161026.000000", "161026.000000", "161026.000000", "161026.000000", "161026.015000", "161026.015000", "161026.015000", "161026.015000", "161026.015000", "161026.015000", "161026.015000", "161026.031000", "161026.031000", "161026.031000", "161026.031000", "161026.031000", "161125.968000", "161125.984000", "161125.984000", "161125.984000", "161125.984000", "161125.984000", "161125.984000", "161125.984000", "161126.000000", "161126.000000", "161126.000000", "161126.000000", "161126.000000", "161126.000000", "161126.000000", "161126.015000", "161126.015000", "161126.015000", "161126.015000", "161126.015000", "161126.015000", "161126.031000", "161126.031000", "161126.031000", "161126.031000", "161126.031000", "161126.031000", "161225.968000", "161225.984000", "161225.984000", "161225.984000", "161225.984000", "161225.984000", "161225.984000", "161225.984000", "161226.000000", "161226.000000", "161226.000000", "161226.000000", "161226.000000", "161226.000000", "161226.015000", "161226.015000", "161226.015000", "161226.015000", "161226.015000", "161226.015000", "161226.015000", "161226.031000", "161226.031000", "161226.031000", "161226.031000", "161226.031000", "161226.031000", "161226.031000", "161325.968000", "161325.984000", "161325.984000", "161325.984000", "161325.984000", "161325.984000", "161325.984000", "161325.984000", "161326.000000", "161326.000000", "161326.000000", "161326.000000", "161326.000000", "161326.000000", "161326.000000", "161326.015000", "161326.015000", "161326.015000", "161326.015000", "161326.015000", "161326.015000", "161326.015000", "161326.015000", "161326.031000", "161326.031000", "161326.031000", "161326.031000", "161425.968000", "161425.984000", "161425.984000", "161425.984000", "161425.984000", "161425.984000", "161425.984000", "161425.984000", "161426.000000", "161426.000000", "161426.000000", "161426.000000", "161426.000000", "161426.000000", "161426.000000", "161426.015000", "161426.015000", "161426.015000", "161426.015000", "161426.015000", "161426.015000", "161426.015000", "161426.031000", "161426.031000", "161426.031000", "161426.031000", "161426.031000", "161426.031000", "161525.968000", "161525.984000", "161525.984000", "161526.000000", "161526.000000", "161526.000000", "161526.000000", "161526.000000", "161526.000000", "161526.000000", "161526.015000", "161526.015000", "161526.015000", "161526.015000", "161526.015000", "161526.015000", "161526.015000", "161526.031000", "161526.031000", "161526.031000", "161526.031000", "161526.031000", "161526.046000", "161526.046000", "161526.046000", "161526.046000", "161526.046000", "161625.968000", "161625.984000", "161625.984000", "161625.984000", "161625.984000", "161625.984000", "161625.984000", "161625.984000", "161625.984000", "161626.000000", "161626.000000", "161626.000000", "161626.000000", "161626.000000", "161626.000000", "161626.015000", "161626.015000", "161626.015000", "161626.015000", "161626.015000", "161626.031000", "161626.031000", "161626.031000", "161626.031000", "161626.031000", "161626.046000", "161626.046000", "161626.046000", "161725.968000", "161725.968000", "161725.968000", "161725.968000", "161725.968000", "161725.968000", "161725.984000", "161725.984000", "161725.984000", "161725.984000", "161725.984000", "161725.984000", "161725.984000", "161726.000000", "161726.000000", "161726.000000", "161726.000000", "161726.000000", "161726.015000", "161726.015000", "161726.015000", "161726.015000", "161726.015000", "161726.015000", "161726.031000", "161726.031000", "161726.031000", "161825.968000", "161825.968000", "161825.968000", "161825.968000", "161825.968000", "161825.968000", "161825.984000", "161825.984000", "161825.984000", "161825.984000", "161825.984000", "161825.984000", "161825.984000", "161826.000000", "161826.000000", "161826.000000", "161826.000000", "161826.000000", "161826.000000", "161826.015000", "161826.015000", "161826.015000", "161826.015000", "161826.015000", "161826.015000", "161826.015000", "161826.031000", "161826.031000", "161925.968000", "161925.968000", "161925.968000", "161925.968000", "161925.968000", "161925.968000", "161925.984000", "161925.984000", "161925.984000", "161925.984000", "161925.984000", "161925.984000", "161925.984000", "161926.000000", "161926.000000", "161926.000000", "161926.000000", "161926.015000", "161926.015000", "161926.015000", "161926.015000", "161926.015000", "161926.015000", "161926.015000", "161926.031000", "161926.031000", "161926.031000", "162025.968000", "162025.968000", "162025.968000", "162025.968000", "162025.968000", "162025.968000", "162025.984000", "162025.984000", "162025.984000", "162025.984000", "162025.984000", "162025.984000", "162026.000000", "162026.000000", "162026.000000", "162026.000000", "162026.000000", "162026.000000", "162026.000000", "162026.015000", "162026.015000", "162026.015000", "162026.015000", "162026.015000", "162026.015000", "162026.015000", "162026.031000", "162026.031000", "162125.968000", "162125.968000", "162125.968000", "162125.968000", "162125.968000", "162125.968000", "162125.984000", "162125.984000", "162125.984000", "162125.984000", "162125.984000", "162125.984000", "162125.984000", "162126.000000", "162126.000000", "162126.000000", "162126.000000", "162126.000000", "162126.000000", "162126.015000", "162126.015000", "162126.015000", "162126.015000", "162126.015000", "162126.015000", "162126.015000", "162126.031000", "162225.968000", "162225.968000", "162225.968000", "162225.968000", "162225.968000", "162225.968000", "162225.984000", "162225.984000", "162225.984000", "162225.984000", "162225.984000", "162225.984000", "162225.984000", "162226.000000", "162226.000000", "162226.000000", "162226.000000", "162226.000000", "162226.000000", "162226.015000", "162226.015000", "162226.015000", "162226.015000", "162226.015000", "162226.015000", "162226.031000", "162226.031000", "162325.968000", "162325.968000", "162325.968000", "162325.968000", "162325.968000", "162325.968000", "162325.984000", "162325.984000", "162325.984000", "162325.984000", "162325.984000", "162325.984000", "162325.984000", "162326.000000", "162326.000000", "162326.000000", "162326.000000", "162326.000000", "162326.000000", "162326.015000", "162326.015000", "162326.015000", "162326.015000", "162326.015000", "162326.015000", "162326.015000", "162326.031000", "162326.031000", "162425.968000", "162425.968000", "162425.968000", "162425.968000", "162425.968000", "162425.968000", "162425.984000", "162425.984000", "162425.984000", "162425.984000", "162425.984000", "162425.984000", "162425.984000", "162426.000000", "162426.000000", "162426.000000", "162426.000000", "162426.000000", "162426.000000", "162426.015000", "162426.015000", "162426.015000", "162426.015000", "162426.015000", "162426.015000", "162426.015000", "162426.031000", "162525.968000", "162525.968000", "162525.968000", "162525.968000", "162525.968000", "162525.968000", "162525.984000", "162525.984000", "162525.984000", "162525.984000", "162525.984000", "162525.984000", "162525.984000", "162526.000000", "162526.000000", "162526.000000", "162526.000000", "162526.000000", "162526.015000", "162526.015000", "162526.015000", "162526.015000", "162526.015000", "162526.015000", "162526.015000", "162526.031000", "162526.031000", "162526.031000", "162526.453000"],
