{
  "AcquisitionMatrixPE": 104,
  "AcquisitionNumber": 1,
  "AcquisitionTime": "16:33:44.737500",
  "BandwidthPerPixelPhaseEncode": 13.935,
  "BaseResolution": 104,
  "CoilString": "C:HEA;HEP",
  "ConversionSoftware": "dcm2niix",
  "ConversionSoftwareVersion": "v1.0.20210317",
  "DerivedVendorReportedEchoSpacing": 0.000690017,
  "DeviceSerialNumber": "35450",
  "DwellTime": 2.5e-06,
  "EchoTime": 0.0348,
  "EffectiveEchoSpacing": 0.000690017,
  "FlipAngle": 55,
  "ImageComments": "Unaliased MB8/PE3",
  "ImageOrientationPatientDICOM": [1, 3.08791e-05, -0.000769807, 3.38229e-08, 0.999195, 0.0401244],
  "ImageType": [
    "ORIGINAL",
    "PRIMARY",
    "M",
    "MB",
    "ND",
    "MOSAIC"
],
  "ImagingFrequency": 123.235,
  "InPlanePhaseEncodingDirectionDICOM": "COL",
  "InstitutionAddress": "Univeristy Ave. 197,Newark,North East,US,07102-1814",
  "InstitutionName": "RUBIC",
  "InstitutionalDepartmentName": "Department",
  "MRAcquisitionType": "2D",
  "MagneticFieldStrength": 3,
  "Manufacturer": "Siemens",
  "ManufacturersModelName": "TrioTim",
  "Modality": "MR",
  "MultibandAccelerationFactor": 8,
  "PartialFourier": 0.875,
  "PatientPosition": "HFS",
  "PercentPhaseFOV": 100,
  "PercentSampling": 100,
  "PhaseEncodingDirection": "j-",
  "PhaseEncodingSteps": 91,
  "PhaseResolution": 1,
  "PixelBandwidth": 1923,
  "ProcedureStepDescription": "Cole^Michael",
  "ProtocolName": "cmrr_mbep2d_bold_2mm_MB8_Task_8x",
  "PulseSequenceDetails": "%CustomerSeq%\\cmrr_mbep2d_bold",
  "ReceiveCoilName": "32Ch_Head",
  "ReconMatrixPE": 104,
  "RepetitionTime": 0.785,
  "SAR": 0.119095,
  "ScanOptions": "PFP\\FS",
  "ScanningSequence": "EP",
  "SequenceName": "epfid2d1_104",
  "SequenceVariant": "SK\\SS",
  "SeriesDescription": "cmrr_mbep2d_bold_2mm_MB8_Task_8x",
  "SeriesNumber": 27,
  "ShimSetting": [2136, -396, -7361, 611, 126, -283, 243, 115],
  "SliceThickness": 2,
  "SliceTiming": [0, 0.4375, 0.0875, 0.525, 0.175, 0.6125, 0.2625, 0.7, 0.35, 0, 0.4375, 0.0875, 0.525, 0.175, 0.6125, 0.2625, 0.7, 0.35, 0, 0.4375, 0.0875, 0.525, 0.175, 0.6125, 0.2625, 0.7, 0.35, 0, 0.4375, 0.0875, 0.525, 0.175, 0.6125, 0.2625, 0.7, 0.35, 0, 0.4375, 0.0875, 0.525, 0.175, 0.6125, 0.2625, 0.7, 0.35, 0, 0.4375, 0.0875, 0.525, 0.175, 0.6125, 0.2625, 0.7, 0.35, 0, 0.4375, 0.0875, 0.525, 0.175, 0.6125, 0.2625, 0.7, 0.35, 0, 0.4375, 0.0875, 0.525, 0.175, 0.6125, 0.2625, 0.7, 0.35],
  "SoftwareVersions": "syngo MR B19",
  "SpacingBetweenSlices": 2,
  "StationName": "MRC35450",
  "TaskName": "cpro",
  "TotalReadoutTime": 0.0710717,
  "TxRefAmp": 316.635,
  "dcmmeta_affine": [
    [-1.9999994039535522, 6.764582849427825e-08, -0.001540852477774024, 103.8758316040039],
    [-6.175820453790948e-05, 1.9983893632888794, 0.08024879544973373, -95.44953918457031],
    [-0.0015396144008263946, -0.08024881780147552, 1.9983887672424316, -80.98434448242188],
    [0.0, 0.0, 0.0, 1.0]
],
  "dcmmeta_reorient_transform": [
    [0.0, -1.0, 0.0, 103.0],
    [1.0, 0.0, 0.0, 0.0],
    [0.0, 0.0, 1.0, 0.0],
    [0.0, 0.0, 0.0, 1.0]
],
  "dcmmeta_shape": [104, 104, 72, 581],
  "dcmmeta_slice_dim": 2,
  "dcmmeta_version": 0.6,
  "global": {
    "const": {
      "AcquisitionMatrix": [104, 0, 0, 104],
      "AngioFlag": "N",
      "BitsAllocated": 16,
      "BitsStored": 12,
      "Columns": 936,
      "EchoNumbers": 1,
      "EchoTime": 34.8,
      "EchoTrainLength": 1,
      "FlipAngle": 55.0,
      "HighBit": 11,
      "ImageOrientationPatient": [0.99999970322165, 3.087910234e-05, -0.0007698071778, 3.3822915e-08, 0.99919469164063, 0.04012440899488],
      "ImagePositionPatient": [-935.87561766422, -941.74024117954, -121.99300416356],
      "ImageType": [
        "ORIGINAL",
        "PRIMARY",
        "M",
        "MB",
        "ND",
        "MOSAIC"
],
      "ImagedNucleus": "1H",
      "ImagingFrequency": 123.234798,
      "InPlanePhaseEncodingDirection": "COL",
      "MRAcquisitionType": "2D",
      "MagneticFieldStrength": 3.0,
      "Manufacturer": "SIEMENS",
      "ManufacturerModelName": "TrioTim",
      "Modality": "MR",
      "NumberOfAverages": 1.0,
      "NumberOfPhaseEncodingSteps": 91,
      "PercentPhaseFieldOfView": 100.0,
      "PercentSampling": 100.0,
      "PerformedProcedureStepStartTime": "144413.281000",
      "PhotometricInterpretation": "MONOCHROME2",
      "PixelBandwidth": 1923.0,
      "PixelRepresentation": 0,
      "PixelSpacing": [2.0, 2.0],
      "ProtocolName": "cmrr_mbep2d_bold_2mm_MB8_Task_8x",
      "RepetitionTime": 785.0,
      "Rows": 936,
      "SAR": 0.1190948937252,
      "SamplesPerPixel": 1,
      "ScanOptions": [
        "PFP",
        "FS"
],
      "ScanningSequence": "EP",
      "SequenceName": "epfid2d1_104",
      "SequenceVariant": [
        "SK",
        "SS"
],
      "SeriesDescription": "cmrr_mbep2d_bold_2mm_MB8_Task_8x",
      "SeriesNumber": 27,
      "SeriesTime": "183135.671000",
      "SliceLocation": -84.828989731311,
      "SliceThickness": 2.0,
      "SmallestImagePixelValue": 0,
      "SoftwareVersions": "syngo MR B19",
      "SpacingBetweenSlices": 1.9999999568563,
      "SpecificCharacterSet": "ISO_IR 100",
      "StudyID": "1",
      "StudyTime": "144413.250000",
      "TransmitCoilName": "Body",
      "VariableFlipAngleFlag": "N",
      "WindowCenterWidthExplanation": "Algo1",
      "dBdt": 0.0},
    "slices": {}
  },
  "time": {
    "samples": {
      "AcquisitionNumber": [1, 2, 3, 4, 5, 6, 7, 8, 9, 10, 11, 12, 13, 14, 15, 16, 17, 18, 19, 20, 21, 22, 23, 24, 25, 26, 27, 28, 29, 30, 31, 32, 33, 34, 35, 36, 37, 38, 39, 40, 41, 42, 43, 44, 45, 46, 47, 48, 49, 50, 51, 52, 53, 54, 55, 56, 57, 58, 59, 60, 61, 62, 63, 64, 65, 66, 67, 68, 69, 70, 71, 72, 73, 74, 75, 76, 77, 78, 79, 80, 81, 82, 83, 84, 85, 86, 87, 88, 89, 90, 91, 92, 93, 94, 95, 96, 97, 98, 99, 100, 101, 102, 103, 104, 105, 106, 107, 108, 109, 110, 111, 112, 113, 114, 115, 116, 117, 118, 119, 120, 121, 122, 123, 124, 125, 126, 127, 128, 129, 130, 131, 132, 133, 134, 135, 136, 137, 138, 139, 140, 141, 142, 143, 144, 145, 146, 147, 148, 149, 150, 151, 152, 153, 154, 155, 156, 157, 158, 159, 160, 161, 162, 163, 164, 165, 166, 167, 168, 169, 170, 171, 172, 173, 174, 175, 176, 177, 178, 179, 180, 181, 182, 183, 184, 185, 186, 187, 188, 189, 190, 191, 192, 193, 194, 195, 196, 197, 198, 199, 200, 201, 202, 203, 204, 205, 206, 207, 208, 209, 210, 211, 212, 213, 214, 215, 216, 217, 218, 219, 220, 221, 222, 223, 224, 225, 226, 227, 228, 229, 230, 231, 232, 233, 234, 235, 236, 237, 238, 239, 240, 241, 242, 243, 244, 245, 246, 247, 248, 249, 250, 251, 252, 253, 254, 255, 256, 257, 258, 259, 260, 261, 262, 263, 264, 265, 266, 267, 268, 269, 270, 271, 272, 273, 274, 275, 276, 277, 278, 279, 280, 281, 282, 283, 284, 285, 286, 287, 288, 289, 290, 291, 292, 293, 294, 295, 296, 297, 298, 299, 300, 301, 302, 303, 304, 305, 306, 307, 308, 309, 310, 311, 312, 313, 314, 315, 316, 317, 318, 319, 320, 321, 322, 323, 324, 325, 326, 327, 328, 329, 330, 331, 332, 333, 334, 335, 336, 337, 338, 339, 340, 341, 342, 343, 344, 345, 346, 347, 348, 349, 350, 351, 352, 353, 354, 355, 356, 357, 358, 359, 360, 361, 362, 363, 364, 365, 366, 367, 368, 369, 370, 371, 372, 373, 374, 375, 376, 377, 378, 379, 380, 381, 382, 383, 384, 385, 386, 387, 388, 389, 390, 391, 392, 393, 394, 395, 396, 397, 398, 399, 400, 401, 402, 403, 404, 405, 406, 407, 408, 409, 410, 411, 412, 413, 414, 415, 416, 417, 418, 419, 420, 421, 422, 423, 424, 425, 426, 427, 428, 429, 430, 431, 432, 433, 434, 435, 436, 437, 438, 439, 440, 441, 442, 443, 444, 445, 446, 447, 448, 449, 450, 451, 452, 453, 454, 455, 456, 457, 458, 459, 460, 461, 462, 463, 464, 465, 466, 467, 468, 469, 470, 471, 472, 473, 474, 475, 476, 477, 478, 479, 480, 481, 482, 483, 484, 485, 486, 487, 488, 489, 490, 491, 492, 493, 494, 495, 496, 497, 498, 499, 500, 501, 502, 503, 504, 505, 506, 507, 508, 509, 510, 511, 512, 513, 514, 515, 516, 517, 518, 519, 520, 521, 522, 523, 524, 525, 526, 527, 528, 529, 530, 531, 532, 533, 534, 535, 536, 537, 538, 539, 540, 541, 542, 543, 544, 545, 546, 547, 548, 549, 550, 551, 552, 553, 554, 555, 556, 557, 558, 559, 560, 561, 562, 563, 564, 565, 566, 567, 568, 569, 570, 571, 572, 573, 574, 575, 576, 577, 578, 579, 580, 581],
      "AcquisitionTime": ["163344.737500", "163345.527500", "163346.315000", "163347.102500", "163347.890000", "163348.680000", "163349.467500", "163350.255000", "163351.042500", "163351.832500", "163352.620000", "163353.407500", "163354.195000", "163354.985000", "163355.772500", "163356.560000", "163357.347500", "163358.137500", "163358.925000", "163359.712500", "163400.502500", "163401.290000", "163402.077500", "163402.865000", "163403.655000", "163404.442500", "163405.230000", "163406.017500", "163406.807500", "163407.595000", "163408.382500", "163409.170000", "163409.960000", "163410.747500", "163411.535000", "163412.322500", "163413.112500", "163413.900000", "163414.687500", "163415.475000", "163416.265000", "163417.052500", "163417.840000", "163418.630000", "163419.417500", "163420.205000", "163420.992500", "163421.782500", "163422.570000", "163423.357500", "163424.145000", "163424.935000", "163425.722500", "163426.510000", "163427.297500", "163428.087500", "163428.875000", "163429.662500", "163430.450000", "163431.240000", "163432.027500", "163432.815000", "163433.602500", "163434.392500", "163435.180000", "163435.967500", "163436.757500", "163437.545000", "163438.332500", "163439.120000", "163439.910000", "163440.697500", "163441.485000", "163442.272500", "163443.062500", "163443.850000", "163444.637500", "163445.425000", "163446.215000", "163447.002500", "163447.790000", "163448.577500", "163449.367500", "163450.155000", "163450.942500", "163451.730000", "163452.520000", "163453.307500", "163454.095000", "163454.885000", "163455.672500", "163456.460000", "163457.247500", "163458.037500", "163458.825000", "163459.612500", "163500.400000", "163501.190000", "163501.977500", "163502.765000", "163503.552500", "163504.342500", "163505.130000", "163505.917500", "163506.705000", "163507.495000", "163508.282500", "163509.070000", "163509.857500", "163510.647500", "163511.435000", "163512.222500", "163513.012500", "163513.800000", "163514.587500", "163515.375000", "163516.165000", "163516.952500", "163517.740000", "163518.527500", "163519.317500", "163520.105000", "163520.892500", "163521.680000", "163522.470000", "163523.257500", "163524.045000", "163524.832500", "163525.622500", "163526.410000", "163527.197500", "163527.985000", "163528.775000", "163529.562500", "163530.350000", "163531.140000", "163531.927500", "163532.715000", "163533.502500", "163534.292500", "163535.080000", "163535.867500", "163536.655000", "163537.445000", "163538.232500", "163539.020000", "163539.807500", "163540.597500", "163541.385000", "163542.172500", "163542.960000", "163543.750000", "163544.537500", "163545.325000", "163546.112500", "163546.902500", "163547.690000", "163548.477500", "163549.267500", "163550.055000", "163550.842500", "163551.630000", "163552.420000", "163553.207500", "163553.995000", "163554.782500", "163555.572500", "163556.360000", "163557.147500", "163557.935000", "163558.725000", "163559.512500", "163600.300000", "163601.087500", "163601.877500", "163602.665000", "163603.452500", "163604.240000", "163605.030000", "163605.817500", "163606.605000", "163607.395000", "163608.182500", "163608.970000", "163609.757500", "163610.547500", "163611.335000", "163612.122500", "163612.910000", "163613.700000", "163614.487500", "163615.275000", "163616.062500", "163616.852500", "163617.640000", "163618.427500", "163619.215000", "163620.005000", "163620.792500", "163621.580000", "163622.367500", "163623.157500", "163623.945000", "163624.732500", "163625.522500", "163626.310000", "163627.097500", "163627.885000", "163628.675000", "163629.462500", "163630.250000", "163631.037500", "163631.827500", "163632.615000", "163633.402500", "163634.190000", "163634.980000", "163635.767500", "163636.555000", "163637.342500", "163638.132500", "163638.920000", "163639.707500", "163640.495000", "163641.285000", "163642.072500", "163642.860000", "163643.650000", "163644.437500", "163645.225000", "163646.012500", "163646.802500", "163647.590000", "163648.377500", "163649.165000", "163649.955000", "163650.742500", "163651.530000", "163652.317500", "163653.107500", "163653.895000", "163654.682500", "163655.470000", "163656.260000", "163657.047500", "163657.835000", "163658.625000", "163659.412500", "163700.200000", "163700.987500", "163701.777500", "163702.565000", "163703.352500", "163704.140000", "163704.930000", "163705.717500", "163706.505000", "163707.292500", "163708.082500", "163708.870000", "163709.657500", "163710.445000", "163711.235000", "163712.022500", "163712.810000", "163713.597500", "163714.387500", "163715.175000", "163715.962500", "163716.752500", "163717.540000", "163718.327500", "163719.115000", "163719.905000", "163720.692500", "163721.480000", "163722.267500", "163723.057500", "163723.845000", "163724.632500", "163725.420000", "163726.210000", "163726.997500", "163727.785000", "163728.572500", "163729.362500", "163730.150000", "163730.937500", "163731.725000", "163732.515000", "163733.302500", "163734.090000", "163734.880000", "163735.667500", "163736.455000", "163737.242500", "163738.032500", "163738.820000", "163739.607500", "163740.395000", "163741.185000", "163741.972500", "163742.760000", "163743.547500", "163744.337500", "163745.125000", "163745.912500", "163746.700000", "163747.490000", "163748.277500", "163749.065000", "163749.852500", "163750.642500", "163751.430000", "163752.217500", "163753.007500", "163753.795000", "163754.582500", "163755.370000", "163756.160000", "163756.947500", "163757.735000", "163758.522500", "163759.312500", "163800.100000", "163800.887500", "163801.675000", "163802.465000", "163803.252500", "163804.040000", "163804.827500", "163805.617500", "163806.405000", "163807.192500", "163807.980000", "163808.770000", "163809.557500", "163810.345000", "163811.135000", "163811.922500", "163812.710000", "163813.497500", "163814.287500", "163815.075000", "163815.862500", "163816.650000", "163817.440000", "163818.227500", "163819.015000", "163819.802500", "163820.592500", "163821.380000", "163822.167500", "163822.955000", "163823.745000", "163824.532500", "163825.320000", "163826.107500", "163826.897500", "163827.685000", "163828.472500", "163829.262500", "163830.050000", "163830.837500", "163831.625000", "163832.415000", "163833.202500", "163833.990000", "163834.777500", "163835.567500", "163836.355000", "163837.142500", "163837.930000", "163838.720000", "163839.507500", "163840.295000", "163841.082500", "163841.872500", "163842.660000", "163843.447500", "163844.235000", "163845.025000", "163845.812500", "163846.600000", "163847.390000", "163848.177500", "163848.965000", "163849.752500", "163850.542500", "163851.330000", "163852.117500", "163852.905000", "163853.695000", "163854.482500", "163855.270000", "163856.057500", "163856.847500", "163857.635000", "163858.422500", "163859.210000", "163900.000000", "163900.787500", "163901.575000", "163902.362500", "163903.152500", "163903.940000", "163904.727500", "163905.517500", "163906.305000", "163907.092500", "163907.880000", "163908.670000", "163909.457500", "163910.245000", "163911.032500", "163911.822500", "163912.610000", "163913.397500", "163914.185000", "163914.975000", "163915.762500", "163916.550000", "163917.337500", "163918.127500", "163918.915000", "163919.702500", "163920.490000", "163921.280000", "163922.067500", "163922.855000", "163923.645000", "163924.432500", "163925.220000", "163926.007500", "163926.797500", "163927.585000", "163928.372500", "163929.160000", "163929.950000", "163930.737500", "163931.525000", "163932.312500", "163933.102500", "163933.890000", "163934.677500", "163935.465000", "163936.255000", "163937.042500", "163937.830000", "163938.617500", "163939.407500", "163940.195000", "163940.982500", "163941.772500", "163942.560000", "163943.347500", "163944.135000", "163944.925000", "163945.712500", "163946.500000", "163947.287500", "163948.077500", "163948.865000", "163949.652500", "163950.440000", "163951.230000", "163952.017500", "163952.805000", "163953.592500", "163954.382500", "163955.170000", "163955.957500", "163956.745000", "163957.535000", "163958.322500", "163959.110000", "163959.900000", "164000.687500", "164001.475000", "164002.262500", "164003.052500", "164003.840000", "164004.627500", "164005.415000", "164006.205000", "164006.992500", "164007.780000", "164008.567500", "164009.357500", "164010.145000", "164010.932500", "164011.720000", "164012.510000", "164013.297500", "164014.085000", "164014.875000", "164015.662500", "164016.450000", "164017.237500", "164018.027500", "164018.815000", "164019.602500", "164020.390000", "164021.180000", "164021.967500", "164022.755000", "164023.542500", "164024.332500", "164025.120000", "164025.907500", "164026.695000", "164027.485000", "164028.272500", "164029.060000", "164029.847500", "164030.637500", "164031.425000", "164032.212500", "164033.002500", "164033.790000", "164034.577500", "164035.365000", "164036.155000", "164036.942500", "164037.730000", "164038.517500", "164039.307500", "164040.095000", "164040.882500", "164041.670000", "164042.460000", "164043.247500", "164044.035000", "164044.822500", "164045.612500", "164046.400000", "164047.187500", "164047.975000", "164048.765000", "164049.552500", "164050.340000", "164051.130000", "164051.917500", "164052.705000", "164053.492500", "164054.282500", "164055.070000", "164055.857500", "164056.645000", "164057.435000", "164058.222500", "164059.010000", "164059.797500", "164100.587500", "164101.375000", "164102.162500", "164102.950000", "164103.740000", "164104.527500", "164105.315000", "164106.102500", "164106.892500", "164107.680000", "164108.467500", "164109.257500", "164110.045000", "164110.832500", "164111.620000", "164112.410000", "164113.197500", "164113.985000", "164114.772500", "164115.562500", "164116.350000", "164117.137500", "164117.925000", "164118.715000", "164119.502500", "164120.290000", "164121.077500", "164121.867500"],
      "ContentTime": ["183135.671000", "183135.671000", "183135.687000", "183135.687000", "183135.687000", "183135.687000", "183135.687000", "183135.687000", "183235.656000", "183235.656000", "183235.656000", "183235.656000", "183235.656000", "183235.656000", "183235.656000", "183235.671000", "183235.671000", "183235.671000", "183235.671000", "183235.671000", "183235.671000", "183235.671000", "183235.687000", "183235.687000", "183235.687000", "183235.687000", "183235.687000", "183235.687000", "183235.687000", "183235.703000", "183235.703000", "183235.703000", "183235.703000", "183235.703000", "183235.703000", "183235.703000", "183335.656000", "183335.656000", "183335.656000", "183335.656000", "183335.656000", "183335.656000", "183335.656000", "183335.671000", "183335.671000", "183335.671000", "183335.671000", "183335.671000", "183335.671000", "183335.671000", "183335.687000", "183335.687000", "183335.687000", "183335.687000", "183335.687000", "183335.687000", "183335.703000", "183335.703000", "183335.703000", "183335.703000", "183335.703000", "183335.703000", "183335.703000", "183335.703000", "183335.718000", "183435.656000", "183435.656000", "183435.656000", "183435.656000", "183435.656000", "183435.656000", "183435.671000", "183435.671000", "183435.671000", "183435.671000", "183435.671000", "183435.687000", "183435.687000", "183435.687000", "183435.687000", "183435.687000", "183435.687000", "183435.687000", "183435.703000", "183435.703000", "183435.703000", "183435.703000", "183435.703000", "183435.703000", "183435.703000", "183435.718000", "183435.718000", "183435.718000", "183535.656000", "183535.656000", "183535.656000", "183535.656000", "183535.656000", "183535.656000", "183535.671000", "183535.671000", "183535.671000", "183535.671000", "183535.671000", "183535.671000", "183535.671000", "183535.671000", "183535.687000", "183535.687000", "183535.687000", "183535.687000", "183535.687000", "183535.687000", "183535.687000", "183535.703000", "183535.703000", "183535.703000", "183535.703000", "183535.703000", "183535.703000", "183535.703000", "183635.656000", "183635.656000", "183635.656000", "183635.656000", "183635.656000", "183635.656000", "183635.656000", "183635.671000", "183635.671000", "183635.671000", "183635.671000", "183635.671000", "183635.671000", "183635.687000", "183635.687000", "183635.687000", "183635.687000", "183635.687000", "183635.687000", "183635.687000", "183635.703000", "183635.703000", "183635.703000", "183635.703000", "183635.718000", "183635.718000", "183635.718000", "183635.718000", "183735.656000", "183735.656000", "183735.656000", "183735.656000", "183735.656000", "183735.656000", "183735.656000", "183735.671000", "183735.671000", "183735.671000", "183735.671000", "183735.671000", "183735.671000", "183735.671000", "183735.687000", "183735.687000", "183735.687000", "183735.687000", "183735.687000", "183735.687000", "183735.703000", "183735.703000", "183735.703000", "183735.703000", "183735.703000", "183735.718000", "183735.718000", "183735.718000", "183735.718000", "183835.656000", "183835.656000", "183835.656000", "183835.656000", "183835.656000", "183835.656000", "183835.656000", "183835.671000", "183835.671000", "183835.671000", "183835.671000", "183835.671000", "183835.671000", "183835.671000", "183835.687000", "183835.687000", "183835.687000", "183835.687000", "183835.687000", "183835.687000", "183835.687000", "183835.703000", "183835.703000", "183835.703000", "183835.703000", "183835.718000", "183835.718000", "183835.718000", "183935.656000", "183935.656000", "183935.656000", "183935.656000", "183935.656000", "183935.656000", "183935.656000", "183935.671000", "183935.671000", "183935.671000", "183935.671000", "183935.671000", "183935.671000", "183935.671000", "183935.687000", "183935.687000", "183935.687000", "183935.687000", "183935.687000", "183935.687000", "183935.687000", "183935.703000", "183935.703000", "183935.703000", "183935.703000", "183935.703000", "183935.703000", "183935.703000", "184035.656000", "184035.656000", "184035.656000", "184035.656000", "184035.656000", "184035.656000", "184035.671000", "184035.671000", "184035.671000", "184035.671000", "184035.671000", "184035.671000", "184035.671000", "184035.671000", "184035.687000", "184035.687000", "184035.687000", "184035.687000", "184035.687000", "184035.687000", "184035.687000", "184035.703000", "184035.703000", "184035.703000", "184035.703000", "184035.703000", "184035.703000", "184035.703000", "184135.656000", "184135.656000", "184135.656000", "184135.656000", "184135.656000", "184135.656000", "184135.671000", "184135.671000", "184135.671000", "184135.671000", "184135.671000", "184135.671000", "184135.671000", "184135.687000", "184135.687000", "184135.687000", "184135.687000", "184135.687000", "184135.703000", "184135.703000", "184135.703000", "184135.703000", "184135.703000", "184135.703000", "184135.718000", "184135.718000", "184135.718000", "184135.718000", "184135.718000", "184235.656000", "184235.656000", "184235.656000", "184235.656000", "184235.656000", "184235.656000", "184235.671000", "184235.671000", "184235.671000", "184235.671000", "184235.671000", "184235.671000", "184235.687000", "184235.687000", "184235.687000", "184235.687000", "184235.687000", "184235.687000", "184235.687000", "184235.703000", "184235.703000", "184235.703000", "184235.703000", "184235.703000", "184235.703000", "184235.703000", "184235.718000", "184235.718000", "184335.656000", "184335.656000", "184335.656000", "184335.656000", "184335.656000", "184335.671000", "184335.671000", "184335.671000", "184335.671000", "184335.671000", "184335.671000", "184335.671000", "184335.687000", "184335.687000", "184335.687000", "184335.687000", "184335.687000", "184335.687000", "184335.687000", "184335.703000", "184335.703000", "184335.703000", "184335.703000", "184335.703000", "184335.718000", "184335.718000", "184335.718000", "184335.718000", "184435.656000", "184435.656000", "184435.656000", "184435.656000", "184435.656000", "184435.656000", "184435.656000", "184435.671000", "184435.671000", "184435.671000", "184435.671000", "184435.671000", "184435.687000", "184435.687000", "184435.687000", "184435.687000", "184435.687000", "184435.687000", "184435.687000", "184435.703000", "184435.703000", "184435.703000", "184435.703000", "184435.703000", "184435.703000", "184435.703000", "184435.718000", "184435.718000", "184535.656000", "184535.656000", "184535.656000", "184535.656000", "184535.656000", "184535.656000", "184535.656000", "184535.671000", "184535.671000", "184535.671000", "184535.671000", "184535.671000", "184535.671000", "184535.671000", "184535.687000", "184535.687000", "184535.687000", "184535.687000", "184535.687000", "184535.703000", "184535.703000", "184535.703000", "184535.703000", "184535.703000", "184535.703000", "184535.718000", "184535.718000", "184535.718000", "184535.734000", "184635.656000", "184635.656000", "184635.656000", "184635.656000", "184635.656000", "184635.656000", "184635.671000", "184635.671000", "184635.671000", "184635.671000", "184635.671000", "184635.671000", "184635.671000", "184635.671000", "184635.687000", "184635.687000", "184635.687000", "184635.687000", "184635.687000", "184635.687000", "184635.687000", "184635.703000", "184635.703000", "184635.703000", "184635.703000", "184635.703000", "184635.703000", "184635.718000", "184735.656000", "184735.656000", "184735.656000", "184735.656000", "184735.656000", "184735.656000", "184735.656000", "184735.671000", "184735.671000", "184735.671000", "184735.671000", "184735.671000", "184735.671000", "184735.671000", "184735.687000", "184735.687000", "184735.687000", "184735.687000", "184735.687000", "184735.687000", "184735.687000", "184735.703000", "184735.703000", "184735.703000", "184735.703000", "184735.703000", "184735.703000", "184735.703000", "184835.656000", "184835.656000", "184835.656000", "184835.656000", "184835.656000", "184835.656000", "184835.656000", "184835.671000", "184835.671000", "184835.671000", "184835.671000", "184835.671000", "184835.671000", "184835.671000", "184835.687000", "184835.687000", "184835.687000", "184835.687000", "184835.687000", "184835.687000", "184835.687000", "184835.703000", "184835.703000", "184835.703000", "184835.703000", "184835.703000", "184835.703000", "184835.718000", "184835.718000", "184935.656000", "184935.656000", "184935.656000", "184935.656000", "184935.656000", "184935.656000", "184935.671000", "184935.671000", "184935.671000", "184935.671000", "184935.671000", "184935.671000", "184935.671000", "184935.687000", "184935.687000", "184935.687000", "184935.687000", "184935.687000", "184935.703000", "184935.703000", "184935.703000", "184935.703000", "184935.703000", "184935.703000", "184935.703000", "184935.718000", "184935.718000", "184935.718000", "185035.656000", "185035.656000", "185035.656000", "185035.656000", "185035.656000", "185035.671000", "185035.671000", "185035.671000", "185035.671000", "185035.671000", "185035.671000", "185035.671000", "185035.687000", "185035.687000", "185035.687000", "185035.687000", "185035.687000", "185035.687000", "185035.687000", "185035.703000", "185035.703000", "185035.703000", "185035.703000", "185035.703000", "185035.703000", "185035.718000", "185035.718000", "185035.718000", "185135.656000", "185135.656000", "185135.656000", "185135.656000", "185135.656000", "185135.656000", "185135.656000", "185135.671000", "185135.671000", "185135.671000", "185135.671000", "185135.671000", "185135.671000", "185135.687000", "185135.687000", "185135.687000", "185135.687000", "185135.687000", "185135.687000", "185135.687000", "185135.703000", "185135.703000", "185135.703000", "185135.703000", "185135.703000", "185135.718000", "185135.718000", "185135.718000", "185150.515000", "185150.515000", "185150.531000", "185150.531000", "185150.531000", "185150.531000", "185150.531000", "185150.531000"],
