{
  "AcquisitionMatrixPE": 104,
  "AcquisitionNumber": 1,
  "AcquisitionTime": "11:41:0.772500",
  "BandwidthPerPixelPhaseEncode": 13.935,
  "BaseResolution": 104,
  "CoilString": "C:HEA;HEP",
  "ConversionSoftware": "dcm2niix",
  "ConversionSoftwareVersion": "v1.0.20210317",
  "DerivedVendorReportedEchoSpacing": 0.000690017,
  "DeviceSerialNumber": "35450",
  "DwellTime": 2.5e-06,
  "EchoTime": 0.0348,
  "EffectiveEchoSpacing": 0.000690017,
  "FlipAngle": 55,
  "ImageComments": "Unaliased MB8/PE3 (remote)",
  "ImageOrientationPatientDICOM": [0.999976, 0.00101987, 0.00690637, -2.74823e-08, 0.989272, -0.146083],
  "ImageType": [
    "ORIGINAL",
    "PRIMARY",
    "M",
    "MB",
    "ND",
    "MOSAIC"
],
  "ImagingFrequency": 123.234,
  "InPlanePhaseEncodingDirectionDICOM": "COL",
  "InstitutionAddress": "Univeristy Ave. 197,Newark,North East,US,07102-1814",
  "InstitutionName": "RUBIC",
  "InstitutionalDepartmentName": "Department",
  "MRAcquisitionType": "2D",
  "MagneticFieldStrength": 3,
  "Manufacturer": "Siemens",
  "ManufacturersModelName": "TrioTim",
  "Modality": "MR",
  "MultibandAccelerationFactor": 8,
  "PartialFourier": 0.875,
  "PatientPosition": "HFS",
  "PercentPhaseFOV": 100,
  "PercentSampling": 100,
  "PhaseEncodingDirection": "j-",
  "PhaseEncodingSteps": 91,
  "PhaseResolution": 1,
  "PixelBandwidth": 1923,
  "ProcedureStepDescription": "Cole^Michael",
  "ProtocolName": "cmrr_mbep2d_bold_2mm_MB8_Task_8x",
  "PulseSequenceDetails": "%CustomerSeq%\\cmrr_mbep2d_bold",
  "ReceiveCoilName": "32Ch_Head",
  "ReconMatrixPE": 104,
  "RepetitionTime": 0.785,
  "SAR": 0.135223,
  "ScanOptions": "PFP\\FS",
  "ScanningSequence": "EP",
  "SequenceName": "epfid2d1_104",
  "SequenceVariant": "SK\\SS",
  "SeriesDescription": "cmrr_mbep2d_bold_2mm_MB8_Task_8x",
  "SeriesNumber": 15,
  "ShimSetting": [2138, -319, -7303, 376, -24, -346, 458, 95],
  "SliceThickness": 2,
  "SliceTiming": [0, 0.4375, 0.0875, 0.525, 0.175, 0.6125, 0.2625, 0.7, 0.35, 0, 0.4375, 0.0875, 0.525, 0.175, 0.6125, 0.2625, 0.7, 0.35, 0, 0.4375, 0.0875, 0.525, 0.175, 0.6125, 0.2625, 0.7, 0.35, 0, 0.4375, 0.0875, 0.525, 0.175, 0.6125, 0.2625, 0.7, 0.35, 0, 0.4375, 0.0875, 0.525, 0.175, 0.6125, 0.2625, 0.7, 0.35, 0, 0.4375, 0.0875, 0.525, 0.175, 0.6125, 0.2625, 0.7, 0.35, 0, 0.4375, 0.0875, 0.525, 0.175, 0.6125, 0.2625, 0.7, 0.35, 0, 0.4375, 0.0875, 0.525, 0.175, 0.6125, 0.2625, 0.7, 0.35],
  "SoftwareVersions": "syngo MR B19",
  "SpacingBetweenSlices": 2,
  "StationName": "MRC35450",
  "TaskName": "cpro",
  "TotalReadoutTime": 0.0710717,
  "TxRefAmp": 325.926,
  "dcmmeta_affine": [
    [-1.9999512434005737, -5.4964669260471055e-08, 0.013962523080408573, 106.21366119384766],
    [-0.0020397421903908253, 1.9785447120666504, -0.29215893149375916, -78.93701934814453],
    [0.013812730088829994, 0.2921660542488098, 1.9784964323043823, -111.5962905883789],
    [0.0, 0.0, 0.0, 1.0]
],
  "dcmmeta_reorient_transform": [
    [0.0, -1.0, 0.0, 103.0],
    [1.0, 0.0, 0.0, 0.0],
    [0.0, 0.0, 1.0, 0.0],
    [0.0, 0.0, 0.0, 1.0]
],
  "dcmmeta_shape": [104, 104, 72, 581],
  "dcmmeta_slice_dim": 2,
  "dcmmeta_version": 0.6,
  "global": {
    "const": {
      "AcquisitionMatrix": [104, 0, 0, 104],
      "AngioFlag": "N",
      "BitsAllocated": 16,
      "BitsStored": 12,
      "Columns": 936,
      "EchoNumbers": 1,
      "EchoTime": 34.8,
      "EchoTrainLength": 1,
      "FlipAngle": 55.0,
      "HighBit": 11,
      "ImageOrientationPatient": [0.99997563069392, 0.00101987108373, 0.00690636527248, -2.7482335e-08, 0.98927233276856, -0.1460830298791],
      "ImagePositionPatient": [-938.19335971255, -948.77619659236, 34.291796121114],
      "ImageType": [
        "ORIGINAL",
        "PRIMARY",
        "M",
        "MB",
        "ND",
        "MOSAIC"
],
      "ImagedNucleus": "1H",
      "ImagingFrequency": 123.234478,
      "InPlanePhaseEncodingDirection": "COL",
      "MRAcquisitionType": "2D",
      "MagneticFieldStrength": 3.0,
      "Manufacturer": "SIEMENS",
      "ManufacturerModelName": "TrioTim",
      "Modality": "MR",
      "NumberOfAverages": 1.0,
      "NumberOfPhaseEncodingSteps": 91,
      "PercentPhaseFieldOfView": 100.0,
      "PercentSampling": 100.0,
      "PerformedProcedureStepStartTime": "104215.703000",
      "PhotometricInterpretation": "MONOCHROME2",
      "PixelBandwidth": 1923.0,
      "PixelRepresentation": 0,
      "PixelSpacing": [2.0, 2.0],
      "ProtocolName": "cmrr_mbep2d_bold_2mm_MB8_Task_8x",
      "RepetitionTime": 785.0,
      "Rows": 936,
      "SAR": 0.13522307380642,
      "SamplesPerPixel": 1,
      "ScanOptions": [
        "PFP",
        "FS"
],
      "ScanningSequence": "EP",
      "SequenceName": "epfid2d1_104",
      "SequenceVariant": [
        "SK",
        "SS"
],
      "SeriesDescription": "cmrr_mbep2d_bold_2mm_MB8_Task_8x",
      "SeriesNumber": 15,
      "SeriesTime": "114132.671000",
      "SliceLocation": -98.123851668551,
      "SliceThickness": 2.0,
      "SmallestImagePixelValue": 0,
      "SoftwareVersions": "syngo MR B19",
      "SpacingBetweenSlices": 1.9999999406198,
      "SpecificCharacterSet": "ISO_IR 100",
      "StudyID": "1",
      "StudyTime": "104215.609000",
      "TransmitCoilName": "Body",
      "VariableFlipAngleFlag": "N",
      "WindowCenterWidthExplanation": "Algo1",
      "dBdt": 0.0},
    "slices": {}
  },
  "time": {
    "samples": {
      "AcquisitionNumber": [1, 2, 3, 4, 5, 6, 7, 8, 9, 10, 11, 12, 13, 14, 15, 16, 17, 18, 19, 20, 21, 22, 23, 24, 25, 26, 27, 28, 29, 30, 31, 32, 33, 34, 35, 36, 37, 38, 39, 40, 41, 42, 43, 44, 45, 46, 47, 48, 49, 50, 51, 52, 53, 54, 55, 56, 57, 58, 59, 60, 61, 62, 63, 64, 65, 66, 67, 68, 69, 70, 71, 72, 73, 74, 75, 76, 77, 78, 79, 80, 81, 82, 83, 84, 85, 86, 87, 88, 89, 90, 91, 92, 93, 94, 95, 96, 97, 98, 99, 100, 101, 102, 103, 104, 105, 106, 107, 108, 109, 110, 111, 112, 113, 114, 115, 116, 117, 118, 119, 120, 121, 122, 123, 124, 125, 126, 127, 128, 129, 130, 131, 132, 133, 134, 135, 136, 137, 138, 139, 140, 141, 142, 143, 144, 145, 146, 147, 148, 149, 150, 151, 152, 153, 154, 155, 156, 157, 158, 159, 160, 161, 162, 163, 164, 165, 166, 167, 168, 169, 170, 171, 172, 173, 174, 175, 176, 177, 178, 179, 180, 181, 182, 183, 184, 185, 186, 187, 188, 189, 190, 191, 192, 193, 194, 195, 196, 197, 198, 199, 200, 201, 202, 203, 204, 205, 206, 207, 208, 209, 210, 211, 212, 213, 214, 215, 216, 217, 218, 219, 220, 221, 222, 223, 224, 225, 226, 227, 228, 229, 230, 231, 232, 233, 234, 235, 236, 237, 238, 239, 240, 241, 242, 243, 244, 245, 246, 247, 248, 249, 250, 251, 252, 253, 254, 255, 256, 257, 258, 259, 260, 261, 262, 263, 264, 265, 266, 267, 268, 269, 270, 271, 272, 273, 274, 275, 276, 277, 278, 279, 280, 281, 282, 283, 284, 285, 286, 287, 288, 289, 290, 291, 292, 293, 294, 295, 296, 297, 298, 299, 300, 301, 302, 303, 304, 305, 306, 307, 308, 309, 310, 311, 312, 313, 314, 315, 316, 317, 318, 319, 320, 321, 322, 323, 324, 325, 326, 327, 328, 329, 330, 331, 332, 333, 334, 335, 336, 337, 338, 339, 340, 341, 342, 343, 344, 345, 346, 347, 348, 349, 350, 351, 352, 353, 354, 355, 356, 357, 358, 359, 360, 361, 362, 363, 364, 365, 366, 367, 368, 369, 370, 371, 372, 373, 374, 375, 376, 377, 378, 379, 380, 381, 382, 383, 384, 385, 386, 387, 388, 389, 390, 391, 392, 393, 394, 395, 396, 397, 398, 399, 400, 401, 402, 403, 404, 405, 406, 407, 408, 409, 410, 411, 412, 413, 414, 415, 416, 417, 418, 419, 420, 421, 422, 423, 424, 425, 426, 427, 428, 429, 430, 431, 432, 433, 434, 435, 436, 437, 438, 439, 440, 441, 442, 443, 444, 445, 446, 447, 448, 449, 450, 451, 452, 453, 454, 455, 456, 457, 458, 459, 460, 461, 462, 463, 464, 465, 466, 467, 468, 469, 470, 471, 472, 473, 474, 475, 476, 477, 478, 479, 480, 481, 482, 483, 484, 485, 486, 487, 488, 489, 490, 491, 492, 493, 494, 495, 496, 497, 498, 499, 500, 501, 502, 503, 504, 505, 506, 507, 508, 509, 510, 511, 512, 513, 514, 515, 516, 517, 518, 519, 520, 521, 522, 523, 524, 525, 526, 527, 528, 529, 530, 531, 532, 533, 534, 535, 536, 537, 538, 539, 540, 541, 542, 543, 544, 545, 546, 547, 548, 549, 550, 551, 552, 553, 554, 555, 556, 557, 558, 559, 560, 561, 562, 563, 564, 565, 566, 567, 568, 569, 570, 571, 572, 573, 574, 575, 576, 577, 578, 579, 580, 581],
      "AcquisitionTime": ["114100.772500", "114101.560000", "114102.347500", "114103.135000", "114103.925000", "114104.712500", "114105.500000", "114106.287500", "114107.077500", "114107.865000", "114108.652500", "114109.440000", "114110.230000", "114111.017500", "114111.805000", "114112.595000", "114113.382500", "114114.170000", "114114.957500", "114115.747500", "114116.535000", "114117.322500", "114118.110000", "114118.900000", "114119.687500", "114120.475000", "114121.262500", "114122.052500", "114122.840000", "114123.627500", "114124.415000", "114125.205000", "114125.992500", "114126.780000", "114127.567500", "114128.357500", "114129.145000", "114129.932500", "114130.722500", "114131.510000", "114132.297500", "114133.085000", "114133.875000", "114134.662500", "114135.450000", "114136.237500", "114137.027500", "114137.815000", "114138.602500", "114139.390000", "114140.180000", "114140.967500", "114141.755000", "114142.542500", "114143.332500", "114144.120000", "114144.907500", "114145.695000", "114146.485000", "114147.272500", "114148.060000", "114148.850000", "114149.637500", "114150.425000", "114151.212500", "114152.002500", "114152.790000", "114153.577500", "114154.365000", "114155.155000", "114155.942500", "114156.730000", "114157.517500", "114158.307500", "114159.095000", "114159.882500", "114200.670000", "114201.460000", "114202.247500", "114203.035000", "114203.822500", "114204.612500", "114205.400000", "114206.187500", "114206.977500", "114207.765000", "114208.552500", "114209.340000", "114210.130000", "114210.917500", "114211.705000", "114212.492500", "114213.282500", "114214.070000", "114214.857500", "114215.645000", "114216.435000", "114217.222500", "114218.010000", "114218.797500", "114219.587500", "114220.375000", "114221.162500", "114221.950000", "114222.740000", "114223.527500", "114224.315000", "114225.105000", "114225.892500", "114226.680000", "114227.467500", "114228.257500", "114229.045000", "114229.832500", "114230.620000", "114231.410000", "114232.197500", "114232.985000", "114233.772500", "114234.562500", "114235.350000", "114236.137500", "114236.925000", "114237.715000", "114238.502500", "114239.290000", "114240.080000", "114240.867500", "114241.655000", "114242.442500", "114243.232500", "114244.020000", "114244.807500", "114245.595000", "114246.385000", "114247.172500", "114247.960000", "114248.747500", "114249.537500", "114250.325000", "114251.112500", "114251.900000", "114252.690000", "114253.477500", "114254.265000", "114255.052500", "114255.842500", "114256.630000", "114257.417500", "114258.207500", "114258.995000", "114259.782500", "114300.570000", "114301.360000", "114302.147500", "114302.935000", "114303.722500", "114304.512500", "114305.300000", "114306.087500", "114306.875000", "114307.665000", "114308.452500", "114309.240000", "114310.027500", "114310.817500", "114311.605000", "114312.392500", "114313.180000", "114313.970000", "114314.757500", "114315.545000", "114316.335000", "114317.122500", "114317.910000", "114318.697500", "114319.487500", "114320.275000", "114321.062500", "114321.850000", "114322.640000", "114323.427500", "114324.215000", "114325.002500", "114325.792500", "114326.580000", "114327.367500", "114328.155000", "114328.945000", "114329.732500", "114330.520000", "114331.307500", "114332.097500", "114332.885000", "114333.672500", "114334.462500", "114335.250000", "114336.037500", "114336.825000", "114337.615000", "114338.402500", "114339.190000", "114339.977500", "114340.767500", "114341.555000", "114342.342500", "114343.130000", "114343.920000", "114344.707500", "114345.495000", "114346.282500", "114347.072500", "114347.860000", "114348.647500", "114349.435000", "114350.225000", "114351.012500", "114351.800000", "114352.590000", "114353.377500", "114354.165000", "114354.952500", "114355.742500", "114356.530000", "114357.317500", "114358.105000", "114358.895000", "114359.682500", "114400.470000", "114401.257500", "114402.047500", "114402.835000", "114403.622500", "114404.410000", "114405.200000", "114405.987500", "114406.775000", "114407.562500", "114408.352500", "114409.140000", "114409.927500", "114410.717500", "114411.505000", "114412.292500", "114413.080000", "114413.870000", "114414.657500", "114415.445000", "114416.232500", "114417.022500", "114417.810000", "114418.597500", "114419.385000", "114420.175000", "114420.962500", "114421.750000", "114422.537500", "114423.327500", "114424.115000", "114424.902500", "114425.690000", "114426.480000", "114427.267500", "114428.055000", "114428.845000", "114429.632500", "114430.420000", "114431.207500", "114431.997500", "114432.785000", "114433.572500", "114434.360000", "114435.150000", "114435.937500", "114436.725000", "114437.512500", "114438.302500", "114439.090000", "114439.877500", "114440.665000", "114441.455000", "114442.242500", "114443.030000", "114443.817500", "114444.607500", "114445.395000", "114446.182500", "114446.972500", "114447.760000", "114448.547500", "114449.335000", "114450.125000", "114450.912500", "114451.700000", "114452.487500", "114453.277500", "114454.065000", "114454.852500", "114455.640000", "114456.430000", "114457.217500", "114458.005000", "114458.792500", "114459.582500", "114500.370000", "114501.157500", "114501.945000", "114502.735000", "114503.522500", "114504.310000", "114505.100000", "114505.887500", "114506.675000", "114507.462500", "114508.252500", "114509.040000", "114509.827500", "114510.615000", "114511.405000", "114512.192500", "114512.980000", "114513.767500", "114514.557500", "114515.345000", "114516.132500", "114516.920000", "114517.710000", "114518.497500", "114519.285000", "114520.072500", "114520.862500", "114521.650000", "114522.437500", "114523.227500", "114524.015000", "114524.802500", "114525.590000", "114526.380000", "114527.167500", "114527.955000", "114528.742500", "114529.532500", "114530.320000", "114531.107500", "114531.895000", "114532.685000", "114533.472500", "114534.260000", "114535.047500", "114535.837500", "114536.625000", "114537.412500", "114538.200000", "114538.990000", "114539.777500", "114540.565000", "114541.355000", "114542.142500", "114542.930000", "114543.717500", "114544.507500", "114545.295000", "114546.082500", "114546.870000", "114547.660000", "114548.447500", "114549.235000", "114550.022500", "114550.812500", "114551.600000", "114552.387500", "114553.175000", "114553.965000", "114554.752500", "114555.540000", "114556.330000", "114557.117500", "114557.905000", "114558.692500", "114559.482500", "114600.270000", "114601.057500", "114601.845000", "114602.635000", "114603.422500", "114604.210000", "114604.997500", "114605.787500", "114606.575000", "114607.362500", "114608.150000", "114608.940000", "114609.727500", "114610.515000", "114611.302500", "114612.092500", "114612.880000", "114613.667500", "114614.457500", "114615.245000", "114616.032500", "114616.820000", "114617.610000", "114618.397500", "114619.185000", "114619.972500", "114620.762500", "114621.550000", "114622.337500", "114623.125000", "114623.915000", "114624.702500", "114625.490000", "114626.277500", "114627.067500", "114627.855000", "114628.642500", "114629.430000", "114630.220000", "114631.007500", "114631.795000", "114632.585000", "114633.372500", "114634.160000", "114634.947500", "114635.737500", "114636.525000", "114637.312500", "114638.100000", "114638.890000", "114639.677500", "114640.465000", "114641.252500", "114642.042500", "114642.830000", "114643.617500", "114644.405000", "114645.195000", "114645.982500", "114646.770000", "114647.557500", "114648.347500", "114649.135000", "114649.922500", "114650.712500", "114651.500000", "114652.287500", "114653.075000", "114653.865000", "114654.652500", "114655.440000", "114656.227500", "114657.017500", "114657.805000", "114658.592500", "114659.380000", "114700.170000", "114700.957500", "114701.745000", "114702.532500", "114703.322500", "114704.110000", "114704.897500", "114705.685000", "114706.475000", "114707.262500", "114708.050000", "114708.840000", "114709.627500", "114710.415000", "114711.202500", "114711.992500", "114712.780000", "114713.567500", "114714.355000", "114715.145000", "114715.932500", "114716.720000", "114717.507500", "114718.297500", "114719.085000", "114719.872500", "114720.660000", "114721.450000", "114722.237500", "114723.025000", "114723.812500", "114724.602500", "114725.390000", "114726.177500", "114726.967500", "114727.755000", "114728.542500", "114729.330000", "114730.120000", "114730.907500", "114731.695000", "114732.482500", "114733.272500", "114734.060000", "114734.847500", "114735.635000", "114736.425000", "114737.212500", "114738.000000", "114738.787500", "114739.577500", "114740.365000", "114741.152500", "114741.940000", "114742.730000", "114743.517500", "114744.305000", "114745.095000", "114745.882500", "114746.670000", "114747.457500", "114748.247500", "114749.035000", "114749.822500", "114750.610000", "114751.400000", "114752.187500", "114752.975000", "114753.762500", "114754.552500", "114755.340000", "114756.127500", "114756.915000", "114757.705000", "114758.492500", "114759.280000", "114800.067500", "114800.857500", "114801.645000", "114802.432500", "114803.222500", "114804.010000", "114804.797500", "114805.585000", "114806.375000", "114807.162500", "114807.950000", "114808.737500", "114809.527500", "114810.315000", "114811.102500", "114811.890000", "114812.680000", "114813.467500", "114814.255000", "114815.042500", "114815.832500", "114816.620000", "114817.407500", "114818.195000", "114818.985000", "114819.772500", "114820.560000", "114821.350000", "114822.137500", "114822.925000", "114823.712500", "114824.502500", "114825.290000", "114826.077500", "114826.865000", "114827.655000", "114828.442500", "114829.230000", "114830.017500", "114830.807500", "114831.595000", "114832.382500", "114833.170000", "114833.960000", "114834.747500", "114835.535000", "114836.322500", "114837.112500", "114837.900000"],
      "ContentTime": ["114132.671000", "114132.671000", "114132.671000", "114132.671000", "114132.687000", "114132.687000", "114132.687000", "114132.687000", "114132.687000", "114132.687000", "114132.687000", "114132.687000", "114132.703000", "114132.703000", "114132.703000", "114132.703000", "114132.703000", "114132.703000", "114132.703000", "114132.703000", "114132.718000", "114132.718000", "114132.718000", "114132.718000", "114132.718000", "114132.718000", "114132.718000", "114132.734000", "114132.734000", "114132.734000", "114132.734000", "114132.734000", "114132.734000", "114132.734000", "114132.750000", "114132.750000", "114132.750000", "114152.640000", "114152.640000", "114152.640000", "114152.640000", "114152.656000", "114152.656000", "114152.656000", "114152.656000", "114152.656000", "114152.656000", "114152.656000", "114152.671000", "114152.671000", "114152.671000", "114152.671000", "114152.671000", "114152.671000", "114152.687000", "114152.687000", "114152.687000", "114152.687000", "114152.687000", "114152.703000", "114152.703000", "114152.703000", "114152.703000", "114212.640000", "114212.640000", "114212.640000", "114212.656000", "114212.656000", "114212.656000", "114212.656000", "114212.656000", "114212.656000", "114212.656000", "114212.656000", "114212.671000", "114212.671000", "114212.671000", "114212.671000", "114212.671000", "114212.671000", "114212.671000", "114212.671000", "114212.687000", "114212.687000", "114212.687000", "114212.687000", "114212.687000", "114212.687000", "114232.640000", "114232.640000", "114232.640000", "114232.640000", "114232.656000", "114232.656000", "114232.656000", "114232.656000", "114232.656000", "114232.656000", "114232.656000", "114232.671000", "114232.671000", "114232.671000", "114232.671000", "114232.671000", "114232.671000", "114232.671000", "114232.671000", "114232.687000", "114232.687000", "114232.687000", "114232.687000", "114232.687000", "114232.687000", "114232.703000", "114252.640000", "114252.640000", "114252.640000", "114252.656000", "114252.656000", "114252.656000", "114252.656000", "114252.656000", "114252.656000", "114252.656000", "114252.671000", "114252.671000", "114252.671000", "114252.671000", "114252.671000", "114252.671000", "114252.671000", "114252.671000", "114252.687000", "114252.687000", "114252.687000", "114252.687000", "114252.687000", "114252.703000", "114252.703000", "114312.640000", "114312.640000", "114312.640000", "114312.640000", "114312.656000", "114312.656000", "114312.656000", "114312.656000", "114312.656000", "114312.656000", "114312.656000", "114312.671000", "114312.671000", "114312.671000", "114312.671000", "114312.671000", "114312.671000", "114312.671000", "114312.687000", "114312.687000", "114312.687000", "114312.687000", "114312.687000", "114312.687000", "114312.687000", "114312.687000", "114332.640000", "114332.640000", "114332.640000", "114332.656000", "114332.656000", "114332.656000", "114332.656000", "114332.656000", "114332.656000", "114332.656000", "114332.656000", "114332.671000", "114332.671000", "114332.671000", "114332.671000", "114332.671000", "114332.671000", "114332.671000", "114332.687000", "114332.687000", "114332.687000", "114332.687000", "114332.687000", "114332.687000", "114332.687000", "114352.640000", "114352.640000", "114352.640000", "114352.640000", "114352.656000", "114352.656000", "114352.656000", "114352.656000", "114352.656000", "114352.656000", "114352.656000", "114352.671000", "114352.671000", "114352.671000", "114352.671000", "114352.671000", "114352.671000", "114352.687000", "114352.687000", "114352.687000", "114352.687000", "114352.687000", "114352.687000", "114352.687000", "114352.703000", "114352.703000", "114412.640000", "114412.640000", "114412.656000", "114412.656000", "114412.656000", "114412.656000", "114412.656000", "114412.656000", "114412.656000", "114412.671000", "114412.671000", "114412.671000", "114412.671000", "114412.671000", "114412.671000", "114412.671000", "114412.671000", "114412.687000", "114412.687000", "114412.687000", "114412.687000", "114412.687000", "114412.703000", "114412.703000", "114412.703000", "114432.640000", "114432.656000", "114432.656000", "114432.656000", "114432.656000", "114432.656000", "114432.656000", "114432.656000", "114432.671000", "114432.671000", "114432.671000", "114432.671000", "114432.671000", "114432.671000", "114432.671000", "114432.687000", "114432.687000", "114432.687000", "114432.687000", "114432.687000", "114432.687000", "114432.687000", "114432.687000", "114432.703000", "114432.703000", "114432.703000", "114452.640000", "114452.640000", "114452.640000", "114452.640000", "114452.656000", "114452.656000", "114452.656000", "114452.656000", "114452.656000", "114452.656000", "114452.656000", "114452.671000", "114452.671000", "114452.671000", "114452.671000", "114452.671000", "114452.671000", "114452.671000", "114452.671000", "114452.687000", "114452.687000", "114452.687000", "114452.687000", "114452.687000", "114452.687000", "114512.640000", "114512.640000", "114512.640000", "114512.656000", "114512.656000", "114512.656000", "114512.656000", "114512.656000", "114512.656000", "114512.656000", "114512.656000", "114512.671000", "114512.671000", "114512.671000", "114512.671000", "114512.671000", "114512.687000", "114512.687000", "114512.687000", "114512.687000", "114512.687000", "114512.687000", "114512.687000", "114512.703000", "114512.703000", "114532.640000", "114532.640000", "114532.640000", "114532.640000", "114532.656000", "114532.656000", "114532.656000", "114532.656000", "114532.656000", "114532.656000", "114532.656000", "114532.671000", "114532.671000", "114532.671000", "114532.671000", "114532.671000", "114532.671000", "114532.671000", "114532.671000", "114532.687000", "114532.687000", "114532.687000", "114532.687000", "114532.687000", "114532.687000", "114532.687000", "114552.640000", "114552.640000", "114552.640000", "114552.640000", "114552.656000", "114552.656000", "114552.656000", "114552.656000", "114552.656000", "114552.656000", "114552.656000", "114552.671000", "114552.671000", "114552.671000", "114552.671000", "114552.671000", "114552.671000", "114552.671000", "114552.687000", "114552.687000", "114552.687000", "114552.687000", "114552.687000", "114552.703000", "114552.703000", "114612.640000", "114612.640000", "114612.640000", "114612.640000", "114612.656000", "114612.656000", "114612.656000", "114612.656000", "114612.656000", "114612.656000", "114612.656000", "114612.671000", "114612.671000", "114612.671000", "114612.671000", "114612.671000", "114612.671000", "114612.671000", "114612.671000", "114612.687000", "114612.687000", "114612.687000", "114612.687000", "114612.687000", "114612.687000", "114612.687000", "114632.640000", "114632.640000", "114632.640000", "114632.656000", "114632.656000", "114632.656000", "114632.656000", "114632.656000", "114632.656000", "114632.656000", "114632.656000", "114632.671000", "114632.671000", "114632.671000", "114632.671000", "114632.671000", "114632.671000", "114632.671000", "114632.671000", "114632.687000", "114632.687000", "114632.687000", "114632.687000", "114632.687000", "114632.687000", "114652.640000", "114652.640000", "114652.640000", "114652.640000", "114652.656000", "114652.656000", "114652.656000", "114652.656000", "114652.656000", "114652.656000", "114652.656000", "114652.671000", "114652.671000", "114652.671000", "114652.671000", "114652.671000", "114652.671000", "114652.671000", "114652.687000", "114652.687000", "114652.687000", "114652.687000", "114652.687000", "114652.687000", "114652.687000", "114652.687000", "114712.640000", "114712.640000", "114712.640000", "114712.640000", "114712.656000", "114712.656000", "114712.656000", "114712.656000", "114712.656000", "114712.656000", "114712.656000", "114712.671000", "114712.671000", "114712.671000", "114712.671000", "114712.671000", "114712.671000", "114712.671000", "114712.687000", "114712.687000", "114712.687000", "114712.687000", "114712.687000", "114712.687000", "114712.687000", "114732.640000", "114732.640000", "114732.640000", "114732.656000", "114732.656000", "114732.656000", "114732.656000", "114732.656000", "114732.656000", "114732.656000", "114732.656000", "114732.671000", "114732.671000", "114732.671000", "114732.671000", "114732.671000", "114732.671000", "114732.671000", "114732.687000", "114732.687000", "114732.687000", "114732.687000", "114732.687000", "114732.687000", "114732.687000", "114732.703000", "114752.640000", "114752.640000", "114752.640000", "114752.656000", "114752.656000", "114752.656000", "114752.656000", "114752.656000", "114752.656000", "114752.656000", "114752.671000", "114752.671000", "114752.671000", "114752.671000", "114752.671000", "114752.671000", "114752.671000", "114752.687000", "114752.687000", "114752.687000", "114752.687000", "114752.687000", "114752.687000", "114752.687000", "114752.703000", "114812.640000", "114812.640000", "114812.640000", "114812.656000", "114812.656000", "114812.656000", "114812.656000", "114812.656000", "114812.656000", "114812.656000", "114812.656000", "114812.671000", "114812.671000", "114812.671000", "114812.671000", "114812.671000", "114812.671000", "114812.671000", "114812.687000", "114812.687000", "114812.687000", "114812.687000", "114812.687000", "114812.687000", "114812.687000", "114812.687000", "114832.640000", "114832.640000", "114832.640000", "114832.640000", "114832.656000", "114832.656000", "114832.656000", "114832.656000", "114832.656000", "114832.656000", "114832.656000", "114832.671000", "114832.671000", "114832.671000", "114832.671000", "114832.671000", "114832.671000", "114832.671000", "114832.687000", "114832.687000", "114832.687000", "114832.687000", "114832.687000", "114832.687000", "114832.687000", "114839.203000", "114839.218000", "114839.218000", "114839.218000", "114839.218000", "114839.218000", "114839.218000", "114839.218000", "114839.218000"],
