{
  "AcquisitionMatrixPE": 104,
  "AcquisitionNumber": 1,
  "AcquisitionTime": "17:42:40.700000",
  "BandwidthPerPixelPhaseEncode": 13.935,
  "BaseResolution": 104,
  "CoilString": "C:HEA;HEP",
  "ConversionSoftware": "dcm2niix",
  "ConversionSoftwareVersion": "v1.0.20210317",
  "DerivedVendorReportedEchoSpacing": 0.000690017,
  "DeviceSerialNumber": "35450",
  "DwellTime": 2.5e-06,
  "EchoTime": 0.0348,
  "EffectiveEchoSpacing": 0.000690017,
  "FlipAngle": 55,
  "ImageComments": "Unaliased MB8/PE3 (remote)",
  "ImageOrientationPatientDICOM": [1, 2.00789e-06, 0.000228425, -1.51369e-08, 0.999962, -0.00872355],
  "ImageType": [
    "ORIGINAL",
    "PRIMARY",
    "M",
    "MB",
    "ND",
    "MOSAIC"
],
  "ImagingFrequency": 123.235,
  "InPlanePhaseEncodingDirectionDICOM": "COL",
  "InstitutionAddress": "Univeristy Ave. 197,Newark,North East,US,07102-1814",
  "InstitutionName": "RUBIC",
  "InstitutionalDepartmentName": "Department",
  "MRAcquisitionType": "2D",
  "MagneticFieldStrength": 3,
  "Manufacturer": "Siemens",
  "ManufacturersModelName": "TrioTim",
  "Modality": "MR",
  "MultibandAccelerationFactor": 8,
  "PartialFourier": 0.875,
  "PatientPosition": "HFS",
  "PercentPhaseFOV": 100,
  "PercentSampling": 100,
  "PhaseEncodingDirection": "j-",
  "PhaseEncodingSteps": 91,
  "PhaseResolution": 1,
  "PixelBandwidth": 1923,
  "ProcedureStepDescription": "Cole^Michael",
  "ProtocolName": "cmrr_mbep2d_bold_2mm_MB8_Task_8x",
  "PulseSequenceDetails": "%CustomerSeq%\\cmrr_mbep2d_bold",
  "ReceiveCoilName": "32Ch_Head",
  "ReconMatrixPE": 104,
  "RepetitionTime": 0.785,
  "SAR": 0.241499,
  "ScanOptions": "PFP\\FS",
  "ScanningSequence": "EP",
  "SequenceName": "epfid2d1_104",
  "SequenceVariant": "SK\\SS",
  "SeriesDescription": "cmrr_mbep2d_bold_2mm_MB8_Task_8x",
  "SeriesNumber": 25,
  "ShimSetting": [2010, -271, -7249, 536, -183, -176, -209, 364],
  "SliceThickness": 2,
  "SliceTiming": [0, 0.4375, 0.0875, 0.525, 0.175, 0.6125, 0.2625, 0.7, 0.35, 0, 0.4375, 0.0875, 0.525, 0.175, 0.6125, 0.2625, 0.7, 0.35, 0, 0.4375, 0.0875, 0.525, 0.175, 0.6125, 0.2625, 0.7, 0.35, 0, 0.4375, 0.0875, 0.525, 0.175, 0.6125, 0.2625, 0.7, 0.35, 0, 0.4375, 0.0875, 0.525, 0.175, 0.6125, 0.2625, 0.7, 0.35, 0, 0.4375, 0.0875, 0.525, 0.175, 0.6125, 0.2625, 0.7, 0.35, 0, 0.4375, 0.0875, 0.525, 0.175, 0.6125, 0.2625, 0.7, 0.35, 0, 0.4375, 0.0875, 0.525, 0.175, 0.6125, 0.2625, 0.7, 0.35],
  "SoftwareVersions": "syngo MR B19",
  "SpacingBetweenSlices": 2,
  "StationName": "MRC35450",
  "TaskName": "cpro",
  "TotalReadoutTime": 0.0710717,
  "TxRefAmp": 460.323,
  "dcmmeta_affine": [
    [-2.0, -3.0273813678149963e-08, 0.00045686843805015087, 103.87020111083984],
    [-4.015785179944942e-06, 1.9999239444732666, -0.0174470916390419, -97.0390396118164],
    [0.00045685077202506363, 0.0174470916390419, 1.999923825263977, -94.84534454345703],
    [0.0, 0.0, 0.0, 1.0]
],
  "dcmmeta_reorient_transform": [
    [0.0, -1.0, 0.0, 103.0],
    [1.0, 0.0, 0.0, 0.0],
    [0.0, 0.0, 1.0, 0.0],
    [0.0, 0.0, 0.0, 1.0]
],
  "dcmmeta_shape": [104, 104, 72, 581],
  "dcmmeta_slice_dim": 2,
  "dcmmeta_version": 0.6,
  "global": {
    "const": {
      "AcquisitionMatrix": [104, 0, 0, 104],
      "AngioFlag": "N",
      "BitsAllocated": 16,
      "BitsStored": 12,
      "Columns": 936,
      "EchoNumbers": 1,
      "EchoTime": 34.8,
      "EchoTrainLength": 1,
      "FlipAngle": 55.0,
      "HighBit": 11,
      "ImageOrientationPatient": [0.99999997390891, 2.007892612e-06, 0.00022842538633, -1.5136906e-08, 0.99996194915097, -0.0087235457355],
      "ImagePositionPatient": [-935.87016125484, -940.92313101081, -85.9803529367],
      "ImageType": [
        "ORIGINAL",
        "PRIMARY",
        "M",
        "MB",
        "ND",
        "MOSAIC"
],
      "ImagedNucleus": "1H",
      "ImagingFrequency": 123.234565,
      "InPlanePhaseEncodingDirection": "COL",
      "MRAcquisitionType": "2D",
      "MagneticFieldStrength": 3.0,
      "Manufacturer": "SIEMENS",
      "ManufacturerModelName": "TrioTim",
      "Modality": "MR",
      "NumberOfAverages": 1.0,
      "NumberOfPhaseEncodingSteps": 91,
      "PercentPhaseFieldOfView": 100.0,
      "PercentSampling": 100.0,
      "PerformedProcedureStepStartTime": "154737.875000",
      "PhotometricInterpretation": "MONOCHROME2",
      "PixelBandwidth": 1923.0,
      "PixelRepresentation": 0,
      "PixelSpacing": [2.0, 2.0],
      "ProtocolName": "cmrr_mbep2d_bold_2mm_MB8_Task_8x",
      "RepetitionTime": 785.0,
      "Rows": 936,
      "SAR": 0.24149931136604,
      "SamplesPerPixel": 1,
      "ScanOptions": [
        "PFP",
        "FS"
],
      "ScanningSequence": "EP",
      "SequenceName": "epfid2d1_104",
      "SequenceVariant": [
        "SK",
        "SS"
],
      "SeriesDescription": "cmrr_mbep2d_bold_2mm_MB8_Task_8x",
      "SeriesNumber": 25,
      "SeriesTime": "174304.078000",
      "SliceLocation": -93.971480056148,
      "SliceThickness": 2.0,
      "SmallestImagePixelValue": 0,
      "SoftwareVersions": "syngo MR B19",
      "SpacingBetweenSlices": 2.0000000210972,
      "SpecificCharacterSet": "ISO_IR 100",
      "StudyID": "1",
      "StudyTime": "154737.828000",
      "TransmitCoilName": "Body",
      "VariableFlipAngleFlag": "N",
      "WindowCenterWidthExplanation": "Algo1",
      "dBdt": 0.0},
    "slices": {}
  },
  "time": {
    "samples": {
      "AcquisitionNumber": [1, 2, 3, 4, 5, 6, 7, 8, 9, 10, 11, 12, 13, 14, 15, 16, 17, 18, 19, 20, 21, 22, 23, 24, 25, 26, 27, 28, 29, 30, 31, 32, 33, 34, 35, 36, 37, 38, 39, 40, 41, 42, 43, 44, 45, 46, 47, 48, 49, 50, 51, 52, 53, 54, 55, 56, 57, 58, 59, 60, 61, 62, 63, 64, 65, 66, 67, 68, 69, 70, 71, 72, 73, 74, 75, 76, 77, 78, 79, 80, 81, 82, 83, 84, 85, 86, 87, 88, 89, 90, 91, 92, 93, 94, 95, 96, 97, 98, 99, 100, 101, 102, 103, 104, 105, 106, 107, 108, 109, 110, 111, 112, 113, 114, 115, 116, 117, 118, 119, 120, 121, 122, 123, 124, 125, 126, 127, 128, 129, 130, 131, 132, 133, 134, 135, 136, 137, 138, 139, 140, 141, 142, 143, 144, 145, 146, 147, 148, 149, 150, 151, 152, 153, 154, 155, 156, 157, 158, 159, 160, 161, 162, 163, 164, 165, 166, 167, 168, 169, 170, 171, 172, 173, 174, 175, 176, 177, 178, 179, 180, 181, 182, 183, 184, 185, 186, 187, 188, 189, 190, 191, 192, 193, 194, 195, 196, 197, 198, 199, 200, 201, 202, 203, 204, 205, 206, 207, 208, 209, 210, 211, 212, 213, 214, 215, 216, 217, 218, 219, 220, 221, 222, 223, 224, 225, 226, 227, 228, 229, 230, 231, 232, 233, 234, 235, 236, 237, 238, 239, 240, 241, 242, 243, 244, 245, 246, 247, 248, 249, 250, 251, 252, 253, 254, 255, 256, 257, 258, 259, 260, 261, 262, 263, 264, 265, 266, 267, 268, 269, 270, 271, 272, 273, 274, 275, 276, 277, 278, 279, 280, 281, 282, 283, 284, 285, 286, 287, 288, 289, 290, 291, 292, 293, 294, 295, 296, 297, 298, 299, 300, 301, 302, 303, 304, 305, 306, 307, 308, 309, 310, 311, 312, 313, 314, 315, 316, 317, 318, 319, 320, 321, 322, 323, 324, 325, 326, 327, 328, 329, 330, 331, 332, 333, 334, 335, 336, 337, 338, 339, 340, 341, 342, 343, 344, 345, 346, 347, 348, 349, 350, 351, 352, 353, 354, 355, 356, 357, 358, 359, 360, 361, 362, 363, 364, 365, 366, 367, 368, 369, 370, 371, 372, 373, 374, 375, 376, 377, 378, 379, 380, 381, 382, 383, 384, 385, 386, 387, 388, 389, 390, 391, 392, 393, 394, 395, 396, 397, 398, 399, 400, 401, 402, 403, 404, 405, 406, 407, 408, 409, 410, 411, 412, 413, 414, 415, 416, 417, 418, 419, 420, 421, 422, 423, 424, 425, 426, 427, 428, 429, 430, 431, 432, 433, 434, 435, 436, 437, 438, 439, 440, 441, 442, 443, 444, 445, 446, 447, 448, 449, 450, 451, 452, 453, 454, 455, 456, 457, 458, 459, 460, 461, 462, 463, 464, 465, 466, 467, 468, 469, 470, 471, 472, 473, 474, 475, 476, 477, 478, 479, 480, 481, 482, 483, 484, 485, 486, 487, 488, 489, 490, 491, 492, 493, 494, 495, 496, 497, 498, 499, 500, 501, 502, 503, 504, 505, 506, 507, 508, 509, 510, 511, 512, 513, 514, 515, 516, 517, 518, 519, 520, 521, 522, 523, 524, 525, 526, 527, 528, 529, 530, 531, 532, 533, 534, 535, 536, 537, 538, 539, 540, 541, 542, 543, 544, 545, 546, 547, 548, 549, 550, 551, 552, 553, 554, 555, 556, 557, 558, 559, 560, 561, 562, 563, 564, 565, 566, 567, 568, 569, 570, 571, 572, 573, 574, 575, 576, 577, 578, 579, 580, 581],
      "AcquisitionTime": ["174240.700000", "174241.487500", "174242.275000", "174243.065000", "174243.852500", "174244.640000", "174245.427500", "174246.217500", "174247.005000", "174247.792500", "174248.580000", "174249.370000", "174250.157500", "174250.945000", "174251.732500", "174252.522500", "174253.310000", "174254.097500", "174254.887500", "174255.675000", "174256.462500", "174257.250000", "174258.040000", "174258.827500", "174259.615000", "174300.402500", "174301.192500", "174301.980000", "174302.767500", "174303.555000", "174304.345000", "174305.132500", "174305.920000", "174306.707500", "174307.497500", "174308.285000", "174309.072500", "174309.860000", "174310.650000", "174311.437500", "174312.225000", "174313.015000", "174313.802500", "174314.590000", "174315.377500", "174316.167500", "174316.955000", "174317.742500", "174318.530000", "174319.320000", "174320.107500", "174320.895000", "174321.682500", "174322.472500", "174323.260000", "174324.047500", "174324.835000", "174325.625000", "174326.412500", "174327.200000", "174327.987500", "174328.777500", "174329.565000", "174330.352500", "174331.142500", "174331.930000", "174332.717500", "174333.505000", "174334.295000", "174335.082500", "174335.870000", "174336.657500", "174337.447500", "174338.235000", "174339.022500", "174339.810000", "174340.600000", "174341.387500", "174342.175000", "174342.962500", "174343.752500", "174344.540000", "174345.327500", "174346.115000", "174346.905000", "174347.692500", "174348.480000", "174349.270000", "174350.057500", "174350.845000", "174351.632500", "174352.422500", "174353.210000", "174353.997500", "174354.785000", "174355.575000", "174356.362500", "174357.150000", "174357.937500", "174358.727500", "174359.515000", "174400.302500", "174401.090000", "174401.880000", "174402.667500", "174403.455000", "174404.242500", "174405.032500", "174405.820000", "174406.607500", "174407.397500", "174408.185000", "174408.972500", "174409.760000", "174410.550000", "174411.337500", "174412.125000", "174412.912500", "174413.702500", "174414.490000", "174415.277500", "174416.065000", "174416.855000", "174417.642500", "174418.430000", "174419.217500", "174420.007500", "174420.795000", "174421.582500", "174422.370000", "174423.160000", "174423.947500", "174424.735000", "174425.525000", "174426.312500", "174427.100000", "174427.887500", "174428.677500", "174429.465000", "174430.252500", "174431.040000", "174431.830000", "174432.617500", "174433.405000", "174434.192500", "174434.982500", "174435.770000", "174436.557500", "174437.345000", "174438.135000", "174438.922500", "174439.710000", "174440.497500", "174441.287500", "174442.075000", "174442.862500", "174443.652500", "174444.440000", "174445.227500", "174446.015000", "174446.805000", "174447.592500", "174448.380000", "174449.167500", "174449.957500", "174450.745000", "174451.532500", "174452.320000", "174453.110000", "174453.897500", "174454.685000", "174455.472500", "174456.262500", "174457.050000", "174457.837500", "174458.625000", "174459.415000", "174500.202500", "174500.990000", "174501.780000", "174502.567500", "174503.355000", "174504.142500", "174504.932500", "174505.720000", "174506.507500", "174507.295000", "174508.085000", "174508.872500", "174509.660000", "174510.447500", "174511.237500", "174512.025000", "174512.812500", "174513.600000", "174514.390000", "174515.177500", "174515.965000", "174516.755000", "174517.542500", "174518.330000", "174519.117500", "174519.907500", "174520.695000", "174521.482500", "174522.270000", "174523.060000", "174523.847500", "174524.635000", "174525.422500", "174526.212500", "174527.000000", "174527.787500", "174528.575000", "174529.365000", "174530.152500", "174530.940000", "174531.727500", "174532.517500", "174533.305000", "174534.092500", "174534.882500", "174535.670000", "174536.457500", "174537.245000", "174538.035000", "174538.822500", "174539.610000", "174540.397500", "174541.187500", "174541.975000", "174542.762500", "174543.550000", "174544.340000", "174545.127500", "174545.915000", "174546.702500", "174547.492500", "174548.280000", "174549.067500", "174549.855000", "174550.645000", "174551.432500", "174552.220000", "174553.010000", "174553.797500", "174554.585000", "174555.372500", "174556.162500", "174556.950000", "174557.737500", "174558.525000", "174559.315000", "174600.102500", "174600.890000", "174601.677500", "174602.467500", "174603.255000", "174604.042500", "174604.830000", "174605.620000", "174606.407500", "174607.195000", "174607.982500", "174608.772500", "174609.560000", "174610.347500", "174611.137500", "174611.925000", "174612.712500", "174613.500000", "174614.290000", "174615.077500", "174615.865000", "174616.652500", "174617.442500", "174618.230000", "174619.017500", "174619.805000", "174620.595000", "174621.382500", "174622.170000", "174622.957500", "174623.747500", "174624.535000", "174625.322500", "174626.110000", "174626.900000", "174627.687500", "174628.475000", "174629.265000", "174630.052500", "174630.840000", "174631.627500", "174632.417500", "174633.205000", "174633.992500", "174634.780000", "174635.570000", "174636.357500", "174637.145000", "174637.932500", "174638.722500", "174639.510000", "174640.297500", "174641.085000", "174641.875000", "174642.662500", "174643.450000", "174644.237500", "174645.027500", "174645.815000", "174646.602500", "174647.392500", "174648.180000", "174648.967500", "174649.755000", "174650.545000", "174651.332500", "174652.120000", "174652.907500", "174653.697500", "174654.485000", "174655.272500", "174656.060000", "174656.850000", "174657.637500", "174658.425000", "174659.212500", "174700.002500", "174700.790000", "174701.577500", "174702.365000", "174703.155000", "174703.942500", "174704.730000", "174705.520000", "174706.307500", "174707.095000", "174707.882500", "174708.672500", "174709.460000", "174710.247500", "174711.035000", "174711.825000", "174712.612500", "174713.400000", "174714.187500", "174714.977500", "174715.765000", "174716.552500", "174717.340000", "174718.130000", "174718.917500", "174719.705000", "174720.492500", "174721.282500", "174722.070000", "174722.857500", "174723.647500", "174724.435000", "174725.222500", "174726.010000", "174726.800000", "174727.587500", "174728.375000", "174729.162500", "174729.952500", "174730.740000", "174731.527500", "174732.315000", "174733.105000", "174733.892500", "174734.680000", "174735.467500", "174736.257500", "174737.045000", "174737.832500", "174738.620000", "174739.410000", "174740.197500", "174740.985000", "174741.775000", "174742.562500", "174743.350000", "174744.137500", "174744.927500", "174745.715000", "174746.502500", "174747.290000", "174748.080000", "174748.867500", "174749.655000", "174750.442500", "174751.232500", "174752.020000", "174752.807500", "174753.595000", "174754.385000", "174755.172500", "174755.960000", "174756.747500", "174757.537500", "174758.325000", "174759.112500", "174759.902500", "174800.690000", "174801.477500", "174802.265000", "174803.055000", "174803.842500", "174804.630000", "174805.417500", "174806.207500", "174806.995000", "174807.782500", "174808.570000", "174809.360000", "174810.147500", "174810.935000", "174811.722500", "174812.512500", "174813.300000", "174814.087500", "174814.875000", "174815.665000", "174816.452500", "174817.240000", "174818.030000", "174818.817500", "174819.605000", "174820.392500", "174821.182500", "174821.970000", "174822.757500", "174823.545000", "174824.335000", "174825.122500", "174825.910000", "174826.697500", "174827.487500", "174828.275000", "174829.062500", "174829.850000", "174830.640000", "174831.427500", "174832.215000", "174833.005000", "174833.792500", "174834.580000", "174835.367500", "174836.157500", "174836.945000", "174837.732500", "174838.520000", "174839.310000", "174840.097500", "174840.885000", "174841.672500", "174842.462500", "174843.250000", "174844.037500", "174844.825000", "174845.615000", "174846.402500", "174847.190000", "174847.977500", "174848.767500", "174849.555000", "174850.342500", "174851.132500", "174851.920000", "174852.707500", "174853.495000", "174854.285000", "174855.072500", "174855.860000", "174856.647500", "174857.437500", "174858.225000", "174859.012500", "174859.800000", "174900.590000", "174901.377500", "174902.165000", "174902.952500", "174903.742500", "174904.530000", "174905.317500", "174906.105000", "174906.895000", "174907.682500", "174908.470000", "174909.260000", "174910.047500", "174910.835000", "174911.622500", "174912.412500", "174913.200000", "174913.987500", "174914.775000", "174915.565000", "174916.352500", "174917.140000", "174917.927500", "174918.717500", "174919.505000", "174920.292500", "174921.080000", "174921.870000", "174922.657500", "174923.445000", "174924.232500", "174925.022500", "174925.810000", "174926.597500", "174927.387500", "174928.175000", "174928.962500", "174929.750000", "174930.540000", "174931.327500", "174932.115000", "174932.902500", "174933.692500", "174934.480000", "174935.267500", "174936.055000", "174936.845000", "174937.632500", "174938.420000", "174939.207500", "174939.997500", "174940.785000", "174941.572500", "174942.360000", "174943.150000", "174943.937500", "174944.725000", "174945.515000", "174946.302500", "174947.090000", "174947.877500", "174948.667500", "174949.455000", "174950.242500", "174951.030000", "174951.820000", "174952.607500", "174953.395000", "174954.182500", "174954.972500", "174955.760000", "174956.547500", "174957.335000", "174958.125000", "174958.912500", "174959.700000", "175000.487500", "175001.277500", "175002.065000", "175002.852500", "175003.642500", "175004.430000", "175005.217500", "175006.005000", "175006.795000", "175007.582500", "175008.370000", "175009.157500", "175009.947500", "175010.735000", "175011.522500", "175012.310000", "175013.100000", "175013.887500", "175014.675000", "175015.462500", "175016.252500", "175017.040000", "175017.827500"],
      "ContentTime": ["174304.078000", "174304.078000", "174304.078000", "174304.078000", "174304.078000", "174304.078000", "174304.093000", "174304.093000", "174304.093000", "174304.093000", "174304.109000", "174304.109000", "174304.109000", "174304.109000", "174304.109000", "174304.109000", "174304.125000", "174304.125000", "174304.125000", "174304.125000", "174304.125000", "174304.125000", "174304.140000", "174304.140000", "174304.140000", "174304.140000", "174324.046000", "174324.046000", "174324.046000", "174324.046000", "174324.046000", "174324.046000", "174324.046000", "174324.062000", "174324.062000", "174324.062000", "174324.078000", "174324.078000", "174324.078000", "174324.093000", "174324.093000", "174324.093000", "174324.093000", "174324.093000", "174324.093000", "174324.093000", "174324.109000", "174324.109000", "174324.109000", "174324.109000", "174324.109000", "174344.046000", "174344.046000", "174344.046000", "174344.046000", "174344.046000", "174344.046000", "174344.046000", "174344.062000", "174344.062000", "174344.062000", "174344.062000", "174344.062000", "174344.062000", "174344.062000", "174344.078000", "174344.078000", "174344.078000", "174344.078000", "174344.093000", "174344.093000", "174344.093000", "174344.093000", "174344.093000", "174344.109000", "174344.109000", "174344.109000", "174404.046000", "174404.046000", "174404.046000", "174404.046000", "174404.062000", "174404.062000", "174404.062000", "174404.062000", "174404.062000", "174404.078000", "174404.078000", "174404.078000", "174404.078000", "174404.078000", "174404.078000", "174404.078000", "174404.093000", "174404.093000", "174404.109000", "174404.109000", "174404.109000", "174404.109000", "174404.109000", "174404.125000", "174404.125000", "174424.046000", "174424.046000", "174424.046000", "174424.046000", "174424.046000", "174424.046000", "174424.046000", "174424.062000", "174424.062000", "174424.078000", "174424.078000", "174424.078000", "174424.078000", "174424.078000", "174424.078000", "174424.078000", "174424.093000", "174424.093000", "174424.093000", "174424.093000", "174424.093000", "174424.093000", "174424.093000", "174424.109000", "174424.109000", "174424.109000", "174444.046000", "174444.046000", "174444.046000", "174444.046000", "174444.046000", "174444.046000", "174444.046000", "174444.062000", "174444.062000", "174444.062000", "174444.062000", "174444.062000", "174444.062000", "174444.078000", "174444.078000", "174444.078000", "174444.078000", "174444.078000", "174444.078000", "174444.078000", "174444.093000", "174444.093000", "174444.093000", "174444.093000", "174444.093000", "174504.046000", "174504.046000", "174504.046000", "174504.046000", "174504.046000", "174504.046000", "174504.046000", "174504.062000", "174504.062000", "174504.062000", "174504.062000", "174504.062000", "174504.062000", "174504.062000", "174504.078000", "174504.078000", "174504.078000", "174504.093000", "174504.093000", "174504.093000", "174504.093000", "174504.093000", "174504.093000", "174504.093000", "174504.109000", "174504.109000", "174524.046000", "174524.046000", "174524.046000", "174524.046000", "174524.046000", "174524.062000", "174524.062000", "174524.062000", "174524.062000", "174524.062000", "174524.062000", "174524.078000", "174524.078000", "174524.078000", "174524.078000", "174524.078000", "174524.093000", "174524.093000", "174524.093000", "174524.093000", "174524.109000", "174524.109000", "174524.109000", "174524.109000", "174524.109000", "174544.046000", "174544.046000", "174544.046000", "174544.046000", "174544.046000", "174544.062000", "174544.062000", "174544.062000", "174544.062000", "174544.062000", "174544.062000", "174544.062000", "174544.078000", "174544.078000", "174544.078000", "174544.078000", "174544.078000", "174544.078000", "174544.093000", "174544.093000", "174544.093000", "174544.109000", "174544.109000", "174544.109000", "174544.109000", "174544.109000", "174604.046000", "174604.046000", "174604.046000", "174604.046000", "174604.046000", "174604.046000", "174604.046000", "174604.062000", "174604.062000", "174604.062000", "174604.078000", "174604.078000", "174604.078000", "174604.078000", "174604.093000", "174604.093000", "174604.093000", "174604.093000", "174604.093000", "174604.093000", "174604.109000", "174604.109000", "174604.109000", "174604.109000", "174604.109000", "174624.046000", "174624.046000", "174624.046000", "174624.046000", "174624.046000", "174624.046000", "174624.046000", "174624.062000", "174624.062000", "174624.062000", "174624.062000", "174624.062000", "174624.078000", "174624.078000", "174624.078000", "174624.078000", "174624.078000", "174624.093000", "174624.093000", "174624.093000", "174624.093000", "174624.109000", "174624.109000", "174624.109000", "174624.109000", "174624.109000", "174644.046000", "174644.046000", "174644.046000", "174644.046000", "174644.046000", "174644.046000", "174644.046000", "174644.062000", "174644.062000", "174644.062000", "174644.062000", "174644.062000", "174644.062000", "174644.062000", "174644.078000", "174644.078000", "174644.078000", "174644.078000", "174644.093000", "174644.093000", "174644.093000", "174644.093000", "174644.093000", "174644.093000", "174644.093000", "174704.046000", "174704.046000", "174704.046000", "174704.046000", "174704.062000", "174704.062000", "174704.062000", "174704.062000", "174704.062000", "174704.062000", "174704.062000", "174704.078000", "174704.078000", "174704.078000", "174704.078000", "174704.078000", "174704.093000", "174704.093000", "174704.093000", "174704.109000", "174704.109000", "174704.109000", "174704.109000", "174704.109000", "174704.125000", "174704.125000", "174724.046000", "174724.046000", "174724.046000", "174724.046000", "174724.046000", "174724.046000", "174724.046000", "174724.062000", "174724.062000", "174724.062000", "174724.078000", "174724.078000", "174724.078000", "174724.078000", "174724.078000", "174724.078000", "174724.093000", "174724.093000", "174724.093000", "174724.093000", "174724.093000", "174724.109000", "174724.109000", "174724.109000", "174724.109000", "174744.046000", "174744.046000", "174744.046000", "174744.046000", "174744.046000", "174744.046000", "174744.046000", "174744.062000", "174744.062000", "174744.062000", "174744.078000", "174744.078000", "174744.078000", "174744.078000", "174744.078000", "174744.078000", "174744.093000", "174744.093000", "174744.093000", "174744.093000", "174744.093000", "174744.093000", "174744.109000", "174744.109000", "174744.109000", "174744.109000", "174804.046000", "174804.046000", "174804.046000", "174804.046000", "174804.046000", "174804.046000", "174804.046000", "174804.062000", "174804.062000", "174804.062000", "174804.062000", "174804.062000", "174804.062000", "174804.062000", "174804.078000", "174804.093000", "174804.093000", "174804.093000", "174804.093000", "174804.109000", "174804.109000", "174804.109000", "174804.109000", "174804.109000", "174804.109000", "174824.046000", "174824.046000", "174824.046000", "174824.046000", "174824.062000", "174824.062000", "174824.062000", "174824.062000", "174824.078000", "174824.078000", "174824.078000", "174824.078000", "174824.078000", "174824.078000", "174824.078000", "174824.093000", "174824.093000", "174824.109000", "174824.109000", "174824.109000", "174824.109000", "174824.109000", "174824.109000", "174824.109000", "174824.125000", "174824.125000", "174844.046000", "174844.046000", "174844.046000", "174844.046000", "174844.046000", "174844.062000", "174844.062000", "174844.062000", "174844.062000", "174844.062000", "174844.062000", "174844.062000", "174844.078000", "174844.078000", "174844.078000", "174844.078000", "174844.078000", "174844.078000", "174844.078000", "174844.093000", "174844.093000", "174844.109000", "174844.109000", "174844.109000", "174844.109000", "174904.046000", "174904.046000", "174904.046000", "174904.046000", "174904.046000", "174904.046000", "174904.046000", "174904.062000", "174904.062000", "174904.078000", "174904.078000", "174904.078000", "174904.078000", "174904.078000", "174904.078000", "174904.078000", "174904.093000", "174904.093000", "174904.093000", "174904.093000", "174904.093000", "174904.109000", "174904.109000", "174904.109000", "174904.109000", "174904.125000", "174924.046000", "174924.046000", "174924.046000", "174924.046000", "174924.046000", "174924.046000", "174924.046000", "174924.062000", "174924.062000", "174924.062000", "174924.062000", "174924.062000", "174924.078000", "174924.078000", "174924.078000", "174924.078000", "174924.093000", "174924.093000", "174924.093000", "174924.093000", "174924.093000", "174924.093000", "174924.109000", "174924.109000", "174924.109000", "174944.046000", "174944.046000", "174944.046000", "174944.046000", "174944.046000", "174944.046000", "174944.046000", "174944.062000", "174944.062000", "174944.062000", "174944.062000", "174944.062000", "174944.062000", "174944.078000", "174944.078000", "174944.078000", "174944.078000", "174944.093000", "174944.093000", "174944.093000", "174944.093000", "174944.093000", "174944.109000", "174944.109000", "174944.109000", "174944.109000", "175004.046000", "175004.046000", "175004.046000", "175004.046000", "175004.062000", "175004.062000", "175004.062000", "175004.062000", "175004.062000", "175004.062000", "175004.062000", "175004.078000", "175004.078000", "175004.078000", "175004.078000", "175004.078000", "175004.078000", "175004.093000", "175004.093000", "175004.109000", "175004.109000", "175004.109000", "175004.109000", "175004.109000", "175004.125000", "175019.406000", "175019.406000", "175019.421000", "175019.421000", "175019.421000", "175019.421000", "175019.421000", "175019.421000", "175019.421000", "175019.437000", "175019.437000", "175019.437000", "175019.437000", "175019.437000", "175019.437000", "175019.453000", "175019.453000", "175019.453000", "175019.453000", "175019.468000"],
      "DataSetTrailingPadding": [
        "\u0000\u0000\u0000\u0000\u0000\u0000\u0000\u0000\u0000\u0000\u0000\u0000\u0000\u0000\u0000\u0000\u0000\u0000\u0000\u0000\u0000\u0000\u0000\u0000\u0000\u0000\u0000\u0000\u0000\u0000\u0000\u0000\u0000\u0000\u0000\u0000\u0000\u0000\u0000\u0000\u0000\u0000\u0000\u0000\u0000\u0000\u0000\u0000\u0000\u0000\u0000\u0000\u0000\u0000\u0000\u0000\u0000\u0000\u0000\u0000\u0000\u0000\u0000\u0000\u0000\u0000\u0000\u0000\u0000\u0000\u0000\u0000\u0000\u0000\u0000\u0000\u0000\u0000\u0000\u0000\u0000\u0000\u0000\u0000\u0000\u0000\u0000\u0000\u0000\u0000\u0000\u0000\u0000\u0000\u0000\u0000\u0000\u0000\u0000\u0000\u0000\u0000\u0000\u0000\u0000\u0000\u0000\u0000\u0000\u0000\u0000\u0000\u0000\u0000\u0000\u0000\u0000\u0000\u0000\u0000\u0000\u0000\u0000\u0000\u0000\u0000\u0000\u0000\u0000\u0000\u0000\u0000\u0000\u0000\u0000\u0000\u0000\u0000\u0000\u0000\u0000\u0000\u0000\u0000\u0000\u0000\u0000\u0000\u0000\u0000\u0000\u0000\u0000\u0000\u0000\u0000\u0000\u0000\u0000\u0000\u0000\u0000\u0000\u0000\u0000\u0000\u0000\u0000\u0000\u0000\u0000\u0000\u0000\u0000\u0000\u0000\u0000\u0000\u0000\u0000\u0000\u0000\u0000\u0000\u0000\u0000\u0000\u0000\u0000\u0000\u0000\u0000\u0000\u0000\u0000\u0000\u0000\u0000\u0000\u0000\u0000\u0000\u0000\u0000\u0000\u0000\u0000\u0000\u0000\u0000\u0000\u0000\u0000\u0000\u0000\u0000\u0000\u0000\u0000\u0000\u0000\u0000\u0000\u0000\u0000\u0000\u0000\u0000\u0000\u0000\u0000\u0000\u0000\u0000\u0000\u0000\u0000\u0000\u0000\u0000\u0000\u0000\u0000\u0000\u0000\u0000\u0000\u0000\u0000\u0000\u0000\u0000\u0000\u0000\u0000\u0000\u0000\u0000\u0000\u0000\u0000\u0000\u0000\u0000\u0000\u0000\u0000\u0000\u0000\u0000\u0000\u0000\u0000\u0000\u0000\u0000\u0000\u0000\u0000\u0000\u0000\u0000\u0000\u0000\u0000\u0000\u0000\u0000\u0000\u0000\u0000\u0000\u0000\u0000\u0000\u0000\u0000\u0000\u0000\u0000",
