{
  "AcquisitionMatrixPE": 104,
  "AcquisitionNumber": 1,
  "AcquisitionTime": "12:30:36.710000",
  "BandwidthPerPixelPhaseEncode": 13.935,
  "BaseResolution": 104,
  "CoilString": "C:HEA;HEP",
  "ConversionSoftware": "dcm2niix",
  "ConversionSoftwareVersion": "v1.0.20210317",
  "DerivedVendorReportedEchoSpacing": 0.000690017,
  "DeviceSerialNumber": "35450",
  "DwellTime": 2.5e-06,
  "EchoTime": 0.0348,
  "EffectiveEchoSpacing": 0.000690017,
  "FlipAngle": 55,
  "ImageComments": "Unaliased MB8/PE3 (remote)",
  "ImageOrientationPatientDICOM": [1, 0, 0, 0, 0.983255, -0.182236],
  "ImageType": [
    "ORIGINAL",
    "PRIMARY",
    "M",
    "MB",
    "ND",
    "MOSAIC"
],
  "ImagingFrequency": 123.234,
  "InPlanePhaseEncodingDirectionDICOM": "COL",
  "InstitutionAddress": "Univeristy Ave. 197,Newark,North East,US,07102-1814",
  "InstitutionName": "RUBIC",
  "InstitutionalDepartmentName": "Department",
  "MRAcquisitionType": "2D",
  "MagneticFieldStrength": 3,
  "Manufacturer": "Siemens",
  "ManufacturersModelName": "TrioTim",
  "Modality": "MR",
  "MultibandAccelerationFactor": 8,
  "PartialFourier": 0.875,
  "PatientPosition": "HFS",
  "PercentPhaseFOV": 100,
  "PercentSampling": 100,
  "PhaseEncodingDirection": "j-",
  "PhaseEncodingSteps": 91,
  "PhaseResolution": 1,
  "PixelBandwidth": 1923,
  "ProcedureStepDescription": "Cole^Michael",
  "ProtocolName": "cmrr_mbep2d_bold_2mm_MB8_Task_8x",
  "PulseSequenceDetails": "%CustomerSeq%\\cmrr_mbep2d_bold",
  "ReceiveCoilName": "32Ch_Head",
  "ReconMatrixPE": 104,
  "RepetitionTime": 0.785,
  "SAR": 0.169299,
  "ScanOptions": "PFP\\FS",
  "ScanningSequence": "EP",
  "SequenceName": "epfid2d1_104",
  "SequenceVariant": "SK\\SS",
  "SeriesDescription": "cmrr_mbep2d_bold_2mm_MB8_Task_8x",
  "SeriesNumber": 25,
  "ShimSetting": [2087, -360, -7222, 247, 122, -683, 130, 24],
  "SliceThickness": 2,
  "SliceTiming": [0, 0.4375, 0.0875, 0.5275, 0.175, 0.615, 0.2625, 0.7025, 0.35, 0, 0.4375, 0.0875, 0.5275, 0.175, 0.615, 0.2625, 0.7025, 0.35, 0, 0.4375, 0.0875, 0.5275, 0.175, 0.615, 0.2625, 0.7025, 0.35, 0, 0.4375, 0.0875, 0.5275, 0.175, 0.615, 0.2625, 0.7025, 0.35, 0, 0.4375, 0.0875, 0.5275, 0.175, 0.615, 0.2625, 0.7025, 0.35, 0, 0.4375, 0.0875, 0.5275, 0.175, 0.615, 0.2625, 0.7025, 0.35, 0, 0.4375, 0.0875, 0.5275, 0.175, 0.615, 0.2625, 0.7025, 0.35, 0, 0.4375, 0.0875, 0.5275, 0.175, 0.615, 0.2625, 0.7025, 0.35],
  "SoftwareVersions": "syngo MR B19",
  "SpacingBetweenSlices": 2,
  "StationName": "MRC35450",
  "TaskName": "cpro",
  "TotalReadoutTime": 0.0710717,
  "TxRefAmp": 384.64,
  "dcmmeta_affine": [
    [-2.0, 0.0, 0.0, 104.67796325683594],
    [0.0, 1.9665098190307617, -0.36447104811668396, -75.19496154785156],
    [0.0, 0.36447104811668396, 1.9665098190307617, -110.31561279296875],
    [0.0, 0.0, 0.0, 1.0]
],
  "dcmmeta_reorient_transform": [
    [0.0, -1.0, 0.0, 103.0],
    [1.0, 0.0, 0.0, 0.0],
    [0.0, 0.0, 1.0, 0.0],
    [0.0, 0.0, 0.0, 1.0]
],
  "dcmmeta_shape": [104, 104, 72, 581],
  "dcmmeta_slice_dim": 2,
  "dcmmeta_version": 0.6,
  "global": {
    "const": {
      "AcquisitionMatrix": [104, 0, 0, 104],
      "AngioFlag": "N",
      "BitsAllocated": 16,
      "BitsStored": 12,
      "Columns": 936,
      "EchoNumbers": 1,
      "EchoTime": 34.8,
      "EchoTrainLength": 1,
      "FlipAngle": 55.0,
      "HighBit": 11,
      "ImageOrientationPatient": [1.0, 0.0, 0.0, 0.0, 0.98325490764387, -0.182235525061],
      "ImagePositionPatient": [-936.67796611786, -945.42362991636, 78.844858988787],
      "ImageType": [
        "ORIGINAL",
        "PRIMARY",
        "M",
        "MB",
        "ND",
        "MOSAIC"
],
      "ImagedNucleus": "1H",
      "ImagingFrequency": 123.234388,
      "InPlanePhaseEncodingDirection": "COL",
      "MRAcquisitionType": "2D",
      "MagneticFieldStrength": 3.0,
      "Manufacturer": "SIEMENS",
      "ManufacturerModelName": "TrioTim",
      "Modality": "MR",
      "NumberOfAverages": 1.0,
      "NumberOfPhaseEncodingSteps": 91,
      "PercentPhaseFieldOfView": 100.0,
      "PercentSampling": 100.0,
      "PerformedProcedureStepStartTime": "103144.671000",
      "PhotometricInterpretation": "MONOCHROME2",
      "PixelBandwidth": 1923.0,
      "PixelRepresentation": 0,
      "PixelSpacing": [2.0, 2.0],
      "ProtocolName": "cmrr_mbep2d_bold_2mm_MB8_Task_8x",
      "RepetitionTime": 785.0,
      "Rows": 936,
      "SAR": 0.16929927330703,
      "SamplesPerPixel": 1,
      "ScanOptions": [
        "PFP",
        "FS"
],
      "ScanningSequence": "EP",
      "SequenceName": "epfid2d1_104",
      "SequenceVariant": [
        "SK",
        "SS"
],
      "SeriesDescription": "cmrr_mbep2d_bold_2mm_MB8_Task_8x",
      "SeriesNumber": 25,
      "SeriesTime": "123100.250000",
      "SliceLocation": -94.765177059623,
      "SliceThickness": 2.0,
      "SmallestImagePixelValue": 0,
      "SoftwareVersions": "syngo MR B19",
      "SpacingBetweenSlices": 1.9999999912552,
      "SpecificCharacterSet": "ISO_IR 100",
      "StudyID": "1",
      "StudyTime": "103144.593000",
      "TransmitCoilName": "Body",
      "VariableFlipAngleFlag": "N",
      "WindowCenterWidthExplanation": "Algo1",
      "dBdt": 0.0},
    "slices": {}
  },
  "time": {
    "samples": {
      "AcquisitionNumber": [1, 2, 3, 4, 5, 6, 7, 8, 9, 10, 11, 12, 13, 14, 15, 16, 17, 18, 19, 20, 21, 22, 23, 24, 25, 26, 27, 28, 29, 30, 31, 32, 33, 34, 35, 36, 37, 38, 39, 40, 41, 42, 43, 44, 45, 46, 47, 48, 49, 50, 51, 52, 53, 54, 55, 56, 57, 58, 59, 60, 61, 62, 63, 64, 65, 66, 67, 68, 69, 70, 71, 72, 73, 74, 75, 76, 77, 78, 79, 80, 81, 82, 83, 84, 85, 86, 87, 88, 89, 90, 91, 92, 93, 94, 95, 96, 97, 98, 99, 100, 101, 102, 103, 104, 105, 106, 107, 108, 109, 110, 111, 112, 113, 114, 115, 116, 117, 118, 119, 120, 121, 122, 123, 124, 125, 126, 127, 128, 129, 130, 131, 132, 133, 134, 135, 136, 137, 138, 139, 140, 141, 142, 143, 144, 145, 146, 147, 148, 149, 150, 151, 152, 153, 154, 155, 156, 157, 158, 159, 160, 161, 162, 163, 164, 165, 166, 167, 168, 169, 170, 171, 172, 173, 174, 175, 176, 177, 178, 179, 180, 181, 182, 183, 184, 185, 186, 187, 188, 189, 190, 191, 192, 193, 194, 195, 196, 197, 198, 199, 200, 201, 202, 203, 204, 205, 206, 207, 208, 209, 210, 211, 212, 213, 214, 215, 216, 217, 218, 219, 220, 221, 222, 223, 224, 225, 226, 227, 228, 229, 230, 231, 232, 233, 234, 235, 236, 237, 238, 239, 240, 241, 242, 243, 244, 245, 246, 247, 248, 249, 250, 251, 252, 253, 254, 255, 256, 257, 258, 259, 260, 261, 262, 263, 264, 265, 266, 267, 268, 269, 270, 271, 272, 273, 274, 275, 276, 277, 278, 279, 280, 281, 282, 283, 284, 285, 286, 287, 288, 289, 290, 291, 292, 293, 294, 295, 296, 297, 298, 299, 300, 301, 302, 303, 304, 305, 306, 307, 308, 309, 310, 311, 312, 313, 314, 315, 316, 317, 318, 319, 320, 321, 322, 323, 324, 325, 326, 327, 328, 329, 330, 331, 332, 333, 334, 335, 336, 337, 338, 339, 340, 341, 342, 343, 344, 345, 346, 347, 348, 349, 350, 351, 352, 353, 354, 355, 356, 357, 358, 359, 360, 361, 362, 363, 364, 365, 366, 367, 368, 369, 370, 371, 372, 373, 374, 375, 376, 377, 378, 379, 380, 381, 382, 383, 384, 385, 386, 387, 388, 389, 390, 391, 392, 393, 394, 395, 396, 397, 398, 399, 400, 401, 402, 403, 404, 405, 406, 407, 408, 409, 410, 411, 412, 413, 414, 415, 416, 417, 418, 419, 420, 421, 422, 423, 424, 425, 426, 427, 428, 429, 430, 431, 432, 433, 434, 435, 436, 437, 438, 439, 440, 441, 442, 443, 444, 445, 446, 447, 448, 449, 450, 451, 452, 453, 454, 455, 456, 457, 458, 459, 460, 461, 462, 463, 464, 465, 466, 467, 468, 469, 470, 471, 472, 473, 474, 475, 476, 477, 478, 479, 480, 481, 482, 483, 484, 485, 486, 487, 488, 489, 490, 491, 492, 493, 494, 495, 496, 497, 498, 499, 500, 501, 502, 503, 504, 505, 506, 507, 508, 509, 510, 511, 512, 513, 514, 515, 516, 517, 518, 519, 520, 521, 522, 523, 524, 525, 526, 527, 528, 529, 530, 531, 532, 533, 534, 535, 536, 537, 538, 539, 540, 541, 542, 543, 544, 545, 546, 547, 548, 549, 550, 551, 552, 553, 554, 555, 556, 557, 558, 559, 560, 561, 562, 563, 564, 565, 566, 567, 568, 569, 570, 571, 572, 573, 574, 575, 576, 577, 578, 579, 580, 581],
      "AcquisitionTime": ["123036.710000", "123037.500000", "123038.287500", "123039.075000", "123039.862500", "123040.652500", "123041.440000", "123042.227500", "123043.017500", "123043.805000", "123044.592500", "123045.380000", "123046.170000", "123046.957500", "123047.745000", "123048.532500", "123049.322500", "123050.110000", "123050.897500", "123051.685000", "123052.475000", "123053.262500", "123054.050000", "123054.837500", "123055.627500", "123056.415000", "123057.202500", "123057.990000", "123058.780000", "123059.567500", "123100.355000", "123101.145000", "123101.932500", "123102.720000", "123103.507500", "123104.297500", "123105.085000", "123105.872500", "123106.660000", "123107.450000", "123108.237500", "123109.025000", "123109.812500", "123110.602500", "123111.390000", "123112.177500", "123112.965000", "123113.755000", "123114.542500", "123115.330000", "123116.117500", "123116.907500", "123117.695000", "123118.482500", "123119.272500", "123120.060000", "123120.847500", "123121.635000", "123122.425000", "123123.212500", "123124.000000", "123124.787500", "123125.577500", "123126.365000", "123127.152500", "123127.940000", "123128.730000", "123129.517500", "123130.305000", "123131.092500", "123131.882500", "123132.670000", "123133.457500", "123134.245000", "123135.035000", "123135.822500", "123136.610000", "123137.400000", "123138.187500", "123138.975000", "123139.762500", "123140.552500", "123141.340000", "123142.127500", "123142.915000", "123143.705000", "123144.492500", "123145.280000", "123146.067500", "123146.857500", "123147.645000", "123148.432500", "123149.220000", "123150.010000", "123150.797500", "123151.585000", "123152.372500", "123153.162500", "123153.950000", "123154.737500", "123155.527500", "123156.315000", "123157.102500", "123157.890000", "123158.680000", "123159.467500", "123200.255000", "123201.042500", "123201.832500", "123202.620000", "123203.407500", "123204.195000", "123204.985000", "123205.772500", "123206.560000", "123207.347500", "123208.137500", "123208.925000", "123209.712500", "123210.502500", "123211.290000", "123212.077500", "123212.865000", "123213.655000", "123214.442500", "123215.230000", "123216.017500", "123216.807500", "123217.595000", "123218.382500", "123219.170000", "123219.960000", "123220.747500", "123221.535000", "123222.322500", "123223.112500", "123223.900000", "123224.687500", "123225.475000", "123226.265000", "123227.052500", "123227.840000", "123228.630000", "123229.417500", "123230.205000", "123230.992500", "123231.782500", "123232.570000", "123233.357500", "123234.145000", "123234.935000", "123235.722500", "123236.510000", "123237.297500", "123238.087500", "123238.875000", "123239.662500", "123240.450000", "123241.240000", "123242.027500", "123242.815000", "123243.602500", "123244.392500", "123245.180000", "123245.967500", "123246.757500", "123247.545000", "123248.332500", "123249.120000", "123249.910000", "123250.697500", "123251.485000", "123252.272500", "123253.062500", "123253.850000", "123254.637500", "123255.425000", "123256.215000", "123257.002500", "123257.790000", "123258.577500", "123259.367500", "123300.155000", "123300.942500", "123301.730000", "123302.520000", "123303.307500", "123304.095000", "123304.885000", "123305.672500", "123306.460000", "123307.247500", "123308.037500", "123308.825000", "123309.612500", "123310.400000", "123311.190000", "123311.977500", "123312.765000", "123313.552500", "123314.342500", "123315.130000", "123315.917500", "123316.705000", "123317.495000", "123318.282500", "123319.070000", "123319.857500", "123320.647500", "123321.435000", "123322.222500", "123323.012500", "123323.800000", "123324.587500", "123325.375000", "123326.165000", "123326.952500", "123327.740000", "123328.527500", "123329.317500", "123330.105000", "123330.892500", "123331.680000", "123332.470000", "123333.257500", "123334.045000", "123334.832500", "123335.622500", "123336.410000", "123337.197500", "123337.985000", "123338.775000", "123339.562500", "123340.350000", "123341.140000", "123341.927500", "123342.715000", "123343.502500", "123344.292500", "123345.080000", "123345.867500", "123346.655000", "123347.445000", "123348.232500", "123349.020000", "123349.807500", "123350.597500", "123351.385000", "123352.172500", "123352.960000", "123353.750000", "123354.537500", "123355.325000", "123356.112500", "123356.902500", "123357.690000", "123358.477500", "123359.267500", "123400.055000", "123400.842500", "123401.630000", "123402.420000", "123403.207500", "123403.995000", "123404.782500", "123405.572500", "123406.360000", "123407.147500", "123407.935000", "123408.725000", "123409.512500", "123410.300000", "123411.087500", "123411.877500", "123412.665000", "123413.452500", "123414.240000", "123415.030000", "123415.817500", "123416.605000", "123417.395000", "123418.182500", "123418.970000", "123419.757500", "123420.547500", "123421.335000", "123422.122500", "123422.910000", "123423.700000", "123424.487500", "123425.275000", "123426.062500", "123426.852500", "123427.640000", "123428.427500", "123429.215000", "123430.005000", "123430.792500", "123431.580000", "123432.367500", "123433.157500", "123433.945000", "123434.732500", "123435.522500", "123436.310000", "123437.097500", "123437.885000", "123438.675000", "123439.462500", "123440.250000", "123441.037500", "123441.827500", "123442.615000", "123443.402500", "123444.190000", "123444.980000", "123445.767500", "123446.555000", "123447.342500", "123448.132500", "123448.920000", "123449.707500", "123450.495000", "123451.285000", "123452.072500", "123452.860000", "123453.650000", "123454.437500", "123455.225000", "123456.012500", "123456.802500", "123457.590000", "123458.377500", "123459.165000", "123459.955000", "123500.742500", "123501.530000", "123502.317500", "123503.107500", "123503.895000", "123504.682500", "123505.470000", "123506.260000", "123507.047500", "123507.835000", "123508.622500", "123509.412500", "123510.200000", "123510.987500", "123511.777500", "123512.565000", "123513.352500", "123514.140000", "123514.930000", "123515.717500", "123516.505000", "123517.292500", "123518.082500", "123518.870000", "123519.657500", "123520.445000", "123521.235000", "123522.022500", "123522.810000", "123523.597500", "123524.387500", "123525.175000", "123525.962500", "123526.752500", "123527.540000", "123528.327500", "123529.115000", "123529.905000", "123530.692500", "123531.480000", "123532.267500", "123533.057500", "123533.845000", "123534.632500", "123535.420000", "123536.210000", "123536.997500", "123537.785000", "123538.572500", "123539.362500", "123540.150000", "123540.937500", "123541.725000", "123542.515000", "123543.302500", "123544.090000", "123544.880000", "123545.667500", "123546.455000", "123547.242500", "123548.032500", "123548.820000", "123549.607500", "123550.395000", "123551.185000", "123551.972500", "123552.760000", "123553.547500", "123554.337500", "123555.125000", "123555.912500", "123556.700000", "123557.490000", "123558.277500", "123559.065000", "123559.852500", "123600.642500", "123601.430000", "123602.217500", "123603.007500", "123603.795000", "123604.582500", "123605.370000", "123606.160000", "123606.947500", "123607.735000", "123608.522500", "123609.312500", "123610.100000", "123610.887500", "123611.675000", "123612.465000", "123613.252500", "123614.040000", "123614.827500", "123615.617500", "123616.405000", "123617.192500", "123617.980000", "123618.770000", "123619.557500", "123620.345000", "123621.135000", "123621.922500", "123622.710000", "123623.497500", "123624.287500", "123625.075000", "123625.862500", "123626.650000", "123627.440000", "123628.227500", "123629.015000", "123629.802500", "123630.592500", "123631.380000", "123632.167500", "123632.955000", "123633.745000", "123634.532500", "123635.320000", "123636.107500", "123636.897500", "123637.685000", "123638.472500", "123639.262500", "123640.050000", "123640.837500", "123641.625000", "123642.415000", "123643.202500", "123643.990000", "123644.777500", "123645.567500", "123646.355000", "123647.142500", "123647.930000", "123648.720000", "123649.507500", "123650.295000", "123651.082500", "123651.872500", "123652.660000", "123653.447500", "123654.235000", "123655.025000", "123655.812500", "123656.600000", "123657.390000", "123658.177500", "123658.965000", "123659.752500", "123700.542500", "123701.330000", "123702.117500", "123702.905000", "123703.695000", "123704.482500", "123705.270000", "123706.057500", "123706.847500", "123707.635000", "123708.422500", "123709.210000", "123710.000000", "123710.787500", "123711.575000", "123712.362500", "123713.152500", "123713.940000", "123714.727500", "123715.517500", "123716.305000", "123717.092500", "123717.880000", "123718.670000", "123719.457500", "123720.245000", "123721.032500", "123721.822500", "123722.610000", "123723.397500", "123724.185000", "123724.975000", "123725.762500", "123726.550000", "123727.337500", "123728.127500", "123728.915000", "123729.702500", "123730.490000", "123731.280000", "123732.067500", "123732.855000", "123733.645000", "123734.432500", "123735.220000", "123736.007500", "123736.797500", "123737.585000", "123738.372500", "123739.160000", "123739.950000", "123740.737500", "123741.525000", "123742.312500", "123743.102500", "123743.890000", "123744.677500", "123745.465000", "123746.255000", "123747.042500", "123747.830000", "123748.617500", "123749.407500", "123750.195000", "123750.982500", "123751.772500", "123752.560000", "123753.347500", "123754.135000", "123754.925000", "123755.712500", "123756.500000", "123757.287500", "123758.077500", "123758.865000", "123759.652500", "123800.440000", "123801.230000", "123802.017500", "123802.805000", "123803.592500", "123804.382500", "123805.170000", "123805.957500", "123806.745000", "123807.535000", "123808.322500", "123809.110000", "123809.900000", "123810.687500", "123811.475000", "123812.262500", "123813.052500", "123813.840000"],
      "ContentTime": ["123100.250000", "123100.250000", "123100.250000", "123100.250000", "123100.250000", "123100.250000", "123100.265000", "123100.265000", "123100.265000", "123100.265000", "123100.265000", "123100.265000", "123100.281000", "123100.281000", "123100.281000", "123100.281000", "123100.281000", "123100.281000", "123100.281000", "123100.296000", "123100.296000", "123100.296000", "123100.296000", "123100.296000", "123100.296000", "123100.296000", "123120.218000", "123120.218000", "123120.218000", "123120.234000", "123120.234000", "123120.234000", "123120.234000", "123120.234000", "123120.234000", "123120.250000", "123120.250000", "123120.250000", "123120.250000", "123120.250000", "123120.250000", "123120.250000", "123120.265000", "123120.265000", "123120.265000", "123120.265000", "123120.265000", "123120.265000", "123120.265000", "123120.281000", "123120.281000", "123140.218000", "123140.218000", "123140.218000", "123140.234000", "123140.234000", "123140.234000", "123140.234000", "123140.234000", "123140.234000", "123140.234000", "123140.250000", "123140.250000", "123140.250000", "123140.250000", "123140.250000", "123140.250000", "123140.250000", "123140.265000", "123140.265000", "123140.265000", "123140.265000", "123140.265000", "123140.265000", "123140.265000", "123140.281000", "123140.281000", "123200.218000", "123200.218000", "123200.218000", "123200.234000", "123200.234000", "123200.234000", "123200.234000", "123200.234000", "123200.234000", "123200.234000", "123200.250000", "123200.250000", "123200.250000", "123200.250000", "123200.250000", "123200.250000", "123200.250000", "123200.265000", "123200.265000", "123200.265000", "123200.265000", "123200.265000", "123200.265000", "123200.281000", "123200.281000", "123220.218000", "123220.218000", "123220.218000", "123220.234000", "123220.234000", "123220.234000", "123220.234000", "123220.234000", "123220.234000", "123220.250000", "123220.250000", "123220.250000", "123220.250000", "123220.250000", "123220.250000", "123220.250000", "123220.265000", "123220.265000", "123220.265000", "123220.265000", "123220.265000", "123220.265000", "123220.281000", "123220.281000", "123220.281000", "123220.281000", "123240.218000", "123240.218000", "123240.218000", "123240.234000", "123240.234000", "123240.234000", "123240.234000", "123240.234000", "123240.234000", "123240.250000", "123240.250000", "123240.250000", "123240.250000", "123240.250000", "123240.250000", "123240.250000", "123240.265000", "123240.265000", "123240.265000", "123240.265000", "123240.265000", "123240.265000", "123240.265000", "123240.281000", "123240.281000", "123300.218000", "123300.218000", "123300.218000", "123300.234000", "123300.234000", "123300.234000", "123300.234000", "123300.234000", "123300.234000", "123300.234000", "123300.250000", "123300.250000", "123300.250000", "123300.250000", "123300.250000", "123300.250000", "123300.250000", "123300.265000", "123300.265000", "123300.265000", "123300.265000", "123300.265000", "123300.265000", "123300.281000", "123300.281000", "123300.281000", "123320.218000", "123320.218000", "123320.218000", "123320.234000", "123320.234000", "123320.234000", "123320.234000", "123320.234000", "123320.234000", "123320.234000", "123320.250000", "123320.250000", "123320.250000", "123320.250000", "123320.250000", "123320.250000", "123320.250000", "123320.265000", "123320.265000", "123320.265000", "123320.265000", "123320.265000", "123320.281000", "123320.281000", "123320.281000", "123340.218000", "123340.218000", "123340.218000", "123340.234000", "123340.234000", "123340.234000", "123340.234000", "123340.234000", "123340.234000", "123340.234000", "123340.250000", "123340.250000", "123340.250000", "123340.250000", "123340.250000", "123340.250000", "123340.265000", "123340.265000", "123340.265000", "123340.265000", "123340.265000", "123340.265000", "123340.281000", "123340.281000", "123340.281000", "123340.281000", "123400.218000", "123400.218000", "123400.218000", "123400.234000", "123400.234000", "123400.234000", "123400.234000", "123400.234000", "123400.234000", "123400.250000", "123400.250000", "123400.250000", "123400.250000", "123400.250000", "123400.250000", "123400.265000", "123400.265000", "123400.265000", "123400.265000", "123400.265000", "123400.265000", "123400.265000", "123400.281000", "123400.281000", "123400.281000", "123420.218000", "123420.218000", "123420.218000", "123420.234000", "123420.234000", "123420.234000", "123420.234000", "123420.234000", "123420.234000", "123420.250000", "123420.250000", "123420.250000", "123420.250000", "123420.250000", "123420.250000", "123420.250000", "123420.265000", "123420.265000", "123420.265000", "123420.265000", "123420.265000", "123420.265000", "123420.265000", "123420.281000", "123420.281000", "123420.281000", "123440.218000", "123440.218000", "123440.218000", "123440.234000", "123440.234000", "123440.234000", "123440.234000", "123440.234000", "123440.234000", "123440.234000", "123440.250000", "123440.250000", "123440.250000", "123440.250000", "123440.250000", "123440.250000", "123440.250000", "123440.265000", "123440.265000", "123440.265000", "123440.265000", "123440.281000", "123440.281000", "123440.281000", "123440.281000", "123500.218000", "123500.218000", "123500.218000", "123500.234000", "123500.234000", "123500.234000", "123500.234000", "123500.234000", "123500.234000", "123500.234000", "123500.250000", "123500.250000", "123500.250000", "123500.250000", "123500.250000", "123500.250000", "123500.265000", "123500.265000", "123500.265000", "123500.265000", "123500.265000", "123500.265000", "123500.265000", "123500.281000", "123500.281000", "123500.281000", "123520.218000", "123520.218000", "123520.218000", "123520.234000", "123520.234000", "123520.234000", "123520.234000", "123520.234000", "123520.234000", "123520.250000", "123520.250000", "123520.250000", "123520.250000", "123520.250000", "123520.250000", "123520.250000", "123520.265000", "123520.265000", "123520.265000", "123520.265000", "123520.265000", "123520.265000", "123520.265000", "123520.281000", "123520.281000", "123540.218000", "123540.218000", "123540.234000", "123540.234000", "123540.234000", "123540.234000", "123540.234000", "123540.234000", "123540.234000", "123540.250000", "123540.250000", "123540.250000", "123540.250000", "123540.250000", "123540.250000", "123540.250000", "123540.265000", "123540.265000", "123540.265000", "123540.265000", "123540.265000", "123540.265000", "123540.281000", "123540.281000", "123540.281000", "123600.218000", "123600.218000", "123600.218000", "123600.234000", "123600.234000", "123600.234000", "123600.234000", "123600.234000", "123600.234000", "123600.234000", "123600.250000", "123600.250000", "123600.250000", "123600.250000", "123600.250000", "123600.265000", "123600.265000", "123600.265000", "123600.265000", "123600.265000", "123600.281000", "123600.281000", "123600.281000", "123600.281000", "123600.281000", "123600.296000", "123620.218000", "123620.218000", "123620.234000", "123620.234000", "123620.234000", "123620.234000", "123620.234000", "123620.234000", "123620.250000", "123620.250000", "123620.250000", "123620.250000", "123620.250000", "123620.265000", "123620.265000", "123620.281000", "123620.281000", "123620.281000", "123620.281000", "123620.281000", "123620.281000", "123620.296000", "123620.296000", "123620.296000", "123620.296000", "123640.218000", "123640.218000", "123640.218000", "123640.234000", "123640.234000", "123640.234000", "123640.234000", "123640.234000", "123640.234000", "123640.234000", "123640.250000", "123640.250000", "123640.250000", "123640.250000", "123640.250000", "123640.250000", "123640.265000", "123640.265000", "123640.265000", "123640.265000", "123640.265000", "123640.265000", "123640.265000", "123640.281000", "123640.281000", "123640.281000", "123700.218000", "123700.218000", "123700.218000", "123700.234000", "123700.234000", "123700.234000", "123700.234000", "123700.234000", "123700.234000", "123700.250000", "123700.250000", "123700.250000", "123700.250000", "123700.250000", "123700.250000", "123700.250000", "123700.265000", "123700.265000", "123700.265000", "123700.265000", "123700.265000", "123700.265000", "123700.281000", "123700.281000", "123700.281000", "123720.218000", "123720.218000", "123720.218000", "123720.234000", "123720.234000", "123720.234000", "123720.234000", "123720.234000", "123720.234000", "123720.234000", "123720.250000", "123720.250000", "123720.250000", "123720.250000", "123720.250000", "123720.250000", "123720.250000", "123720.265000", "123720.265000", "123720.265000", "123720.265000", "123720.265000", "123720.265000", "123720.281000", "123720.281000", "123720.281000", "123740.218000", "123740.218000", "123740.218000", "123740.234000", "123740.234000", "123740.234000", "123740.234000", "123740.234000", "123740.234000", "123740.250000", "123740.250000", "123740.250000", "123740.250000", "123740.250000", "123740.250000", "123740.250000", "123740.265000", "123740.265000", "123740.265000", "123740.265000", "123740.281000", "123740.281000", "123740.281000", "123740.281000", "123740.281000", "123800.218000", "123800.218000", "123800.218000", "123800.234000", "123800.234000", "123800.234000", "123800.234000", "123800.234000", "123800.234000", "123800.250000", "123800.250000", "123800.250000", "123800.250000", "123800.250000", "123800.250000", "123800.250000", "123800.265000", "123800.265000", "123800.265000", "123800.265000", "123800.265000", "123800.265000", "123800.265000", "123800.281000", "123800.281000", "123800.281000", "123815.734000", "123815.734000", "123815.734000", "123815.750000", "123815.750000", "123815.750000", "123815.750000", "123815.765000", "123815.765000", "123815.765000", "123815.765000", "123815.765000", "123815.765000", "123815.765000", "123815.781000", "123815.781000", "123815.781000", "123815.781000", "123815.781000", "123815.781000"],
      "DataSetTrailingPadding": [
        "\u0000\u0000\u0000\u0000\u0000\u0000\u0000\u0000\u0000\u0000\u0000\u0000\u0000\u0000\u0000\u0000\u0000\u0000\u0000\u0000\u0000\u0000\u0000\u0000\u0000\u0000\u0000\u0000\u0000\u0000\u0000\u0000\u0000\u0000\u0000\u0000\u0000\u0000\u0000\u0000\u0000\u0000\u0000\u0000\u0000\u0000\u0000\u0000\u0000\u0000\u0000\u0000\u0000\u0000\u0000\u0000\u0000\u0000\u0000\u0000\u0000\u0000\u0000\u0000\u0000\u0000\u0000\u0000\u0000\u0000\u0000\u0000\u0000\u0000\u0000\u0000\u0000\u0000\u0000\u0000\u0000\u0000\u0000\u0000\u0000\u0000\u0000\u0000\u0000\u0000\u0000\u0000\u0000\u0000\u0000\u0000\u0000\u0000\u0000\u0000\u0000\u0000\u0000\u0000\u0000\u0000\u0000\u0000\u0000\u0000\u0000\u0000\u0000\u0000\u0000\u0000\u0000\u0000\u0000\u0000\u0000\u0000\u0000\u0000\u0000\u0000\u0000\u0000\u0000\u0000\u0000\u0000\u0000\u0000\u0000\u0000\u0000\u0000\u0000\u0000\u0000\u0000\u0000\u0000\u0000\u0000\u0000\u0000\u0000\u0000\u0000\u0000\u0000\u0000\u0000\u0000\u0000\u0000",
        "\u0000\u0000\u0000\u0000\u0000\u0000\u0000\u0000\u0000\u0000\u0000\u0000\u0000\u0000\u0000\u0000\u0000\u0000\u0000\u0000\u0000\u0000\u0000\u0000\u0000\u0000\u0000\u0000\u0000\u0000\u0000\u0000\u0000\u0000\u0000\u0000\u0000\u0000\u0000\u0000\u0000\u0000\u0000\u0000\u0000\u0000\u0000\u0000\u0000\u0000\u0000\u0000\u0000\u0000\u0000\u0000\u0000\u0000\u0000\u0000\u0000\u0000\u0000\u0000\u0000\u0000\u0000\u0000\u0000\u0000\u0000\u0000\u0000\u0000\u0000\u0000\u0000\u0000\u0000\u0000\u0000\u0000\u0000\u0000\u0000\u0000\u0000\u0000\u0000\u0000\u0000\u0000\u0000\u0000\u0000\u0000\u0000\u0000\u0000\u0000\u0000\u0000\u0000\u0000\u0000\u0000\u0000\u0000\u0000\u0000\u0000\u0000\u0000\u0000\u0000\u0000\u0000\u0000\u0000\u0000\u0000\u0000\u0000\u0000\u0000\u0000\u0000\u0000\u0000\u0000\u0000\u0000\u0000\u0000\u0000\u0000\u0000\u0000\u0000\u0000\u0000\u0000\u0000\u0000\u0000\u0000\u0000\u0000\u0000\u0000\u0000\u0000\u0000\u0000\u0000\u0000",
