{
  "AcquisitionMatrixPE": 104,
  "AcquisitionNumber": 1,
  "AcquisitionTime": "11:58:36.015000",
  "BandwidthPerPixelPhaseEncode": 13.935,
  "BaseResolution": 104,
  "CoilString": "C:HEA;HEP",
  "ConversionSoftware": "dcm2niix",
  "ConversionSoftwareVersion": "v1.0.20210317",
  "DerivedVendorReportedEchoSpacing": 0.000690017,
  "DeviceSerialNumber": "35450",
  "DwellTime": 2.5e-06,
  "EchoTime": 0.0348,
  "EffectiveEchoSpacing": 0.000690017,
  "FlipAngle": 55,
  "ImageComments": "Unaliased MB8/PE3 (remote)",
  "ImageOrientationPatientDICOM": [1, 0, 0, 0, 0.983255, -0.182236],
  "ImageType": [
    "ORIGINAL",
    "PRIMARY",
    "M",
    "MB",
    "ND",
    "MOSAIC"
],
  "ImagingFrequency": 123.234,
  "InPlanePhaseEncodingDirectionDICOM": "COL",
  "InstitutionAddress": "Univeristy Ave. 197,Newark,North East,US,07102-1814",
  "InstitutionName": "RUBIC",
  "InstitutionalDepartmentName": "Department",
  "MRAcquisitionType": "2D",
  "MagneticFieldStrength": 3,
  "Manufacturer": "Siemens",
  "ManufacturersModelName": "TrioTim",
  "Modality": "MR",
  "MultibandAccelerationFactor": 8,
  "PartialFourier": 0.875,
  "PatientPosition": "HFS",
  "PercentPhaseFOV": 100,
  "PercentSampling": 100,
  "PhaseEncodingDirection": "j-",
  "PhaseEncodingSteps": 91,
  "PhaseResolution": 1,
  "PixelBandwidth": 1923,
  "ProcedureStepDescription": "Cole^Michael",
  "ProtocolName": "cmrr_mbep2d_bold_2mm_MB8_Task_8x",
  "PulseSequenceDetails": "%CustomerSeq%\\cmrr_mbep2d_bold",
  "ReceiveCoilName": "32Ch_Head",
  "ReconMatrixPE": 104,
  "RepetitionTime": 0.785,
  "SAR": 0.183508,
  "ScanOptions": "PFP\\FS",
  "ScanningSequence": "EP",
  "SequenceName": "epfid2d1_104",
  "SequenceVariant": "SK\\SS",
  "SeriesDescription": "cmrr_mbep2d_bold_2mm_MB8_Task_8x",
  "SeriesNumber": 17,
  "ShimSetting": [2087, -360, -7222, 247, 122, -683, 130, 24],
  "SliceThickness": 2,
  "SliceTiming": [0, 0.4375, 0.0875, 0.525, 0.175, 0.6125, 0.2625, 0.7, 0.35, 0, 0.4375, 0.0875, 0.525, 0.175, 0.6125, 0.2625, 0.7, 0.35, 0, 0.4375, 0.0875, 0.525, 0.175, 0.6125, 0.2625, 0.7, 0.35, 0, 0.4375, 0.0875, 0.525, 0.175, 0.6125, 0.2625, 0.7, 0.35, 0, 0.4375, 0.0875, 0.525, 0.175, 0.6125, 0.2625, 0.7, 0.35, 0, 0.4375, 0.0875, 0.525, 0.175, 0.6125, 0.2625, 0.7, 0.35, 0, 0.4375, 0.0875, 0.525, 0.175, 0.6125, 0.2625, 0.7, 0.35, 0, 0.4375, 0.0875, 0.525, 0.175, 0.6125, 0.2625, 0.7, 0.35],
  "SoftwareVersions": "syngo MR B19",
  "SpacingBetweenSlices": 2,
  "StationName": "MRC35450",
  "TaskName": "cpro",
  "TotalReadoutTime": 0.0710717,
  "TxRefAmp": 384.64,
  "dcmmeta_affine": [
    [-2.0, 0.0, 0.0, 104.67796325683594],
    [0.0, 1.9665098190307617, -0.36447104811668396, -75.19496154785156],
    [0.0, 0.36447104811668396, 1.9665098190307617, -110.31561279296875],
    [0.0, 0.0, 0.0, 1.0]
],
  "dcmmeta_reorient_transform": [
    [0.0, -1.0, 0.0, 103.0],
    [1.0, 0.0, 0.0, 0.0],
    [0.0, 0.0, 1.0, 0.0],
    [0.0, 0.0, 0.0, 1.0]
],
  "dcmmeta_shape": [104, 104, 72, 581],
  "dcmmeta_slice_dim": 2,
  "dcmmeta_version": 0.6,
  "global": {
    "const": {
      "AcquisitionMatrix": [104, 0, 0, 104],
      "AngioFlag": "N",
      "BitsAllocated": 16,
      "BitsStored": 12,
      "Columns": 936,
      "EchoNumbers": 1,
      "EchoTime": 34.8,
      "EchoTrainLength": 1,
      "FlipAngle": 55.0,
      "HighBit": 11,
      "ImageOrientationPatient": [1.0, 0.0, 0.0, 0.0, 0.98325490764387, -0.182235525061],
      "ImagePositionPatient": [-936.67796611786, -945.42362991636, 78.844858988787],
      "ImageType": [
        "ORIGINAL",
        "PRIMARY",
        "M",
        "MB",
        "ND",
        "MOSAIC"
],
      "ImagedNucleus": "1H",
      "ImagingFrequency": 123.234388,
      "InPlanePhaseEncodingDirection": "COL",
      "MRAcquisitionType": "2D",
      "MagneticFieldStrength": 3.0,
      "Manufacturer": "SIEMENS",
      "ManufacturerModelName": "TrioTim",
      "Modality": "MR",
      "NumberOfAverages": 1.0,
      "NumberOfPhaseEncodingSteps": 91,
      "PercentPhaseFieldOfView": 100.0,
      "PercentSampling": 100.0,
      "PerformedProcedureStepStartTime": "103144.671000",
      "PhotometricInterpretation": "MONOCHROME2",
      "PixelBandwidth": 1923.0,
      "PixelRepresentation": 0,
      "PixelSpacing": [2.0, 2.0],
      "ProtocolName": "cmrr_mbep2d_bold_2mm_MB8_Task_8x",
      "RepetitionTime": 785.0,
      "Rows": 936,
      "SAR": 0.18350812331518,
      "SamplesPerPixel": 1,
      "ScanOptions": [
        "PFP",
        "FS"
],
      "ScanningSequence": "EP",
      "SequenceName": "epfid2d1_104",
      "SequenceVariant": [
        "SK",
        "SS"
],
      "SeriesDescription": "cmrr_mbep2d_bold_2mm_MB8_Task_8x",
      "SeriesNumber": 17,
      "SeriesTime": "115856.531000",
      "SliceLocation": -94.765177059623,
      "SliceThickness": 2.0,
      "SmallestImagePixelValue": 0,
      "SoftwareVersions": "syngo MR B19",
      "SpacingBetweenSlices": 1.9999999912552,
      "SpecificCharacterSet": "ISO_IR 100",
      "StudyID": "1",
      "StudyTime": "103144.593000",
      "TransmitCoilName": "Body",
      "VariableFlipAngleFlag": "N",
      "WindowCenterWidthExplanation": "Algo1",
      "dBdt": 0.0},
    "slices": {}
  },
  "time": {
    "samples": {
      "AcquisitionNumber": [1, 2, 3, 4, 5, 6, 7, 8, 9, 10, 11, 12, 13, 14, 15, 16, 17, 18, 19, 20, 21, 22, 23, 24, 25, 26, 27, 28, 29, 30, 31, 32, 33, 34, 35, 36, 37, 38, 39, 40, 41, 42, 43, 44, 45, 46, 47, 48, 49, 50, 51, 52, 53, 54, 55, 56, 57, 58, 59, 60, 61, 62, 63, 64, 65, 66, 67, 68, 69, 70, 71, 72, 73, 74, 75, 76, 77, 78, 79, 80, 81, 82, 83, 84, 85, 86, 87, 88, 89, 90, 91, 92, 93, 94, 95, 96, 97, 98, 99, 100, 101, 102, 103, 104, 105, 106, 107, 108, 109, 110, 111, 112, 113, 114, 115, 116, 117, 118, 119, 120, 121, 122, 123, 124, 125, 126, 127, 128, 129, 130, 131, 132, 133, 134, 135, 136, 137, 138, 139, 140, 141, 142, 143, 144, 145, 146, 147, 148, 149, 150, 151, 152, 153, 154, 155, 156, 157, 158, 159, 160, 161, 162, 163, 164, 165, 166, 167, 168, 169, 170, 171, 172, 173, 174, 175, 176, 177, 178, 179, 180, 181, 182, 183, 184, 185, 186, 187, 188, 189, 190, 191, 192, 193, 194, 195, 196, 197, 198, 199, 200, 201, 202, 203, 204, 205, 206, 207, 208, 209, 210, 211, 212, 213, 214, 215, 216, 217, 218, 219, 220, 221, 222, 223, 224, 225, 226, 227, 228, 229, 230, 231, 232, 233, 234, 235, 236, 237, 238, 239, 240, 241, 242, 243, 244, 245, 246, 247, 248, 249, 250, 251, 252, 253, 254, 255, 256, 257, 258, 259, 260, 261, 262, 263, 264, 265, 266, 267, 268, 269, 270, 271, 272, 273, 274, 275, 276, 277, 278, 279, 280, 281, 282, 283, 284, 285, 286, 287, 288, 289, 290, 291, 292, 293, 294, 295, 296, 297, 298, 299, 300, 301, 302, 303, 304, 305, 306, 307, 308, 309, 310, 311, 312, 313, 314, 315, 316, 317, 318, 319, 320, 321, 322, 323, 324, 325, 326, 327, 328, 329, 330, 331, 332, 333, 334, 335, 336, 337, 338, 339, 340, 341, 342, 343, 344, 345, 346, 347, 348, 349, 350, 351, 352, 353, 354, 355, 356, 357, 358, 359, 360, 361, 362, 363, 364, 365, 366, 367, 368, 369, 370, 371, 372, 373, 374, 375, 376, 377, 378, 379, 380, 381, 382, 383, 384, 385, 386, 387, 388, 389, 390, 391, 392, 393, 394, 395, 396, 397, 398, 399, 400, 401, 402, 403, 404, 405, 406, 407, 408, 409, 410, 411, 412, 413, 414, 415, 416, 417, 418, 419, 420, 421, 422, 423, 424, 425, 426, 427, 428, 429, 430, 431, 432, 433, 434, 435, 436, 437, 438, 439, 440, 441, 442, 443, 444, 445, 446, 447, 448, 449, 450, 451, 452, 453, 454, 455, 456, 457, 458, 459, 460, 461, 462, 463, 464, 465, 466, 467, 468, 469, 470, 471, 472, 473, 474, 475, 476, 477, 478, 479, 480, 481, 482, 483, 484, 485, 486, 487, 488, 489, 490, 491, 492, 493, 494, 495, 496, 497, 498, 499, 500, 501, 502, 503, 504, 505, 506, 507, 508, 509, 510, 511, 512, 513, 514, 515, 516, 517, 518, 519, 520, 521, 522, 523, 524, 525, 526, 527, 528, 529, 530, 531, 532, 533, 534, 535, 536, 537, 538, 539, 540, 541, 542, 543, 544, 545, 546, 547, 548, 549, 550, 551, 552, 553, 554, 555, 556, 557, 558, 559, 560, 561, 562, 563, 564, 565, 566, 567, 568, 569, 570, 571, 572, 573, 574, 575, 576, 577, 578, 579, 580, 581],
      "AcquisitionTime": ["115836.015000", "115836.802500", "115837.590000", "115838.377500", "115839.167500", "115839.955000", "115840.742500", "115841.530000", "115842.320000", "115843.107500", "115843.895000", "115844.682500", "115845.472500", "115846.260000", "115847.047500", "115847.837500", "115848.625000", "115849.412500", "115850.200000", "115850.990000", "115851.777500", "115852.565000", "115853.352500", "115854.142500", "115854.930000", "115855.717500", "115856.505000", "115857.295000", "115858.082500", "115858.870000", "115859.657500", "115900.447500", "115901.235000", "115902.022500", "115902.810000", "115903.600000", "115904.387500", "115905.175000", "115905.965000", "115906.752500", "115907.540000", "115908.327500", "115909.117500", "115909.905000", "115910.692500", "115911.480000", "115912.270000", "115913.057500", "115913.845000", "115914.632500", "115915.422500", "115916.210000", "115916.997500", "115917.785000", "115918.575000", "115919.362500", "115920.150000", "115920.937500", "115921.727500", "115922.515000", "115923.302500", "115924.092500", "115924.880000", "115925.667500", "115926.455000", "115927.245000", "115928.032500", "115928.820000", "115929.607500", "115930.397500", "115931.185000", "115931.972500", "115932.760000", "115933.550000", "115934.337500", "115935.125000", "115935.912500", "115936.702500", "115937.490000", "115938.277500", "115939.065000", "115939.855000", "115940.642500", "115941.430000", "115942.220000", "115943.007500", "115943.795000", "115944.582500", "115945.372500", "115946.160000", "115946.947500", "115947.735000", "115948.525000", "115949.312500", "115950.100000", "115950.887500", "115951.677500", "115952.465000", "115953.252500", "115954.040000", "115954.830000", "115955.617500", "115956.405000", "115957.192500", "115957.982500", "115958.770000", "115959.557500", "120000.347500", "120001.135000", "120001.922500", "120002.710000", "120003.500000", "120004.287500", "120005.075000", "120005.862500", "120006.652500", "120007.440000", "120008.227500", "120009.015000", "120009.805000", "120010.592500", "120011.380000", "120012.167500", "120012.957500", "120013.745000", "120014.532500", "120015.320000", "120016.110000", "120016.897500", "120017.685000", "120018.475000", "120019.262500", "120020.050000", "120020.837500", "120021.627500", "120022.415000", "120023.202500", "120023.990000", "120024.780000", "120025.567500", "120026.355000", "120027.142500", "120027.932500", "120028.720000", "120029.507500", "120030.295000", "120031.085000", "120031.872500", "120032.660000", "120033.450000", "120034.237500", "120035.025000", "120035.812500", "120036.602500", "120037.390000", "120038.177500", "120038.965000", "120039.755000", "120040.542500", "120041.330000", "120042.117500", "120042.907500", "120043.695000", "120044.482500", "120045.270000", "120046.060000", "120046.847500", "120047.635000", "120048.422500", "120049.212500", "120050.000000", "120050.787500", "120051.577500", "120052.365000", "120053.152500", "120053.940000", "120054.730000", "120055.517500", "120056.305000", "120057.092500", "120057.882500", "120058.670000", "120059.457500", "120100.245000", "120101.035000", "120101.822500", "120102.610000", "120103.397500", "120104.187500", "120104.975000", "120105.762500", "120106.550000", "120107.340000", "120108.127500", "120108.915000", "120109.705000", "120110.492500", "120111.280000", "120112.067500", "120112.857500", "120113.645000", "120114.432500", "120115.220000", "120116.010000", "120116.797500", "120117.585000", "120118.372500", "120119.162500", "120119.950000", "120120.737500", "120121.525000", "120122.315000", "120123.102500", "120123.890000", "120124.677500", "120125.467500", "120126.255000", "120127.042500", "120127.832500", "120128.620000", "120129.407500", "120130.195000", "120130.985000", "120131.772500", "120132.560000", "120133.347500", "120134.137500", "120134.925000", "120135.712500", "120136.500000", "120137.290000", "120138.077500", "120138.865000", "120139.652500", "120140.442500", "120141.230000", "120142.017500", "120142.805000", "120143.595000", "120144.382500", "120145.170000", "120145.960000", "120146.747500", "120147.535000", "120148.322500", "120149.112500", "120149.900000", "120150.687500", "120151.475000", "120152.265000", "120153.052500", "120153.840000", "120154.627500", "120155.417500", "120156.205000", "120156.992500", "120157.780000", "120158.570000", "120159.357500", "120200.145000", "120200.932500", "120201.722500", "120202.510000", "120203.297500", "120204.087500", "120204.875000", "120205.662500", "120206.450000", "120207.240000", "120208.027500", "120208.815000", "120209.602500", "120210.392500", "120211.180000", "120211.967500", "120212.755000", "120213.545000", "120214.332500", "120215.120000", "120215.907500", "120216.697500", "120217.485000", "120218.272500", "120219.060000", "120219.850000", "120220.637500", "120221.425000", "120222.215000", "120223.002500", "120223.790000", "120224.577500", "120225.367500", "120226.155000", "120226.942500", "120227.730000", "120228.520000", "120229.307500", "120230.095000", "120230.882500", "120231.672500", "120232.460000", "120233.247500", "120234.035000", "120234.825000", "120235.612500", "120236.400000", "120237.187500", "120237.977500", "120238.765000", "120239.552500", "120240.342500", "120241.130000", "120241.917500", "120242.705000", "120243.495000", "120244.282500", "120245.070000", "120245.857500", "120246.647500", "120247.435000", "120248.222500", "120249.010000", "120249.800000", "120250.587500", "120251.375000", "120252.162500", "120252.952500", "120253.740000", "120254.527500", "120255.315000", "120256.105000", "120256.892500", "120257.680000", "120258.470000", "120259.257500", "120300.045000", "120300.832500", "120301.622500", "120302.410000", "120303.197500", "120303.985000", "120304.775000", "120305.562500", "120306.350000", "120307.137500", "120307.927500", "120308.715000", "120309.502500", "120310.290000", "120311.080000", "120311.867500", "120312.655000", "120313.442500", "120314.232500", "120315.020000", "120315.807500", "120316.597500", "120317.385000", "120318.172500", "120318.960000", "120319.750000", "120320.537500", "120321.325000", "120322.112500", "120322.902500", "120323.690000", "120324.477500", "120325.265000", "120326.055000", "120326.842500", "120327.630000", "120328.417500", "120329.207500", "120329.995000", "120330.782500", "120331.570000", "120332.360000", "120333.147500", "120333.935000", "120334.725000", "120335.512500", "120336.300000", "120337.087500", "120337.877500", "120338.665000", "120339.452500", "120340.240000", "120341.030000", "120341.817500", "120342.605000", "120343.392500", "120344.182500", "120344.970000", "120345.757500", "120346.545000", "120347.335000", "120348.122500", "120348.910000", "120349.700000", "120350.487500", "120351.275000", "120352.062500", "120352.852500", "120353.640000", "120354.427500", "120355.215000", "120356.005000", "120356.792500", "120357.580000", "120358.367500", "120359.157500", "120359.945000", "120400.732500", "120401.520000", "120402.310000", "120403.097500", "120403.885000", "120404.672500", "120405.462500", "120406.250000", "120407.037500", "120407.827500", "120408.615000", "120409.402500", "120410.190000", "120410.980000", "120411.767500", "120412.555000", "120413.342500", "120414.132500", "120414.920000", "120415.707500", "120416.495000", "120417.285000", "120418.072500", "120418.860000", "120419.647500", "120420.437500", "120421.225000", "120422.012500", "120422.800000", "120423.590000", "120424.377500", "120425.165000", "120425.955000", "120426.742500", "120427.530000", "120428.317500", "120429.107500", "120429.895000", "120430.682500", "120431.470000", "120432.260000", "120433.047500", "120433.835000", "120434.622500", "120435.412500", "120436.200000", "120436.987500", "120437.775000", "120438.565000", "120439.352500", "120440.140000", "120440.927500", "120441.717500", "120442.505000", "120443.292500", "120444.082500", "120444.870000", "120445.657500", "120446.445000", "120447.235000", "120448.022500", "120448.810000", "120449.597500", "120450.387500", "120451.175000", "120451.962500", "120452.750000", "120453.540000", "120454.327500", "120455.115000", "120455.902500", "120456.692500", "120457.480000", "120458.267500", "120459.055000", "120459.845000", "120500.632500", "120501.420000", "120502.210000", "120502.997500", "120503.785000", "120504.572500", "120505.362500", "120506.150000", "120506.937500", "120507.725000", "120508.515000", "120509.302500", "120510.090000", "120510.877500", "120511.667500", "120512.455000", "120513.242500", "120514.030000", "120514.820000", "120515.607500", "120516.395000", "120517.182500", "120517.972500", "120518.760000", "120519.547500", "120520.337500", "120521.125000", "120521.912500", "120522.700000", "120523.490000", "120524.277500", "120525.065000", "120525.852500", "120526.642500", "120527.430000", "120528.217500", "120529.005000", "120529.795000", "120530.582500", "120531.370000", "120532.157500", "120532.947500", "120533.735000", "120534.522500", "120535.310000", "120536.100000", "120536.887500", "120537.675000", "120538.465000", "120539.252500", "120540.040000", "120540.827500", "120541.617500", "120542.405000", "120543.192500", "120543.980000", "120544.770000", "120545.557500", "120546.345000", "120547.132500", "120547.922500", "120548.710000", "120549.497500", "120550.285000", "120551.075000", "120551.862500", "120552.650000", "120553.437500", "120554.227500", "120555.015000", "120555.802500", "120556.592500", "120557.380000", "120558.167500", "120558.955000", "120559.745000", "120600.532500", "120601.320000", "120602.107500", "120602.897500", "120603.685000", "120604.472500", "120605.260000", "120606.050000", "120606.837500", "120607.625000", "120608.412500", "120609.202500", "120609.990000", "120610.777500", "120611.565000", "120612.355000", "120613.142500"],
      "ContentTime": ["115856.531000", "115856.531000", "115856.531000", "115856.531000", "115856.531000", "115856.546000", "115856.546000", "115856.546000", "115856.546000", "115856.546000", "115856.546000", "115856.562000", "115856.562000", "115856.562000", "115856.562000", "115856.562000", "115856.562000", "115856.562000", "115856.578000", "115856.578000", "115856.578000", "115856.578000", "115856.578000", "115856.578000", "115916.500000", "115916.500000", "115916.500000", "115916.515000", "115916.515000", "115916.515000", "115916.515000", "115916.515000", "115916.515000", "115916.531000", "115916.531000", "115916.531000", "115916.531000", "115916.531000", "115916.531000", "115916.531000", "115916.546000", "115916.546000", "115916.546000", "115916.546000", "115916.546000", "115916.546000", "115916.562000", "115916.562000", "115916.562000", "115936.500000", "115936.500000", "115936.500000", "115936.515000", "115936.515000", "115936.515000", "115936.515000", "115936.515000", "115936.515000", "115936.531000", "115936.531000", "115936.531000", "115936.531000", "115936.531000", "115936.531000", "115936.546000", "115936.546000", "115936.546000", "115936.546000", "115936.546000", "115936.546000", "115936.546000", "115936.562000", "115936.562000", "115936.562000", "115936.562000", "115956.500000", "115956.500000", "115956.500000", "115956.515000", "115956.515000", "115956.515000", "115956.515000", "115956.515000", "115956.515000", "115956.515000", "115956.531000", "115956.531000", "115956.531000", "115956.531000", "115956.531000", "115956.531000", "115956.546000", "115956.546000", "115956.546000", "115956.546000", "115956.546000", "115956.546000", "115956.562000", "115956.562000", "115956.562000", "120016.500000", "120016.500000", "120016.500000", "120016.515000", "120016.515000", "120016.515000", "120016.515000", "120016.515000", "120016.515000", "120016.515000", "120016.531000", "120016.531000", "120016.531000", "120016.531000", "120016.531000", "120016.531000", "120016.546000", "120016.546000", "120016.546000", "120016.546000", "120016.546000", "120016.546000", "120016.546000", "120016.562000", "120016.562000", "120016.562000", "120036.500000", "120036.500000", "120036.500000", "120036.515000", "120036.515000", "120036.515000", "120036.515000", "120036.515000", "120036.515000", "120036.515000", "120036.531000", "120036.531000", "120036.531000", "120036.531000", "120036.531000", "120036.531000", "120036.546000", "120036.546000", "120036.546000", "120036.546000", "120036.546000", "120036.546000", "120036.546000", "120036.562000", "120036.562000", "120056.500000", "120056.500000", "120056.515000", "120056.515000", "120056.515000", "120056.515000", "120056.515000", "120056.515000", "120056.515000", "120056.531000", "120056.531000", "120056.531000", "120056.531000", "120056.531000", "120056.531000", "120056.531000", "120056.546000", "120056.546000", "120056.546000", "120056.546000", "120056.546000", "120056.546000", "120056.546000", "120056.562000", "120056.562000", "120056.562000", "120116.500000", "120116.500000", "120116.500000", "120116.515000", "120116.515000", "120116.515000", "120116.515000", "120116.531000", "120116.531000", "120116.531000", "120116.531000", "120116.531000", "120116.531000", "120116.531000", "120116.546000", "120116.546000", "120116.546000", "120116.546000", "120116.546000", "120116.562000", "120116.562000", "120116.562000", "120116.562000", "120116.562000", "120116.562000", "120136.500000", "120136.500000", "120136.500000", "120136.515000", "120136.515000", "120136.515000", "120136.515000", "120136.515000", "120136.515000", "120136.515000", "120136.531000", "120136.531000", "120136.531000", "120136.531000", "120136.531000", "120136.531000", "120136.546000", "120136.546000", "120136.546000", "120136.546000", "120136.546000", "120136.546000", "120136.546000", "120136.562000", "120136.562000", "120136.562000", "120156.500000", "120156.500000", "120156.500000", "120156.515000", "120156.515000", "120156.515000", "120156.515000", "120156.515000", "120156.515000", "120156.531000", "120156.531000", "120156.531000", "120156.531000", "120156.531000", "120156.531000", "120156.531000", "120156.546000", "120156.546000", "120156.546000", "120156.546000", "120156.546000", "120156.546000", "120156.546000", "120156.562000", "120156.562000", "120216.500000", "120216.500000", "120216.500000", "120216.515000", "120216.515000", "120216.515000", "120216.515000", "120216.531000", "120216.531000", "120216.531000", "120216.531000", "120216.531000", "120216.546000", "120216.546000", "120216.546000", "120216.546000", "120216.546000", "120216.546000", "120216.562000", "120216.562000", "120216.562000", "120216.562000", "120216.562000", "120216.562000", "120216.562000", "120216.578000", "120236.500000", "120236.500000", "120236.500000", "120236.515000", "120236.515000", "120236.515000", "120236.515000", "120236.515000", "120236.515000", "120236.531000", "120236.531000", "120236.531000", "120236.531000", "120236.531000", "120236.546000", "120236.546000", "120236.546000", "120236.546000", "120236.546000", "120236.546000", "120236.562000", "120236.562000", "120236.562000", "120236.562000", "120236.562000", "120256.500000", "120256.500000", "120256.500000", "120256.515000", "120256.515000", "120256.515000", "120256.515000", "120256.515000", "120256.515000", "120256.515000", "120256.531000", "120256.531000", "120256.531000", "120256.531000", "120256.531000", "120256.531000", "120256.546000", "120256.546000", "120256.546000", "120256.546000", "120256.546000", "120256.546000", "120256.546000", "120256.562000", "120256.562000", "120256.562000", "120316.500000", "120316.500000", "120316.500000", "120316.515000", "120316.515000", "120316.515000", "120316.515000", "120316.531000", "120316.531000", "120316.531000", "120316.531000", "120316.531000", "120316.531000", "120316.546000", "120316.546000", "120316.546000", "120316.546000", "120316.546000", "120316.546000", "120316.562000", "120316.562000", "120316.562000", "120316.562000", "120316.562000", "120316.562000", "120336.500000", "120336.515000", "120336.515000", "120336.515000", "120336.515000", "120336.531000", "120336.531000", "120336.531000", "120336.531000", "120336.531000", "120336.531000", "120336.546000", "120336.546000", "120336.546000", "120336.546000", "120336.562000", "120336.562000", "120336.562000", "120336.562000", "120336.562000", "120336.578000", "120336.578000", "120336.578000", "120336.578000", "120336.578000", "120356.500000", "120356.500000", "120356.500000", "120356.515000", "120356.515000", "120356.515000", "120356.515000", "120356.515000", "120356.515000", "120356.531000", "120356.531000", "120356.531000", "120356.531000", "120356.531000", "120356.531000", "120356.531000", "120356.546000", "120356.546000", "120356.546000", "120356.546000", "120356.546000", "120356.546000", "120356.546000", "120356.562000", "120356.562000", "120356.562000", "120416.500000", "120416.500000", "120416.515000", "120416.515000", "120416.515000", "120416.515000", "120416.515000", "120416.515000", "120416.531000", "120416.531000", "120416.531000", "120416.531000", "120416.531000", "120416.531000", "120416.531000", "120416.546000", "120416.546000", "120416.546000", "120416.546000", "120416.546000", "120416.546000", "120416.562000", "120416.562000", "120416.562000", "120416.562000", "120436.500000", "120436.500000", "120436.500000", "120436.515000", "120436.515000", "120436.515000", "120436.515000", "120436.515000", "120436.515000", "120436.531000", "120436.531000", "120436.531000", "120436.531000", "120436.531000", "120436.531000", "120436.531000", "120436.546000", "120436.546000", "120436.546000", "120436.546000", "120436.546000", "120436.546000", "120436.546000", "120436.562000", "120436.562000", "120436.562000", "120456.500000", "120456.500000", "120456.500000", "120456.515000", "120456.515000", "120456.515000", "120456.515000", "120456.515000", "120456.515000", "120456.531000", "120456.531000", "120456.531000", "120456.531000", "120456.531000", "120456.531000", "120456.546000", "120456.546000", "120456.546000", "120456.546000", "120456.546000", "120456.546000", "120456.562000", "120456.562000", "120456.562000", "120456.562000", "120516.500000", "120516.500000", "120516.500000", "120516.515000", "120516.515000", "120516.515000", "120516.515000", "120516.515000", "120516.515000", "120516.531000", "120516.531000", "120516.531000", "120516.531000", "120516.531000", "120516.531000", "120516.531000", "120516.546000", "120516.546000", "120516.546000", "120516.546000", "120516.546000", "120516.546000", "120516.562000", "120516.562000", "120516.562000", "120516.562000", "120536.500000", "120536.500000", "120536.500000", "120536.515000", "120536.515000", "120536.515000", "120536.515000", "120536.515000", "120536.515000", "120536.531000", "120536.531000", "120536.531000", "120536.531000", "120536.531000", "120536.531000", "120536.531000", "120536.546000", "120536.546000", "120536.546000", "120536.546000", "120536.546000", "120536.562000", "120536.562000", "120536.562000", "120536.562000", "120556.500000", "120556.500000", "120556.500000", "120556.515000", "120556.515000", "120556.515000", "120556.515000", "120556.515000", "120556.515000", "120556.531000", "120556.531000", "120556.531000", "120556.531000", "120556.531000", "120556.531000", "120556.531000", "120556.546000", "120556.546000", "120556.546000", "120556.546000", "120556.546000", "120556.546000", "120556.562000", "120556.562000", "120556.562000", "120556.562000", "120613.562000", "120613.562000", "120613.562000", "120613.562000", "120613.562000", "120613.562000", "120613.578000", "120613.578000", "120613.578000", "120613.578000", "120613.578000", "120613.578000", "120613.578000", "120613.593000", "120613.593000", "120613.593000", "120613.593000", "120613.593000", "120613.593000", "120613.593000", "120613.609000", "120613.609000"],
      "DataSetTrailingPadding": [
        "\u0000\u0000\u0000\u0000\u0000\u0000\u0000\u0000\u0000\u0000\u0000\u0000\u0000\u0000\u0000\u0000\u0000\u0000\u0000\u0000\u0000\u0000\u0000\u0000\u0000\u0000\u0000\u0000\u0000\u0000\u0000\u0000\u0000\u0000\u0000\u0000\u0000\u0000\u0000\u0000\u0000\u0000\u0000\u0000\u0000\u0000\u0000\u0000\u0000\u0000\u0000\u0000\u0000\u0000\u0000\u0000\u0000\u0000\u0000\u0000\u0000\u0000\u0000\u0000\u0000\u0000\u0000\u0000\u0000\u0000\u0000\u0000\u0000\u0000\u0000\u0000\u0000\u0000\u0000\u0000\u0000\u0000\u0000\u0000\u0000\u0000\u0000\u0000\u0000\u0000\u0000\u0000\u0000\u0000\u0000\u0000\u0000\u0000\u0000\u0000\u0000\u0000\u0000\u0000\u0000\u0000\u0000\u0000\u0000\u0000\u0000\u0000\u0000\u0000\u0000\u0000\u0000\u0000\u0000\u0000\u0000\u0000\u0000\u0000\u0000\u0000\u0000\u0000\u0000\u0000\u0000\u0000\u0000\u0000\u0000\u0000\u0000\u0000\u0000\u0000\u0000\u0000\u0000\u0000\u0000\u0000\u0000\u0000\u0000\u0000\u0000\u0000\u0000\u0000\u0000\u0000\u0000\u0000\u0000\u0000",
        "\u0000\u0000\u0000\u0000\u0000\u0000\u0000\u0000\u0000\u0000\u0000\u0000\u0000\u0000\u0000\u0000\u0000\u0000\u0000\u0000\u0000\u0000\u0000\u0000\u0000\u0000\u0000\u0000\u0000\u0000\u0000\u0000\u0000\u0000\u0000\u0000\u0000\u0000\u0000\u0000\u0000\u0000\u0000\u0000\u0000\u0000\u0000\u0000\u0000\u0000\u0000\u0000\u0000\u0000\u0000\u0000\u0000\u0000\u0000\u0000\u0000\u0000\u0000\u0000\u0000\u0000\u0000\u0000\u0000\u0000\u0000\u0000\u0000\u0000\u0000\u0000\u0000\u0000\u0000\u0000\u0000\u0000\u0000\u0000\u0000\u0000\u0000\u0000\u0000\u0000\u0000\u0000\u0000\u0000\u0000\u0000\u0000\u0000\u0000\u0000\u0000\u0000\u0000\u0000\u0000\u0000\u0000\u0000\u0000\u0000\u0000\u0000\u0000\u0000\u0000\u0000\u0000\u0000\u0000\u0000\u0000\u0000\u0000\u0000\u0000\u0000\u0000\u0000\u0000\u0000\u0000\u0000\u0000\u0000\u0000\u0000\u0000\u0000\u0000\u0000\u0000\u0000\u0000\u0000\u0000\u0000\u0000\u0000\u0000\u0000\u0000\u0000\u0000\u0000\u0000\u0000",
