{
  "AcquisitionMatrixPE": 104,
  "AcquisitionNumber": 1,
  "AcquisitionTime": "16:03:54.767500",
  "BandwidthPerPixelPhaseEncode": 13.935,
  "BaseResolution": 104,
  "CoilString": "C:HEA;HEP",
  "ConversionSoftware": "dcm2niix",
  "ConversionSoftwareVersion": "v1.0.20210317",
  "DerivedVendorReportedEchoSpacing": 0.000690017,
  "DeviceSerialNumber": "35450",
  "DwellTime": 2.5e-06,
  "EchoTime": 0.0348,
  "EffectiveEchoSpacing": 0.000690017,
  "FlipAngle": 55,
  "ImageComments": "Unaliased MB8/PE3",
  "ImageOrientationPatientDICOM": [1, 0, 0, 0, 0.999048, -0.0436194],
  "ImageType": [
    "ORIGINAL",
    "PRIMARY",
    "M",
    "MB",
    "ND",
    "MOSAIC"
],
  "ImagingFrequency": 123.235,
  "InPlanePhaseEncodingDirectionDICOM": "COL",
  "InstitutionAddress": "Univeristy Ave. 197,Newark,North East,US,07102-1814",
  "InstitutionName": "RUBIC",
  "InstitutionalDepartmentName": "Department",
  "MRAcquisitionType": "2D",
  "MagneticFieldStrength": 3,
  "Manufacturer": "Siemens",
  "ManufacturersModelName": "TrioTim",
  "Modality": "MR",
  "MultibandAccelerationFactor": 8,
  "PartialFourier": 0.875,
  "PatientPosition": "HFS",
  "PercentPhaseFOV": 100,
  "PercentSampling": 100,
  "PhaseEncodingDirection": "j-",
  "PhaseEncodingSteps": 91,
  "PhaseResolution": 1,
  "PixelBandwidth": 1923,
  "ProcedureStepDescription": "Cole^Michael",
  "ProtocolName": "cmrr_mbep2d_bold_2mm_MB8_Task_8x",
  "PulseSequenceDetails": "%CustomerSeq%\\cmrr_mbep2d_bold",
  "ReceiveCoilName": "32Ch_Head",
  "ReconMatrixPE": 104,
  "RepetitionTime": 0.785,
  "SAR": 0.133017,
  "ScanOptions": "PFP\\FS",
  "ScanningSequence": "EP",
  "SequenceName": "epfid2d1_104",
  "SequenceVariant": "SK\\SS",
  "SeriesDescription": "cmrr_mbep2d_bold_2mm_MB8_Task_8x",
  "SeriesNumber": 19,
  "ShimSetting": [2142, -367, -7174, 414, -121, -598, 338, -9],
  "SliceThickness": 2,
  "SliceTiming": [0, 0.4375, 0.0875, 0.525, 0.175, 0.6125, 0.2625, 0.7, 0.35, 0, 0.4375, 0.0875, 0.525, 0.175, 0.6125, 0.2625, 0.7, 0.35, 0, 0.4375, 0.0875, 0.525, 0.175, 0.6125, 0.2625, 0.7, 0.35, 0, 0.4375, 0.0875, 0.525, 0.175, 0.6125, 0.2625, 0.7, 0.35, 0, 0.4375, 0.0875, 0.525, 0.175, 0.6125, 0.2625, 0.7, 0.35, 0, 0.4375, 0.0875, 0.525, 0.175, 0.6125, 0.2625, 0.7, 0.35, 0, 0.4375, 0.0875, 0.525, 0.175, 0.6125, 0.2625, 0.7, 0.35, 0, 0.4375, 0.0875, 0.525, 0.175, 0.6125, 0.2625, 0.7, 0.35],
  "SoftwareVersions": "syngo MR B19",
  "SpacingBetweenSlices": 2,
  "StationName": "MRC35450",
  "TaskName": "cpro",
  "TotalReadoutTime": 0.0710717,
  "TxRefAmp": 378.941,
  "dcmmeta_affine": [
    [-2.0, 0.0, 0.0, 101.28813171386719],
    [0.0, 1.9980964660644531, -0.08723877370357513, -91.36768341064453],
    [0.0, 0.08723877370357513, 1.9980964660644531, -95.83680725097656],
    [0.0, 0.0, 0.0, 1.0]
],
  "dcmmeta_reorient_transform": [
    [0.0, -1.0, 0.0, 103.0],
    [1.0, 0.0, 0.0, 0.0],
    [0.0, 0.0, 1.0, 0.0],
    [0.0, 0.0, 0.0, 1.0]
],
  "dcmmeta_shape": [104, 104, 72, 581],
  "dcmmeta_slice_dim": 2,
  "dcmmeta_version": 0.6,
  "global": {
    "const": {
      "AcquisitionMatrix": [104, 0, 0, 104],
      "AngioFlag": "N",
      "BitsAllocated": 16,
      "BitsStored": 12,
      "Columns": 936,
      "EchoNumbers": 1,
      "EchoTime": 34.8,
      "EchoTrainLength": 1,
      "FlipAngle": 55.0,
      "HighBit": 11,
      "ImageOrientationPatient": [1.0, 0.0, 0.0, 0.0, 0.99904822159351, -0.0436193870985],
      "ImagePositionPatient": [-933.28813552856, -945.64436890914, -50.559880323712],
      "ImageType": [
        "ORIGINAL",
        "PRIMARY",
        "M",
        "MB",
        "ND",
        "MOSAIC"
],
      "ImagedNucleus": "1H",
      "ImagingFrequency": 123.23451,
      "InPlanePhaseEncodingDirection": "COL",
      "MRAcquisitionType": "2D",
      "MagneticFieldStrength": 3.0,
      "Manufacturer": "SIEMENS",
      "ManufacturerModelName": "TrioTim",
      "Modality": "MR",
      "NumberOfAverages": 1.0,
      "NumberOfPhaseEncodingSteps": 91,
      "PercentPhaseFieldOfView": 100.0,
      "PercentSampling": 100.0,
      "PerformedProcedureStepStartTime": "141820.562000",
      "PhotometricInterpretation": "MONOCHROME2",
      "PixelBandwidth": 1923.0,
      "PixelRepresentation": 0,
      "PixelSpacing": [2.0, 2.0],
      "ProtocolName": "cmrr_mbep2d_bold_2mm_MB8_Task_8x",
      "RepetitionTime": 785.0,
      "Rows": 936,
      "SAR": 0.13301732183379,
      "SamplesPerPixel": 1,
      "ScanOptions": [
        "PFP",
        "FS"
],
      "ScanningSequence": "EP",
      "SequenceName": "epfid2d1_104",
      "SequenceVariant": [
        "SK",
        "SS"
],
      "SeriesDescription": "cmrr_mbep2d_bold_2mm_MB8_Task_8x",
      "SeriesNumber": 19,
      "SeriesTime": "171406.468000",
      "SliceLocation": -91.760186306391,
      "SliceThickness": 2.0,
      "SmallestImagePixelValue": 0,
      "SoftwareVersions": "syngo MR B19",
      "SpacingBetweenSlices": 1.9999999692212,
      "SpecificCharacterSet": "ISO_IR 100",
      "StudyID": "1",
      "StudyTime": "141820.531000",
      "TransmitCoilName": "Body",
      "VariableFlipAngleFlag": "N",
      "WindowCenterWidthExplanation": "Algo1",
      "dBdt": 0.0},
    "slices": {}
  },
  "time": {
    "samples": {
      "AcquisitionNumber": [1, 2, 3, 4, 5, 6, 7, 8, 9, 10, 11, 12, 13, 14, 15, 16, 17, 18, 19, 20, 21, 22, 23, 24, 25, 26, 27, 28, 29, 30, 31, 32, 33, 34, 35, 36, 37, 38, 39, 40, 41, 42, 43, 44, 45, 46, 47, 48, 49, 50, 51, 52, 53, 54, 55, 56, 57, 58, 59, 60, 61, 62, 63, 64, 65, 66, 67, 68, 69, 70, 71, 72, 73, 74, 75, 76, 77, 78, 79, 80, 81, 82, 83, 84, 85, 86, 87, 88, 89, 90, 91, 92, 93, 94, 95, 96, 97, 98, 99, 100, 101, 102, 103, 104, 105, 106, 107, 108, 109, 110, 111, 112, 113, 114, 115, 116, 117, 118, 119, 120, 121, 122, 123, 124, 125, 126, 127, 128, 129, 130, 131, 132, 133, 134, 135, 136, 137, 138, 139, 140, 141, 142, 143, 144, 145, 146, 147, 148, 149, 150, 151, 152, 153, 154, 155, 156, 157, 158, 159, 160, 161, 162, 163, 164, 165, 166, 167, 168, 169, 170, 171, 172, 173, 174, 175, 176, 177, 178, 179, 180, 181, 182, 183, 184, 185, 186, 187, 188, 189, 190, 191, 192, 193, 194, 195, 196, 197, 198, 199, 200, 201, 202, 203, 204, 205, 206, 207, 208, 209, 210, 211, 212, 213, 214, 215, 216, 217, 218, 219, 220, 221, 222, 223, 224, 225, 226, 227, 228, 229, 230, 231, 232, 233, 234, 235, 236, 237, 238, 239, 240, 241, 242, 243, 244, 245, 246, 247, 248, 249, 250, 251, 252, 253, 254, 255, 256, 257, 258, 259, 260, 261, 262, 263, 264, 265, 266, 267, 268, 269, 270, 271, 272, 273, 274, 275, 276, 277, 278, 279, 280, 281, 282, 283, 284, 285, 286, 287, 288, 289, 290, 291, 292, 293, 294, 295, 296, 297, 298, 299, 300, 301, 302, 303, 304, 305, 306, 307, 308, 309, 310, 311, 312, 313, 314, 315, 316, 317, 318, 319, 320, 321, 322, 323, 324, 325, 326, 327, 328, 329, 330, 331, 332, 333, 334, 335, 336, 337, 338, 339, 340, 341, 342, 343, 344, 345, 346, 347, 348, 349, 350, 351, 352, 353, 354, 355, 356, 357, 358, 359, 360, 361, 362, 363, 364, 365, 366, 367, 368, 369, 370, 371, 372, 373, 374, 375, 376, 377, 378, 379, 380, 381, 382, 383, 384, 385, 386, 387, 388, 389, 390, 391, 392, 393, 394, 395, 396, 397, 398, 399, 400, 401, 402, 403, 404, 405, 406, 407, 408, 409, 410, 411, 412, 413, 414, 415, 416, 417, 418, 419, 420, 421, 422, 423, 424, 425, 426, 427, 428, 429, 430, 431, 432, 433, 434, 435, 436, 437, 438, 439, 440, 441, 442, 443, 444, 445, 446, 447, 448, 449, 450, 451, 452, 453, 454, 455, 456, 457, 458, 459, 460, 461, 462, 463, 464, 465, 466, 467, 468, 469, 470, 471, 472, 473, 474, 475, 476, 477, 478, 479, 480, 481, 482, 483, 484, 485, 486, 487, 488, 489, 490, 491, 492, 493, 494, 495, 496, 497, 498, 499, 500, 501, 502, 503, 504, 505, 506, 507, 508, 509, 510, 511, 512, 513, 514, 515, 516, 517, 518, 519, 520, 521, 522, 523, 524, 525, 526, 527, 528, 529, 530, 531, 532, 533, 534, 535, 536, 537, 538, 539, 540, 541, 542, 543, 544, 545, 546, 547, 548, 549, 550, 551, 552, 553, 554, 555, 556, 557, 558, 559, 560, 561, 562, 563, 564, 565, 566, 567, 568, 569, 570, 571, 572, 573, 574, 575, 576, 577, 578, 579, 580, 581],
      "AcquisitionTime": ["160354.767500", "160355.555000", "160356.342500", "160357.132500", "160357.920000", "160358.707500", "160359.495000", "160400.285000", "160401.072500", "160401.860000", "160402.647500", "160403.437500", "160404.225000", "160405.012500", "160405.800000", "160406.590000", "160407.377500", "160408.165000", "160408.952500", "160409.742500", "160410.530000", "160411.317500", "160412.105000", "160412.895000", "160413.682500", "160414.470000", "160415.260000", "160416.047500", "160416.835000", "160417.622500", "160418.412500", "160419.200000", "160419.987500", "160420.775000", "160421.565000", "160422.352500", "160423.140000", "160423.927500", "160424.717500", "160425.505000", "160426.292500", "160427.080000", "160427.870000", "160428.657500", "160429.445000", "160430.232500", "160431.022500", "160431.810000", "160432.597500", "160433.387500", "160434.175000", "160434.962500", "160435.750000", "160436.540000", "160437.327500", "160438.115000", "160438.902500", "160439.692500", "160440.480000", "160441.267500", "160442.055000", "160442.845000", "160443.632500", "160444.420000", "160445.207500", "160445.997500", "160446.785000", "160447.572500", "160448.360000", "160449.150000", "160449.937500", "160450.725000", "160451.515000", "160452.302500", "160453.090000", "160453.877500", "160454.667500", "160455.455000", "160456.242500", "160457.030000", "160457.820000", "160458.607500", "160459.395000", "160500.182500", "160500.972500", "160501.760000", "160502.547500", "160503.335000", "160504.125000", "160504.912500", "160505.700000", "160506.487500", "160507.277500", "160508.065000", "160508.852500", "160509.642500", "160510.430000", "160511.217500", "160512.005000", "160512.795000", "160513.582500", "160514.370000", "160515.157500", "160515.947500", "160516.735000", "160517.522500", "160518.310000", "160519.100000", "160519.887500", "160520.675000", "160521.462500", "160522.252500", "160523.040000", "160523.827500", "160524.615000", "160525.405000", "160526.192500", "160526.980000", "160527.770000", "160528.557500", "160529.345000", "160530.132500", "160530.922500", "160531.710000", "160532.497500", "160533.285000", "160534.075000", "160534.862500", "160535.650000", "160536.437500", "160537.227500", "160538.015000", "160538.802500", "160539.590000", "160540.380000", "160541.167500", "160541.955000", "160542.742500", "160543.532500", "160544.320000", "160545.107500", "160545.897500", "160546.685000", "160547.472500", "160548.260000", "160549.050000", "160549.837500", "160550.625000", "160551.412500", "160552.202500", "160552.990000", "160553.777500", "160554.565000", "160555.355000", "160556.142500", "160556.930000", "160557.717500", "160558.507500", "160559.295000", "160600.082500", "160600.870000", "160601.660000", "160602.447500", "160603.235000", "160604.025000", "160604.812500", "160605.600000", "160606.387500", "160607.177500", "160607.965000", "160608.752500", "160609.540000", "160610.330000", "160611.117500", "160611.905000", "160612.692500", "160613.482500", "160614.270000", "160615.057500", "160615.845000", "160616.635000", "160617.422500", "160618.210000", "160618.997500", "160619.787500", "160620.575000", "160621.362500", "160622.152500", "160622.940000", "160623.727500", "160624.515000", "160625.305000", "160626.092500", "160626.880000", "160627.667500", "160628.457500", "160629.245000", "160630.032500", "160630.820000", "160631.610000", "160632.397500", "160633.185000", "160633.972500", "160634.762500", "160635.550000", "160636.337500", "160637.127500", "160637.915000", "160638.702500", "160639.490000", "160640.280000", "160641.067500", "160641.855000", "160642.642500", "160643.432500", "160644.220000", "160645.007500", "160645.795000", "160646.585000", "160647.372500", "160648.160000", "160648.947500", "160649.737500", "160650.525000", "160651.312500", "160652.100000", "160652.890000", "160653.677500", "160654.465000", "160655.255000", "160656.042500", "160656.830000", "160657.617500", "160658.407500", "160659.195000", "160659.982500", "160700.770000", "160701.560000", "160702.347500", "160703.135000", "160703.922500", "160704.712500", "160705.500000", "160706.287500", "160707.075000", "160707.865000", "160708.652500", "160709.440000", "160710.227500", "160711.017500", "160711.805000", "160712.592500", "160713.382500", "160714.170000", "160714.957500", "160715.745000", "160716.535000", "160717.322500", "160718.110000", "160718.897500", "160719.687500", "160720.475000", "160721.262500", "160722.050000", "160722.840000", "160723.627500", "160724.415000", "160725.202500", "160725.992500", "160726.780000", "160727.567500", "160728.355000", "160729.145000", "160729.932500", "160730.720000", "160731.510000", "160732.297500", "160733.085000", "160733.872500", "160734.662500", "160735.450000", "160736.237500", "160737.025000", "160737.815000", "160738.602500", "160739.390000", "160740.177500", "160740.967500", "160741.755000", "160742.542500", "160743.330000", "160744.120000", "160744.907500", "160745.695000", "160746.482500", "160747.272500", "160748.060000", "160748.847500", "160749.637500", "160750.425000", "160751.212500", "160752.000000", "160752.790000", "160753.577500", "160754.365000", "160755.152500", "160755.942500", "160756.730000", "160757.517500", "160758.305000", "160759.095000", "160759.882500", "160800.670000", "160801.457500", "160802.247500", "160803.035000", "160803.822500", "160804.610000", "160805.400000", "160806.187500", "160806.975000", "160807.765000", "160808.552500", "160809.340000", "160810.127500", "160810.917500", "160811.705000", "160812.492500", "160813.280000", "160814.070000", "160814.857500", "160815.645000", "160816.432500", "160817.222500", "160818.010000", "160818.797500", "160819.585000", "160820.375000", "160821.162500", "160821.950000", "160822.737500", "160823.527500", "160824.315000", "160825.102500", "160825.892500", "160826.680000", "160827.467500", "160828.255000", "160829.045000", "160829.832500", "160830.620000", "160831.407500", "160832.197500", "160832.985000", "160833.772500", "160834.560000", "160835.350000", "160836.137500", "160836.925000", "160837.712500", "160838.502500", "160839.290000", "160840.077500", "160840.865000", "160841.655000", "160842.442500", "160843.230000", "160844.020000", "160844.807500", "160845.595000", "160846.382500", "160847.172500", "160847.960000", "160848.747500", "160849.535000", "160850.325000", "160851.112500", "160851.900000", "160852.687500", "160853.477500", "160854.265000", "160855.052500", "160855.840000", "160856.630000", "160857.417500", "160858.205000", "160858.992500", "160859.782500", "160900.570000", "160901.357500", "160902.147500", "160902.935000", "160903.722500", "160904.510000", "160905.300000", "160906.087500", "160906.875000", "160907.662500", "160908.452500", "160909.240000", "160910.027500", "160910.815000", "160911.605000", "160912.392500", "160913.180000", "160913.967500", "160914.757500", "160915.545000", "160916.332500", "160917.120000", "160917.910000", "160918.697500", "160919.485000", "160920.275000", "160921.062500", "160921.850000", "160922.637500", "160923.427500", "160924.215000", "160925.002500", "160925.790000", "160926.580000", "160927.367500", "160928.155000", "160928.942500", "160929.732500", "160930.520000", "160931.307500", "160932.095000", "160932.885000", "160933.672500", "160934.460000", "160935.247500", "160936.037500", "160936.825000", "160937.612500", "160938.402500", "160939.190000", "160939.977500", "160940.765000", "160941.555000", "160942.342500", "160943.130000", "160943.917500", "160944.707500", "160945.495000", "160946.282500", "160947.070000", "160947.860000", "160948.647500", "160949.435000", "160950.222500", "160951.012500", "160951.800000", "160952.587500", "160953.377500", "160954.165000", "160954.952500", "160955.740000", "160956.530000", "160957.317500", "160958.105000", "160958.892500", "160959.682500", "161000.470000", "161001.257500", "161002.045000", "161002.835000", "161003.622500", "161004.410000", "161005.197500", "161005.987500", "161006.775000", "161007.562500", "161008.350000", "161009.140000", "161009.927500", "161010.715000", "161011.505000", "161012.292500", "161013.080000", "161013.867500", "161014.657500", "161015.445000", "161016.232500", "161017.020000", "161017.810000", "161018.597500", "161019.385000", "161020.172500", "161020.962500", "161021.750000", "161022.537500", "161023.325000", "161024.115000", "161024.902500", "161025.690000", "161026.477500", "161027.267500", "161028.055000", "161028.842500", "161029.632500", "161030.420000", "161031.207500", "161031.995000", "161032.785000", "161033.572500", "161034.360000", "161035.147500", "161035.937500", "161036.725000", "161037.512500", "161038.300000", "161039.090000", "161039.877500", "161040.665000", "161041.452500", "161042.242500", "161043.030000", "161043.817500", "161044.605000", "161045.395000", "161046.182500", "161046.970000", "161047.760000", "161048.547500", "161049.335000", "161050.122500", "161050.912500", "161051.700000", "161052.487500", "161053.275000", "161054.065000", "161054.852500", "161055.640000", "161056.427500", "161057.217500", "161058.005000", "161058.792500", "161059.580000", "161100.370000", "161101.157500", "161101.945000", "161102.732500", "161103.522500", "161104.310000", "161105.097500", "161105.887500", "161106.675000", "161107.462500", "161108.250000", "161109.040000", "161109.827500", "161110.615000", "161111.402500", "161112.192500", "161112.980000", "161113.767500", "161114.555000", "161115.345000", "161116.132500", "161116.920000", "161117.707500", "161118.497500", "161119.285000", "161120.072500", "161120.860000", "161121.650000", "161122.437500", "161123.225000", "161124.015000", "161124.802500", "161125.590000", "161126.377500", "161127.167500", "161127.955000", "161128.742500", "161129.530000", "161130.320000", "161131.107500", "161131.895000"],
      "ContentTime": ["171406.468000", "171406.468000", "171406.468000", "171406.468000", "171506.437000", "171506.437000", "171506.437000", "171506.437000", "171506.437000", "171506.437000", "171506.437000", "171506.453000", "171506.453000", "171506.453000", "171506.453000", "171506.453000", "171506.453000", "171506.453000", "171506.468000", "171506.468000", "171506.468000", "171506.468000", "171506.468000", "171506.468000", "171506.468000", "171506.484000", "171506.484000", "171506.484000", "171506.484000", "171506.484000", "171506.484000", "171506.500000", "171606.437000", "171606.437000", "171606.437000", "171606.437000", "171606.437000", "171606.437000", "171606.437000", "171606.453000", "171606.453000", "171606.453000", "171606.453000", "171606.453000", "171606.453000", "171606.468000", "171606.468000", "171606.468000", "171606.468000", "171606.468000", "171606.468000", "171606.468000", "171606.484000", "171606.484000", "171606.484000", "171606.484000", "171606.484000", "171606.484000", "171606.484000", "171606.500000", "171706.437000", "171706.437000", "171706.437000", "171706.437000", "171706.437000", "171706.453000", "171706.453000", "171706.453000", "171706.453000", "171706.453000", "171706.453000", "171706.468000", "171706.468000", "171706.468000", "171706.468000", "171706.468000", "171706.484000", "171706.484000", "171706.484000", "171706.484000", "171706.484000", "171706.500000", "171706.500000", "171706.500000", "171706.500000", "171706.500000", "171706.500000", "171706.500000", "171806.437000", "171806.437000", "171806.437000", "171806.437000", "171806.437000", "171806.453000", "171806.453000", "171806.453000", "171806.453000", "171806.453000", "171806.468000", "171806.468000", "171806.468000", "171806.468000", "171806.484000", "171806.484000", "171806.484000", "171806.484000", "171806.484000", "171806.484000", "171806.484000", "171806.500000", "171806.500000", "171806.500000", "171806.500000", "171806.500000", "171806.500000", "171806.500000", "171906.437000", "171906.437000", "171906.437000", "171906.437000", "171906.437000", "171906.437000", "171906.437000", "171906.453000", "171906.453000", "171906.453000", "171906.453000", "171906.453000", "171906.453000", "171906.453000", "171906.468000", "171906.468000", "171906.468000", "171906.468000", "171906.468000", "171906.468000", "171906.468000", "171906.484000", "171906.484000", "171906.484000", "171906.484000", "171906.484000", "171906.484000", "171906.484000", "171906.500000", "172006.437000", "172006.437000", "172006.437000", "172006.437000", "172006.437000", "172006.437000", "172006.437000", "172006.453000", "172006.453000", "172006.453000", "172006.453000", "172006.453000", "172006.453000", "172006.453000", "172006.468000", "172006.468000", "172006.468000", "172006.468000", "172006.468000", "172006.468000", "172006.468000", "172006.484000", "172006.484000", "172006.484000", "172006.484000", "172006.484000", "172006.484000", "172006.484000", "172106.437000", "172106.437000", "172106.437000", "172106.437000", "172106.437000", "172106.437000", "172106.437000", "172106.453000", "172106.453000", "172106.453000", "172106.453000", "172106.453000", "172106.453000", "172106.468000", "172106.468000", "172106.468000", "172106.468000", "172106.468000", "172106.468000", "172106.468000", "172106.484000", "172106.484000", "172106.484000", "172106.484000", "172106.484000", "172106.484000", "172106.484000", "172106.500000", "172206.437000", "172206.437000", "172206.437000", "172206.437000", "172206.437000", "172206.437000", "172206.437000", "172206.453000", "172206.453000", "172206.453000", "172206.453000", "172206.453000", "172206.453000", "172206.453000", "172206.468000", "172206.468000", "172206.468000", "172206.468000", "172206.468000", "172206.468000", "172206.468000", "172206.484000", "172206.484000", "172206.484000", "172206.484000", "172206.484000", "172206.484000", "172206.500000", "172306.437000", "172306.437000", "172306.437000", "172306.437000", "172306.437000", "172306.437000", "172306.437000", "172306.453000", "172306.453000", "172306.453000", "172306.453000", "172306.453000", "172306.453000", "172306.453000", "172306.468000", "172306.468000", "172306.468000", "172306.468000", "172306.468000", "172306.468000", "172306.468000", "172306.484000", "172306.484000", "172306.484000", "172306.484000", "172306.484000", "172306.484000", "172306.484000", "172406.437000", "172406.437000", "172406.437000", "172406.437000", "172406.437000", "172406.437000", "172406.437000", "172406.453000", "172406.453000", "172406.453000", "172406.453000", "172406.453000", "172406.453000", "172406.453000", "172406.468000", "172406.468000", "172406.468000", "172406.468000", "172406.468000", "172406.468000", "172406.468000", "172406.484000", "172406.484000", "172406.500000", "172406.500000", "172406.500000", "172406.500000", "172406.515000", "172506.437000", "172506.437000", "172506.437000", "172506.437000", "172506.437000", "172506.437000", "172506.437000", "172506.453000", "172506.453000", "172506.453000", "172506.453000", "172506.453000", "172506.453000", "172506.453000", "172506.468000", "172506.468000", "172506.468000", "172506.468000", "172506.468000", "172506.468000", "172506.468000", "172506.484000", "172506.484000", "172506.484000", "172506.484000", "172506.484000", "172506.500000", "172506.500000", "172606.437000", "172606.437000", "172606.437000", "172606.437000", "172606.437000", "172606.453000", "172606.453000", "172606.453000", "172606.453000", "172606.453000", "172606.453000", "172606.453000", "172606.468000", "172606.468000", "172606.468000", "172606.468000", "172606.468000", "172606.484000", "172606.484000", "172606.484000", "172606.484000", "172606.500000", "172606.500000", "172606.500000", "172606.500000", "172606.515000", "172606.515000", "172606.515000", "172706.437000", "172706.437000", "172706.437000", "172706.437000", "172706.437000", "172706.437000", "172706.437000", "172706.453000", "172706.453000", "172706.453000", "172706.453000", "172706.453000", "172706.453000", "172706.453000", "172706.468000", "172706.468000", "172706.468000", "172706.468000", "172706.468000", "172706.468000", "172706.468000", "172706.484000", "172706.484000", "172706.484000", "172706.484000", "172706.484000", "172706.484000", "172706.500000", "172706.500000", "172806.437000", "172806.437000", "172806.437000", "172806.437000", "172806.437000", "172806.437000", "172806.453000", "172806.453000", "172806.453000", "172806.453000", "172806.453000", "172806.453000", "172806.453000", "172806.468000", "172806.468000", "172806.468000", "172806.468000", "172806.468000", "172806.468000", "172806.468000", "172806.484000", "172806.484000", "172806.484000", "172806.484000", "172806.484000", "172806.484000", "172806.484000", "172806.500000", "172906.437000", "172906.437000", "172906.437000", "172906.437000", "172906.437000", "172906.437000", "172906.437000", "172906.453000", "172906.453000", "172906.453000", "172906.453000", "172906.453000", "172906.453000", "172906.453000", "172906.468000", "172906.468000", "172906.468000", "172906.468000", "172906.468000", "172906.468000", "172906.468000", "172906.484000", "172906.484000", "172906.484000", "172906.484000", "172906.484000", "172906.484000", "172906.484000", "173006.437000", "173006.437000", "173006.437000", "173006.437000", "173006.437000", "173006.437000", "173006.437000", "173006.453000", "173006.453000", "173006.453000", "173006.453000", "173006.453000", "173006.468000", "173006.468000", "173006.468000", "173006.468000", "173006.468000", "173006.468000", "173006.468000", "173006.484000", "173006.484000", "173006.484000", "173006.484000", "173006.484000", "173006.484000", "173006.484000", "173006.500000", "173006.500000", "173106.437000", "173106.437000", "173106.437000", "173106.437000", "173106.437000", "173106.437000", "173106.437000", "173106.453000", "173106.453000", "173106.453000", "173106.453000", "173106.453000", "173106.453000", "173106.468000", "173106.468000", "173106.468000", "173106.468000", "173106.468000", "173106.468000", "173106.468000", "173106.484000", "173106.484000", "173106.484000", "173106.484000", "173106.484000", "173106.484000", "173106.484000", "173106.500000", "173206.437000", "173206.437000", "173206.437000", "173206.437000", "173206.437000", "173206.437000", "173206.437000", "173206.453000", "173206.453000", "173206.453000", "173206.453000", "173206.453000", "173206.453000", "173206.453000", "173206.468000", "173206.468000", "173206.468000", "173206.468000", "173206.468000", "173206.468000", "173206.468000", "173206.484000", "173206.484000", "173206.484000", "173206.484000", "173206.484000", "173206.484000", "173206.500000", "173306.437000", "173306.437000", "173306.437000", "173306.453000", "173306.453000", "173306.453000", "173306.453000", "173306.453000", "173306.453000", "173306.468000", "173306.468000", "173306.468000", "173306.468000", "173306.468000", "173306.468000", "173306.468000", "173306.484000", "173306.484000", "173306.484000", "173306.484000", "173306.484000", "173306.484000", "173306.484000", "173306.500000", "173306.500000", "173306.500000", "173306.500000", "173306.500000", "173346.437000", "173346.437000", "173346.437000", "173346.437000", "173346.437000", "173346.453000", "173346.453000", "173346.453000", "173346.453000", "173346.453000", "173346.453000", "173346.468000", "173346.468000", "173346.468000", "173346.468000", "173346.468000", "173346.468000", "173346.468000", "173346.484000", "173435.843000", "173435.843000", "173435.859000", "173435.859000", "173435.859000", "173435.859000", "173435.859000", "173435.875000", "173435.875000", "173435.875000", "173435.875000", "173435.875000", "173435.875000", "173435.875000", "173435.890000", "173435.890000", "173435.890000", "173435.890000", "173435.890000", "173435.890000", "173435.890000", "173435.906000", "173435.906000", "173435.906000"],
      "DataSetTrailingPadding": [
        "\u0000\u0000\u0000\u0000\u0000\u0000\u0000\u0000\u0000\u0000\u0000\u0000\u0000\u0000\u0000\u0000\u0000\u0000\u0000\u0000\u0000\u0000\u0000\u0000\u0000\u0000\u0000\u0000\u0000\u0000\u0000\u0000\u0000\u0000\u0000\u0000\u0000\u0000\u0000\u0000\u0000\u0000\u0000\u0000\u0000\u0000\u0000\u0000\u0000\u0000\u0000\u0000\u0000\u0000\u0000\u0000\u0000\u0000\u0000\u0000\u0000\u0000\u0000\u0000\u0000\u0000\u0000\u0000\u0000\u0000\u0000\u0000\u0000\u0000\u0000\u0000\u0000\u0000\u0000\u0000\u0000\u0000\u0000\u0000\u0000\u0000\u0000\u0000\u0000\u0000\u0000\u0000\u0000\u0000\u0000\u0000\u0000\u0000\u0000\u0000\u0000\u0000\u0000\u0000\u0000\u0000\u0000\u0000\u0000\u0000\u0000\u0000\u0000\u0000\u0000\u0000\u0000\u0000\u0000\u0000\u0000\u0000\u0000\u0000\u0000\u0000\u0000\u0000\u0000\u0000\u0000\u0000\u0000\u0000\u0000\u0000\u0000\u0000\u0000\u0000\u0000\u0000\u0000\u0000\u0000\u0000\u0000\u0000\u0000\u0000\u0000\u0000\u0000\u0000\u0000\u0000\u0000\u0000\u0000\u0000\u0000\u0000\u0000\u0000\u0000\u0000\u0000\u0000\u0000\u0000\u0000\u0000\u0000\u0000\u0000\u0000\u0000\u0000\u0000\u0000\u0000\u0000\u0000\u0000\u0000\u0000\u0000\u0000\u0000\u0000\u0000\u0000\u0000\u0000\u0000\u0000\u0000\u0000\u0000\u0000\u0000\u0000\u0000\u0000\u0000\u0000\u0000\u0000\u0000\u0000\u0000\u0000\u0000\u0000\u0000\u0000\u0000\u0000\u0000\u0000\u0000\u0000",
