{
  "AcquisitionMatrixPE": 104,
  "AcquisitionNumber": 1,
  "AcquisitionTime": "14:42:23.707500",
  "BandwidthPerPixelPhaseEncode": 13.935,
  "BaseResolution": 104,
  "CoilString": "C:HEA;HEP",
  "ConversionSoftware": "dcm2niix",
  "ConversionSoftwareVersion": "v1.0.20210317",
  "DerivedVendorReportedEchoSpacing": 0.000690017,
  "DeviceSerialNumber": "35450",
  "DwellTime": 2.5e-06,
  "EchoTime": 0.0348,
  "EffectiveEchoSpacing": 0.000690017,
  "FlipAngle": 55,
  "ImageComments": "Unaliased MB8/PE3 (remote)",
  "ImageOrientationPatientDICOM": [0.999722, 0.00932383, 0.0216481, -6.79189e-09, 0.918436, -0.395569],
  "ImageType": [
    "ORIGINAL",
    "PRIMARY",
    "M",
    "MB",
    "ND",
    "MOSAIC"
],
  "ImagingFrequency": 123.235,
  "InPlanePhaseEncodingDirectionDICOM": "COL",
  "InstitutionAddress": "Univeristy Ave. 197,Newark,North East,US,07102-1814",
  "InstitutionName": "RUBIC",
  "InstitutionalDepartmentName": "Department",
  "MRAcquisitionType": "2D",
  "MagneticFieldStrength": 3,
  "Manufacturer": "Siemens",
  "ManufacturersModelName": "TrioTim",
  "Modality": "MR",
  "MultibandAccelerationFactor": 8,
  "PartialFourier": 0.875,
  "PatientPosition": "HFS",
  "PercentPhaseFOV": 100,
  "PercentSampling": 100,
  "PhaseEncodingDirection": "j-",
  "PhaseEncodingSteps": 91,
  "PhaseResolution": 1,
  "PixelBandwidth": 1923,
  "ProcedureStepDescription": "Cole^Michael",
  "ProtocolName": "cmrr_mbep2d_bold_2mm_MB8_Task_8x",
  "PulseSequenceDetails": "%CustomerSeq%\\cmrr_mbep2d_bold",
  "ReceiveCoilName": "32Ch_Head",
  "ReconMatrixPE": 104,
  "RepetitionTime": 0.785,
  "SAR": 0.123727,
  "ScanOptions": "PFP\\FS",
  "ScanningSequence": "EP",
  "SequenceName": "epfid2d1_104",
  "SequenceVariant": "SK\\SS",
  "SeriesDescription": "cmrr_mbep2d_bold_2mm_MB8_Task_8x",
  "SeriesNumber": 17,
  "ShimSetting": [2138, -300, -7257, 491, -126, -497, -3, 3],
  "SliceThickness": 2,
  "SliceTiming": [0, 0.4375, 0.0875, 0.525, 0.175, 0.6125, 0.2625, 0.7, 0.35, 0, 0.4375, 0.0875, 0.525, 0.175, 0.6125, 0.2625, 0.7, 0.35, 0, 0.4375, 0.0875, 0.525, 0.175, 0.6125, 0.2625, 0.7, 0.35, 0, 0.4375, 0.0875, 0.525, 0.175, 0.6125, 0.2625, 0.7, 0.35, 0, 0.4375, 0.0875, 0.525, 0.175, 0.6125, 0.2625, 0.7, 0.35, 0, 0.4375, 0.0875, 0.525, 0.175, 0.6125, 0.2625, 0.7, 0.35, 0, 0.4375, 0.0875, 0.525, 0.175, 0.6125, 0.2625, 0.7, 0.35, 0, 0.4375, 0.0875, 0.525, 0.175, 0.6125, 0.2625, 0.7, 0.35],
  "SoftwareVersions": "syngo MR B19",
  "SpacingBetweenSlices": 2,
  "StationName": "MRC35450",
  "TaskName": "cpro",
  "TotalReadoutTime": 0.0710717,
  "TxRefAmp": 330.704,
  "dcmmeta_affine": [
    [-1.9994443655014038, -1.3583782099146902e-08, 0.04714132100343704, 103.60768127441406],
    [-0.018647652119398117, 1.8368725776672363, -0.7909179925918579, -56.409793853759766],
    [0.043296296149492264, 0.7911378145217896, 1.8363622426986694, -146.95257568359375],
    [0.0, 0.0, 0.0, 1.0]
],
  "dcmmeta_reorient_transform": [
    [0.0, -1.0, 0.0, 103.0],
    [1.0, 0.0, 0.0, 0.0],
    [0.0, 0.0, 1.0, 0.0],
    [0.0, 0.0, 0.0, 1.0]
],
  "dcmmeta_shape": [104, 104, 72, 581],
  "dcmmeta_slice_dim": 2,
  "dcmmeta_version": 0.6,
  "global": {
    "const": {
      "AcquisitionMatrix": [104, 0, 0, 104],
      "AngioFlag": "N",
      "BitsAllocated": 16,
      "BitsStored": 12,
      "Columns": 936,
      "EchoNumbers": 1,
      "EchoTime": 34.8,
      "EchoTrainLength": 1,
      "FlipAngle": 55.0,
      "HighBit": 11,
      "ImageOrientationPatient": [0.99972217338402, 0.00932382652313, 0.02164814780285, -6.791891e-09, 0.91843630493256, -0.3955688989062],
      "ImagePositionPatient": [-935.37652270521, -904.68451606254, 245.63668124803],
      "ImageType": [
        "ORIGINAL",
        "PRIMARY",
        "M",
        "MB",
        "ND",
        "MOSAIC"
],
      "ImagedNucleus": "1H",
      "ImagingFrequency": 123.234506,
      "InPlanePhaseEncodingDirection": "COL",
      "MRAcquisitionType": "2D",
      "MagneticFieldStrength": 3.0,
      "Manufacturer": "SIEMENS",
      "ManufacturerModelName": "TrioTim",
      "Modality": "MR",
      "NumberOfAverages": 1.0,
      "NumberOfPhaseEncodingSteps": 91,
      "PercentPhaseFieldOfView": 100.0,
      "PercentSampling": 100.0,
      "PerformedProcedureStepStartTime": "131805.812000",
      "PhotometricInterpretation": "MONOCHROME2",
      "PixelBandwidth": 1923.0,
      "PixelRepresentation": 0,
      "PixelSpacing": [2.0, 2.0],
      "ProtocolName": "cmrr_mbep2d_bold_2mm_MB8_Task_8x",
      "RepetitionTime": 785.0,
      "Rows": 936,
      "SAR": 0.12372655592324,
      "SamplesPerPixel": 1,
      "ScanOptions": [
        "PFP",
        "FS"
],
      "ScanningSequence": "EP",
      "SequenceName": "epfid2d1_104",
      "SequenceVariant": [
        "SK",
        "SS"
],
      "SeriesDescription": "cmrr_mbep2d_bold_2mm_MB8_Task_8x",
      "SeriesNumber": 17,
      "SeriesTime": "144235.984000",
      "SliceLocation": -110.1792229367,
      "SliceThickness": 2.0,
      "SmallestImagePixelValue": 0,
      "SoftwareVersions": "syngo MR B19",
      "SpacingBetweenSlices": 1.999999962605,
      "SpecificCharacterSet": "ISO_IR 100",
      "StudyID": "1",
      "StudyTime": "131805.781000",
      "TransmitCoilName": "Body",
      "VariableFlipAngleFlag": "N",
      "WindowCenterWidthExplanation": "Algo1",
      "dBdt": 0.0},
    "slices": {}
  },
  "time": {
    "samples": {
      "AcquisitionNumber": [1, 2, 3, 4, 5, 6, 7, 8, 9, 10, 11, 12, 13, 14, 15, 16, 17, 18, 19, 20, 21, 22, 23, 24, 25, 26, 27, 28, 29, 30, 31, 32, 33, 34, 35, 36, 37, 38, 39, 40, 41, 42, 43, 44, 45, 46, 47, 48, 49, 50, 51, 52, 53, 54, 55, 56, 57, 58, 59, 60, 61, 62, 63, 64, 65, 66, 67, 68, 69, 70, 71, 72, 73, 74, 75, 76, 77, 78, 79, 80, 81, 82, 83, 84, 85, 86, 87, 88, 89, 90, 91, 92, 93, 94, 95, 96, 97, 98, 99, 100, 101, 102, 103, 104, 105, 106, 107, 108, 109, 110, 111, 112, 113, 114, 115, 116, 117, 118, 119, 120, 121, 122, 123, 124, 125, 126, 127, 128, 129, 130, 131, 132, 133, 134, 135, 136, 137, 138, 139, 140, 141, 142, 143, 144, 145, 146, 147, 148, 149, 150, 151, 152, 153, 154, 155, 156, 157, 158, 159, 160, 161, 162, 163, 164, 165, 166, 167, 168, 169, 170, 171, 172, 173, 174, 175, 176, 177, 178, 179, 180, 181, 182, 183, 184, 185, 186, 187, 188, 189, 190, 191, 192, 193, 194, 195, 196, 197, 198, 199, 200, 201, 202, 203, 204, 205, 206, 207, 208, 209, 210, 211, 212, 213, 214, 215, 216, 217, 218, 219, 220, 221, 222, 223, 224, 225, 226, 227, 228, 229, 230, 231, 232, 233, 234, 235, 236, 237, 238, 239, 240, 241, 242, 243, 244, 245, 246, 247, 248, 249, 250, 251, 252, 253, 254, 255, 256, 257, 258, 259, 260, 261, 262, 263, 264, 265, 266, 267, 268, 269, 270, 271, 272, 273, 274, 275, 276, 277, 278, 279, 280, 281, 282, 283, 284, 285, 286, 287, 288, 289, 290, 291, 292, 293, 294, 295, 296, 297, 298, 299, 300, 301, 302, 303, 304, 305, 306, 307, 308, 309, 310, 311, 312, 313, 314, 315, 316, 317, 318, 319, 320, 321, 322, 323, 324, 325, 326, 327, 328, 329, 330, 331, 332, 333, 334, 335, 336, 337, 338, 339, 340, 341, 342, 343, 344, 345, 346, 347, 348, 349, 350, 351, 352, 353, 354, 355, 356, 357, 358, 359, 360, 361, 362, 363, 364, 365, 366, 367, 368, 369, 370, 371, 372, 373, 374, 375, 376, 377, 378, 379, 380, 381, 382, 383, 384, 385, 386, 387, 388, 389, 390, 391, 392, 393, 394, 395, 396, 397, 398, 399, 400, 401, 402, 403, 404, 405, 406, 407, 408, 409, 410, 411, 412, 413, 414, 415, 416, 417, 418, 419, 420, 421, 422, 423, 424, 425, 426, 427, 428, 429, 430, 431, 432, 433, 434, 435, 436, 437, 438, 439, 440, 441, 442, 443, 444, 445, 446, 447, 448, 449, 450, 451, 452, 453, 454, 455, 456, 457, 458, 459, 460, 461, 462, 463, 464, 465, 466, 467, 468, 469, 470, 471, 472, 473, 474, 475, 476, 477, 478, 479, 480, 481, 482, 483, 484, 485, 486, 487, 488, 489, 490, 491, 492, 493, 494, 495, 496, 497, 498, 499, 500, 501, 502, 503, 504, 505, 506, 507, 508, 509, 510, 511, 512, 513, 514, 515, 516, 517, 518, 519, 520, 521, 522, 523, 524, 525, 526, 527, 528, 529, 530, 531, 532, 533, 534, 535, 536, 537, 538, 539, 540, 541, 542, 543, 544, 545, 546, 547, 548, 549, 550, 551, 552, 553, 554, 555, 556, 557, 558, 559, 560, 561, 562, 563, 564, 565, 566, 567, 568, 569, 570, 571, 572, 573, 574, 575, 576, 577, 578, 579, 580, 581],
      "AcquisitionTime": ["144223.707500", "144224.495000", "144225.282500", "144226.072500", "144226.860000", "144227.647500", "144228.435000", "144229.225000", "144230.012500", "144230.800000", "144231.587500", "144232.377500", "144233.165000", "144233.952500", "144234.740000", "144235.530000", "144236.317500", "144237.105000", "144237.892500", "144238.682500", "144239.470000", "144240.257500", "144241.045000", "144241.835000", "144242.622500", "144243.410000", "144244.200000", "144244.987500", "144245.775000", "144246.562500", "144247.352500", "144248.140000", "144248.927500", "144249.715000", "144250.505000", "144251.292500", "144252.080000", "144252.867500", "144253.657500", "144254.445000", "144255.232500", "144256.020000", "144256.810000", "144257.597500", "144258.385000", "144259.172500", "144259.962500", "144300.750000", "144301.537500", "144302.327500", "144303.115000", "144303.902500", "144304.690000", "144305.480000", "144306.267500", "144307.055000", "144307.842500", "144308.632500", "144309.420000", "144310.207500", "144310.995000", "144311.785000", "144312.572500", "144313.360000", "144314.147500", "144314.937500", "144315.725000", "144316.512500", "144317.300000", "144318.090000", "144318.877500", "144319.665000", "144320.455000", "144321.242500", "144322.030000", "144322.817500", "144323.607500", "144324.395000", "144325.182500", "144325.970000", "144326.760000", "144327.547500", "144328.335000", "144329.122500", "144329.912500", "144330.700000", "144331.487500", "144332.275000", "144333.065000", "144333.852500", "144334.640000", "144335.427500", "144336.217500", "144337.005000", "144337.792500", "144338.582500", "144339.370000", "144340.157500", "144340.945000", "144341.735000", "144342.522500", "144343.310000", "144344.097500", "144344.887500", "144345.675000", "144346.462500", "144347.250000", "144348.040000", "144348.827500", "144349.615000", "144350.402500", "144351.192500", "144351.980000", "144352.767500", "144353.555000", "144354.345000", "144355.132500", "144355.920000", "144356.710000", "144357.497500", "144358.285000", "144359.072500", "144359.862500", "144400.650000", "144401.437500", "144402.225000", "144403.015000", "144403.802500", "144404.590000", "144405.377500", "144406.167500", "144406.955000", "144407.742500", "144408.530000", "144409.320000", "144410.107500", "144410.895000", "144411.682500", "144412.472500", "144413.260000", "144414.047500", "144414.837500", "144415.625000", "144416.412500", "144417.200000", "144417.990000", "144418.777500", "144419.565000", "144420.352500", "144421.142500", "144421.930000", "144422.717500", "144423.505000", "144424.295000", "144425.082500", "144425.870000", "144426.657500", "144427.447500", "144428.235000", "144429.022500", "144429.812500", "144430.600000", "144431.387500", "144432.175000", "144432.965000", "144433.752500", "144434.540000", "144435.327500", "144436.117500", "144436.905000", "144437.692500", "144438.480000", "144439.270000", "144440.057500", "144440.845000", "144441.632500", "144442.422500", "144443.210000", "144443.997500", "144444.785000", "144445.575000", "144446.362500", "144447.150000", "144447.940000", "144448.727500", "144449.515000", "144450.302500", "144451.092500", "144451.880000", "144452.667500", "144453.455000", "144454.245000", "144455.032500", "144455.820000", "144456.607500", "144457.397500", "144458.185000", "144458.972500", "144459.760000", "144500.550000", "144501.337500", "144502.125000", "144502.912500", "144503.702500", "144504.490000", "144505.277500", "144506.067500", "144506.855000", "144507.642500", "144508.430000", "144509.220000", "144510.007500", "144510.795000", "144511.582500", "144512.372500", "144513.160000", "144513.947500", "144514.735000", "144515.525000", "144516.312500", "144517.100000", "144517.887500", "144518.677500", "144519.465000", "144520.252500", "144521.040000", "144521.830000", "144522.617500", "144523.405000", "144524.195000", "144524.982500", "144525.770000", "144526.557500", "144527.347500", "144528.135000", "144528.922500", "144529.710000", "144530.500000", "144531.287500", "144532.075000", "144532.862500", "144533.652500", "144534.440000", "144535.227500", "144536.015000", "144536.805000", "144537.592500", "144538.380000", "144539.167500", "144539.957500", "144540.745000", "144541.532500", "144542.322500", "144543.110000", "144543.897500", "144544.685000", "144545.475000", "144546.262500", "144547.050000", "144547.837500", "144548.627500", "144549.415000", "144550.202500", "144550.990000", "144551.780000", "144552.567500", "144553.355000", "144554.142500", "144554.932500", "144555.720000", "144556.507500", "144557.295000", "144558.085000", "144558.872500", "144559.660000", "144600.450000", "144601.237500", "144602.025000", "144602.812500", "144603.602500", "144604.390000", "144605.177500", "144605.965000", "144606.755000", "144607.542500", "144608.330000", "144609.117500", "144609.907500", "144610.695000", "144611.482500", "144612.270000", "144613.060000", "144613.847500", "144614.635000", "144615.422500", "144616.212500", "144617.000000", "144617.787500", "144618.577500", "144619.365000", "144620.152500", "144620.940000", "144621.730000", "144622.517500", "144623.305000", "144624.092500", "144624.882500", "144625.670000", "144626.457500", "144627.245000", "144628.035000", "144628.822500", "144629.610000", "144630.397500", "144631.187500", "144631.975000", "144632.762500", "144633.550000", "144634.340000", "144635.127500", "144635.915000", "144636.705000", "144637.492500", "144638.280000", "144639.067500", "144639.857500", "144640.645000", "144641.432500", "144642.220000", "144643.010000", "144643.797500", "144644.585000", "144645.372500", "144646.162500", "144646.950000", "144647.737500", "144648.525000", "144649.315000", "144650.102500", "144650.890000", "144651.677500", "144652.467500", "144653.255000", "144654.042500", "144654.832500", "144655.620000", "144656.407500", "144657.195000", "144657.985000", "144658.772500", "144659.560000", "144700.347500", "144701.137500", "144701.925000", "144702.712500", "144703.500000", "144704.290000", "144705.077500", "144705.865000", "144706.652500", "144707.442500", "144708.230000", "144709.017500", "144709.805000", "144710.595000", "144711.382500", "144712.170000", "144712.960000", "144713.747500", "144714.535000", "144715.322500", "144716.112500", "144716.900000", "144717.687500", "144718.475000", "144719.265000", "144720.052500", "144720.840000", "144721.627500", "144722.417500", "144723.205000", "144723.992500", "144724.780000", "144725.570000", "144726.357500", "144727.145000", "144727.932500", "144728.722500", "144729.510000", "144730.297500", "144731.087500", "144731.875000", "144732.662500", "144733.450000", "144734.240000", "144735.027500", "144735.815000", "144736.602500", "144737.392500", "144738.180000", "144738.967500", "144739.755000", "144740.545000", "144741.332500", "144742.120000", "144742.907500", "144743.697500", "144744.485000", "144745.272500", "144746.062500", "144746.850000", "144747.637500", "144748.425000", "144749.215000", "144750.002500", "144750.790000", "144751.577500", "144752.367500", "144753.155000", "144753.942500", "144754.730000", "144755.520000", "144756.307500", "144757.095000", "144757.882500", "144758.672500", "144759.460000", "144800.247500", "144801.035000", "144801.825000", "144802.612500", "144803.400000", "144804.190000", "144804.977500", "144805.765000", "144806.552500", "144807.342500", "144808.130000", "144808.917500", "144809.705000", "144810.495000", "144811.282500", "144812.070000", "144812.857500", "144813.647500", "144814.435000", "144815.222500", "144816.010000", "144816.800000", "144817.587500", "144818.375000", "144819.162500", "144819.952500", "144820.740000", "144821.527500", "144822.317500", "144823.105000", "144823.892500", "144824.680000", "144825.470000", "144826.257500", "144827.045000", "144827.832500", "144828.622500", "144829.410000", "144830.197500", "144830.985000", "144831.775000", "144832.562500", "144833.350000", "144834.137500", "144834.927500", "144835.715000", "144836.502500", "144837.290000", "144838.080000", "144838.867500", "144839.655000", "144840.445000", "144841.232500", "144842.020000", "144842.807500", "144843.597500", "144844.385000", "144845.172500", "144845.960000", "144846.750000", "144847.537500", "144848.325000", "144849.112500", "144849.902500", "144850.690000", "144851.477500", "144852.265000", "144853.055000", "144853.842500", "144854.630000", "144855.417500", "144856.207500", "144856.995000", "144857.782500", "144858.572500", "144859.360000", "144900.147500", "144900.935000", "144901.725000", "144902.512500", "144903.300000", "144904.087500", "144904.877500", "144905.665000", "144906.452500", "144907.240000", "144908.030000", "144908.817500", "144909.605000", "144910.392500", "144911.182500", "144911.970000", "144912.757500", "144913.545000", "144914.335000", "144915.122500", "144915.910000", "144916.700000", "144917.487500", "144918.275000", "144919.062500", "144919.852500", "144920.640000", "144921.427500", "144922.215000", "144923.005000", "144923.792500", "144924.580000", "144925.367500", "144926.157500", "144926.945000", "144927.732500", "144928.520000", "144929.310000", "144930.097500", "144930.885000", "144931.672500", "144932.462500", "144933.250000", "144934.037500", "144934.827500", "144935.615000", "144936.402500", "144937.190000", "144937.980000", "144938.767500", "144939.555000", "144940.342500", "144941.132500", "144941.920000", "144942.707500", "144943.495000", "144944.285000", "144945.072500", "144945.860000", "144946.647500", "144947.437500", "144948.225000", "144949.012500", "144949.800000", "144950.590000", "144951.377500", "144952.165000", "144952.955000", "144953.742500", "144954.530000", "144955.317500", "144956.107500", "144956.895000", "144957.682500", "144958.470000", "144959.260000", "145000.047500", "145000.835000"],
      "ContentTime": ["144236.000000", "144236.000000", "144236.000000", "144236.000000", "144236.000000", "144236.000000", "144236.000000", "144236.000000", "144236.015000", "144236.015000", "144236.015000", "144236.015000", "144255.968000", "144255.984000", "144255.984000", "144255.984000", "144255.984000", "144255.984000", "144255.984000", "144255.984000", "144255.984000", "144256.000000", "144256.000000", "144256.000000", "144256.000000", "144256.000000", "144256.000000", "144256.000000", "144256.000000", "144256.015000", "144256.015000", "144256.015000", "144256.015000", "144256.015000", "144256.031000", "144256.031000", "144256.031000", "144256.031000", "144315.968000", "144315.984000", "144315.984000", "144315.984000", "144315.984000", "144315.984000", "144315.984000", "144315.984000", "144315.984000", "144316.000000", "144316.000000", "144316.000000", "144316.000000", "144316.000000", "144316.000000", "144316.000000", "144316.015000", "144316.015000", "144316.015000", "144316.015000", "144316.015000", "144316.015000", "144316.015000", "144316.015000", "144316.031000", "144335.968000", "144335.984000", "144335.984000", "144335.984000", "144335.984000", "144335.984000", "144335.984000", "144335.984000", "144335.984000", "144336.000000", "144336.000000", "144336.000000", "144336.000000", "144336.000000", "144336.000000", "144336.000000", "144336.000000", "144336.015000", "144336.015000", "144336.015000", "144336.015000", "144336.015000", "144336.015000", "144336.015000", "144336.031000", "144336.031000", "144355.968000", "144355.984000", "144355.984000", "144355.984000", "144355.984000", "144355.984000", "144355.984000", "144355.984000", "144355.984000", "144356.000000", "144356.000000", "144356.000000", "144356.000000", "144356.000000", "144356.000000", "144356.000000", "144356.000000", "144356.015000", "144356.015000", "144356.015000", "144356.015000", "144356.015000", "144356.031000", "144356.031000", "144356.031000", "144415.968000", "144415.984000", "144415.984000", "144415.984000", "144415.984000", "144415.984000", "144415.984000", "144415.984000", "144415.984000", "144416.000000", "144416.000000", "144416.000000", "144416.000000", "144416.000000", "144416.000000", "144416.000000", "144416.015000", "144416.015000", "144416.015000", "144416.015000", "144416.015000", "144416.015000", "144416.015000", "144416.015000", "144416.031000", "144416.031000", "144435.968000", "144435.984000", "144435.984000", "144435.984000", "144435.984000", "144435.984000", "144435.984000", "144435.984000", "144435.984000", "144436.000000", "144436.000000", "144436.000000", "144436.000000", "144436.000000", "144436.000000", "144436.000000", "144436.015000", "144436.015000", "144436.015000", "144436.015000", "144436.015000", "144436.015000", "144436.015000", "144436.015000", "144436.031000", "144455.968000", "144455.984000", "144455.984000", "144455.984000", "144455.984000", "144455.984000", "144455.984000", "144455.984000", "144455.984000", "144456.000000", "144456.000000", "144456.000000", "144456.000000", "144456.000000", "144456.000000", "144456.000000", "144456.015000", "144456.015000", "144456.015000", "144456.015000", "144456.015000", "144456.015000", "144456.015000", "144456.015000", "144456.031000", "144456.031000", "144515.968000", "144515.984000", "144515.984000", "144515.984000", "144515.984000", "144515.984000", "144516.000000", "144516.000000", "144516.000000", "144516.000000", "144516.000000", "144516.000000", "144516.000000", "144516.000000", "144516.015000", "144516.015000", "144516.015000", "144516.015000", "144516.015000", "144516.015000", "144516.015000", "144516.031000", "144516.031000", "144516.031000", "144516.031000", "144535.968000", "144535.984000", "144535.984000", "144535.984000", "144535.984000", "144535.984000", "144535.984000", "144535.984000", "144535.984000", "144536.000000", "144536.000000", "144536.000000", "144536.000000", "144536.000000", "144536.015000", "144536.015000", "144536.015000", "144536.015000", "144536.015000", "144536.015000", "144536.015000", "144536.015000", "144536.031000", "144536.031000", "144536.031000", "144536.031000", "144555.968000", "144555.984000", "144555.984000", "144555.984000", "144555.984000", "144555.984000", "144555.984000", "144555.984000", "144555.984000", "144556.000000", "144556.000000", "144556.000000", "144556.000000", "144556.000000", "144556.000000", "144556.000000", "144556.015000", "144556.015000", "144556.015000", "144556.015000", "144556.015000", "144556.015000", "144556.015000", "144556.015000", "144556.031000", "144615.968000", "144615.984000", "144615.984000", "144615.984000", "144615.984000", "144615.984000", "144615.984000", "144615.984000", "144616.000000", "144616.000000", "144616.000000", "144616.000000", "144616.000000", "144616.000000", "144616.000000", "144616.015000", "144616.015000", "144616.015000", "144616.015000", "144616.015000", "144616.015000", "144616.015000", "144616.015000", "144616.031000", "144616.031000", "144616.031000", "144635.968000", "144635.984000", "144635.984000", "144635.984000", "144635.984000", "144635.984000", "144635.984000", "144635.984000", "144635.984000", "144636.000000", "144636.000000", "144636.000000", "144636.000000", "144636.000000", "144636.000000", "144636.000000", "144636.015000", "144636.015000", "144636.015000", "144636.015000", "144636.015000", "144636.015000", "144636.031000", "144636.031000", "144636.031000", "144655.968000", "144655.984000", "144655.984000", "144655.984000", "144655.984000", "144655.984000", "144656.000000", "144656.000000", "144656.000000", "144656.000000", "144656.000000", "144656.000000", "144656.000000", "144656.000000", "144656.015000", "144656.015000", "144656.015000", "144656.015000", "144656.015000", "144656.031000", "144656.031000", "144656.031000", "144656.031000", "144656.031000", "144656.046000", "144656.046000", "144715.968000", "144715.984000", "144715.984000", "144715.984000", "144715.984000", "144715.984000", "144715.984000", "144715.984000", "144715.984000", "144716.000000", "144716.000000", "144716.000000", "144716.000000", "144716.000000", "144716.000000", "144716.015000", "144716.015000", "144716.015000", "144716.015000", "144716.015000", "144716.015000", "144716.015000", "144716.015000", "144716.031000", "144716.031000", "144735.968000", "144735.984000", "144735.984000", "144735.984000", "144735.984000", "144735.984000", "144735.984000", "144735.984000", "144735.984000", "144736.000000", "144736.000000", "144736.000000", "144736.000000", "144736.000000", "144736.000000", "144736.015000", "144736.015000", "144736.015000", "144736.015000", "144736.015000", "144736.015000", "144736.031000", "144736.031000", "144736.031000", "144736.031000", "144755.968000", "144755.984000", "144755.984000", "144755.984000", "144755.984000", "144755.984000", "144755.984000", "144755.984000", "144755.984000", "144756.000000", "144756.000000", "144756.000000", "144756.000000", "144756.000000", "144756.000000", "144756.000000", "144756.015000", "144756.015000", "144756.015000", "144756.015000", "144756.015000", "144756.015000", "144756.015000", "144756.031000", "144756.031000", "144756.031000", "144815.968000", "144815.984000", "144815.984000", "144815.984000", "144815.984000", "144815.984000", "144815.984000", "144815.984000", "144816.000000", "144816.000000", "144816.000000", "144816.000000", "144816.000000", "144816.000000", "144816.000000", "144816.000000", "144816.015000", "144816.015000", "144816.015000", "144816.015000", "144816.015000", "144816.015000", "144816.015000", "144816.031000", "144816.031000", "144835.968000", "144835.984000", "144835.984000", "144835.984000", "144835.984000", "144835.984000", "144835.984000", "144835.984000", "144835.984000", "144836.000000", "144836.000000", "144836.000000", "144836.000000", "144836.000000", "144836.000000", "144836.000000", "144836.015000", "144836.015000", "144836.015000", "144836.015000", "144836.015000", "144836.015000", "144836.015000", "144836.031000", "144836.031000", "144836.031000", "144855.968000", "144855.984000", "144855.984000", "144855.984000", "144855.984000", "144855.984000", "144855.984000", "144855.984000", "144855.984000", "144856.000000", "144856.000000", "144856.000000", "144856.000000", "144856.000000", "144856.000000", "144856.000000", "144856.015000", "144856.015000", "144856.015000", "144856.015000", "144856.015000", "144856.015000", "144856.015000", "144856.015000", "144856.031000", "144915.968000", "144915.984000", "144915.984000", "144915.984000", "144915.984000", "144915.984000", "144915.984000", "144915.984000", "144916.000000", "144916.000000", "144916.000000", "144916.000000", "144916.000000", "144916.000000", "144916.015000", "144916.015000", "144916.015000", "144916.015000", "144916.015000", "144916.015000", "144916.015000", "144916.015000", "144916.031000", "144916.031000", "144916.031000", "144916.031000", "144935.968000", "144935.984000", "144935.984000", "144935.984000", "144935.984000", "144935.984000", "144935.984000", "144935.984000", "144936.000000", "144936.000000", "144936.000000", "144936.000000", "144936.000000", "144936.000000", "144936.000000", "144936.015000", "144936.015000", "144936.015000", "144936.015000", "144936.015000", "144936.015000", "144936.015000", "144936.031000", "144936.031000", "144936.031000", "144955.968000", "144955.984000", "144955.984000", "144955.984000", "144955.984000", "144955.984000", "144955.984000", "144955.984000", "144955.984000", "144956.000000", "144956.000000", "144956.000000", "144956.000000", "144956.000000", "144956.000000", "144956.000000", "144956.015000", "144956.015000", "144956.015000", "144956.015000", "144956.015000", "144956.015000", "144956.031000", "144956.031000", "144956.031000", "144956.031000", "145002.000000", "145002.000000", "145002.000000", "145002.000000", "145002.000000", "145002.000000", "145002.015000", "145002.015000"],
