{
  "AcquisitionMatrixPE": 104,
  "AcquisitionNumber": 1,
  "AcquisitionTime": "14:50:22.722500",
  "BandwidthPerPixelPhaseEncode": 13.935,
  "BaseResolution": 104,
  "CoilString": "C:HEA;HEP",
  "ConversionSoftware": "dcm2niix",
  "ConversionSoftwareVersion": "v1.0.20210317",
  "DerivedVendorReportedEchoSpacing": 0.000690017,
  "DeviceSerialNumber": "35450",
  "DwellTime": 2.5e-06,
  "EchoTime": 0.0348,
  "EffectiveEchoSpacing": 0.000690017,
  "FlipAngle": 55,
  "ImageComments": "Unaliased MB8/PE3 (remote)",
  "ImageOrientationPatientDICOM": [0.999722, 0.00932383, 0.0216481, -6.79189e-09, 0.918436, -0.395569],
  "ImageType": [
    "ORIGINAL",
    "PRIMARY",
    "M",
    "MB",
    "ND",
    "MOSAIC"
],
  "ImagingFrequency": 123.235,
  "InPlanePhaseEncodingDirectionDICOM": "COL",
  "InstitutionAddress": "Univeristy Ave. 197,Newark,North East,US,07102-1814",
  "InstitutionName": "RUBIC",
  "InstitutionalDepartmentName": "Department",
  "MRAcquisitionType": "2D",
  "MagneticFieldStrength": 3,
  "Manufacturer": "Siemens",
  "ManufacturersModelName": "TrioTim",
  "Modality": "MR",
  "MultibandAccelerationFactor": 8,
  "PartialFourier": 0.875,
  "PatientPosition": "HFS",
  "PercentPhaseFOV": 100,
  "PercentSampling": 100,
  "PhaseEncodingDirection": "j-",
  "PhaseEncodingSteps": 91,
  "PhaseResolution": 1,
  "PixelBandwidth": 1923,
  "ProcedureStepDescription": "Cole^Michael",
  "ProtocolName": "cmrr_mbep2d_bold_2mm_MB8_Task_8x",
  "PulseSequenceDetails": "%CustomerSeq%\\cmrr_mbep2d_bold",
  "ReceiveCoilName": "32Ch_Head",
  "ReconMatrixPE": 104,
  "RepetitionTime": 0.785,
  "SAR": 0.123727,
  "ScanOptions": "PFP\\FS",
  "ScanningSequence": "EP",
  "SequenceName": "epfid2d1_104",
  "SequenceVariant": "SK\\SS",
  "SeriesDescription": "cmrr_mbep2d_bold_2mm_MB8_Task_8x",
  "SeriesNumber": 19,
  "ShimSetting": [2138, -300, -7257, 491, -126, -497, -3, 3],
  "SliceThickness": 2,
  "SliceTiming": [0, 0.4375, 0.0875, 0.525, 0.175, 0.615, 0.2625, 0.7025, 0.35, 0, 0.4375, 0.0875, 0.525, 0.175, 0.615, 0.2625, 0.7025, 0.35, 0, 0.4375, 0.0875, 0.525, 0.175, 0.615, 0.2625, 0.7025, 0.35, 0, 0.4375, 0.0875, 0.525, 0.175, 0.615, 0.2625, 0.7025, 0.35, 0, 0.4375, 0.0875, 0.525, 0.175, 0.615, 0.2625, 0.7025, 0.35, 0, 0.4375, 0.0875, 0.525, 0.175, 0.615, 0.2625, 0.7025, 0.35, 0, 0.4375, 0.0875, 0.525, 0.175, 0.615, 0.2625, 0.7025, 0.35, 0, 0.4375, 0.0875, 0.525, 0.175, 0.615, 0.2625, 0.7025, 0.35],
  "SoftwareVersions": "syngo MR B19",
  "SpacingBetweenSlices": 2,
  "StationName": "MRC35450",
  "TaskName": "cpro",
  "TotalReadoutTime": 0.0710717,
  "TxRefAmp": 330.704,
  "dcmmeta_affine": [
    [-1.9994443655014038, -1.3583782099146902e-08, 0.04714132100343704, 103.60768127441406],
    [-0.018647652119398117, 1.8368725776672363, -0.7909179925918579, -56.409793853759766],
    [0.043296296149492264, 0.7911378145217896, 1.8363622426986694, -146.95257568359375],
    [0.0, 0.0, 0.0, 1.0]
],
  "dcmmeta_reorient_transform": [
    [0.0, -1.0, 0.0, 103.0],
    [1.0, 0.0, 0.0, 0.0],
    [0.0, 0.0, 1.0, 0.0],
    [0.0, 0.0, 0.0, 1.0]
],
  "dcmmeta_shape": [104, 104, 72, 581],
  "dcmmeta_slice_dim": 2,
  "dcmmeta_version": 0.6,
  "global": {
    "const": {
      "AcquisitionMatrix": [104, 0, 0, 104],
      "AngioFlag": "N",
      "BitsAllocated": 16,
      "BitsStored": 12,
      "Columns": 936,
      "EchoNumbers": 1,
      "EchoTime": 34.8,
      "EchoTrainLength": 1,
      "FlipAngle": 55.0,
      "HighBit": 11,
      "ImageOrientationPatient": [0.99972217338402, 0.00932382652313, 0.02164814780285, -6.791891e-09, 0.91843630493256, -0.3955688989062],
      "ImagePositionPatient": [-935.37652270521, -904.68451606254, 245.63668124803],
      "ImageType": [
        "ORIGINAL",
        "PRIMARY",
        "M",
        "MB",
        "ND",
        "MOSAIC"
],
      "ImagedNucleus": "1H",
      "ImagingFrequency": 123.234506,
      "InPlanePhaseEncodingDirection": "COL",
      "MRAcquisitionType": "2D",
      "MagneticFieldStrength": 3.0,
      "Manufacturer": "SIEMENS",
      "ManufacturerModelName": "TrioTim",
      "Modality": "MR",
      "NumberOfAverages": 1.0,
      "NumberOfPhaseEncodingSteps": 91,
      "PercentPhaseFieldOfView": 100.0,
      "PercentSampling": 100.0,
      "PerformedProcedureStepStartTime": "131805.812000",
      "PhotometricInterpretation": "MONOCHROME2",
      "PixelBandwidth": 1923.0,
      "PixelRepresentation": 0,
      "PixelSpacing": [2.0, 2.0],
      "ProtocolName": "cmrr_mbep2d_bold_2mm_MB8_Task_8x",
      "RepetitionTime": 785.0,
      "Rows": 936,
      "SAR": 0.12372655592324,
      "SamplesPerPixel": 1,
      "ScanOptions": [
        "PFP",
        "FS"
],
      "ScanningSequence": "EP",
      "SequenceName": "epfid2d1_104",
      "SequenceVariant": [
        "SK",
        "SS"
],
      "SeriesDescription": "cmrr_mbep2d_bold_2mm_MB8_Task_8x",
      "SeriesNumber": 19,
      "SeriesTime": "145100.187000",
      "SliceLocation": -110.1792229367,
      "SliceThickness": 2.0,
      "SmallestImagePixelValue": 0,
      "SoftwareVersions": "syngo MR B19",
      "SpacingBetweenSlices": 1.999999962605,
      "SpecificCharacterSet": "ISO_IR 100",
      "StudyID": "1",
      "StudyTime": "131805.781000",
      "TransmitCoilName": "Body",
      "VariableFlipAngleFlag": "N",
      "WindowCenterWidthExplanation": "Algo1",
      "dBdt": 0.0},
    "slices": {}
  },
  "time": {
    "samples": {
      "AcquisitionNumber": [1, 2, 3, 4, 5, 6, 7, 8, 9, 10, 11, 12, 13, 14, 15, 16, 17, 18, 19, 20, 21, 22, 23, 24, 25, 26, 27, 28, 29, 30, 31, 32, 33, 34, 35, 36, 37, 38, 39, 40, 41, 42, 43, 44, 45, 46, 47, 48, 49, 50, 51, 52, 53, 54, 55, 56, 57, 58, 59, 60, 61, 62, 63, 64, 65, 66, 67, 68, 69, 70, 71, 72, 73, 74, 75, 76, 77, 78, 79, 80, 81, 82, 83, 84, 85, 86, 87, 88, 89, 90, 91, 92, 93, 94, 95, 96, 97, 98, 99, 100, 101, 102, 103, 104, 105, 106, 107, 108, 109, 110, 111, 112, 113, 114, 115, 116, 117, 118, 119, 120, 121, 122, 123, 124, 125, 126, 127, 128, 129, 130, 131, 132, 133, 134, 135, 136, 137, 138, 139, 140, 141, 142, 143, 144, 145, 146, 147, 148, 149, 150, 151, 152, 153, 154, 155, 156, 157, 158, 159, 160, 161, 162, 163, 164, 165, 166, 167, 168, 169, 170, 171, 172, 173, 174, 175, 176, 177, 178, 179, 180, 181, 182, 183, 184, 185, 186, 187, 188, 189, 190, 191, 192, 193, 194, 195, 196, 197, 198, 199, 200, 201, 202, 203, 204, 205, 206, 207, 208, 209, 210, 211, 212, 213, 214, 215, 216, 217, 218, 219, 220, 221, 222, 223, 224, 225, 226, 227, 228, 229, 230, 231, 232, 233, 234, 235, 236, 237, 238, 239, 240, 241, 242, 243, 244, 245, 246, 247, 248, 249, 250, 251, 252, 253, 254, 255, 256, 257, 258, 259, 260, 261, 262, 263, 264, 265, 266, 267, 268, 269, 270, 271, 272, 273, 274, 275, 276, 277, 278, 279, 280, 281, 282, 283, 284, 285, 286, 287, 288, 289, 290, 291, 292, 293, 294, 295, 296, 297, 298, 299, 300, 301, 302, 303, 304, 305, 306, 307, 308, 309, 310, 311, 312, 313, 314, 315, 316, 317, 318, 319, 320, 321, 322, 323, 324, 325, 326, 327, 328, 329, 330, 331, 332, 333, 334, 335, 336, 337, 338, 339, 340, 341, 342, 343, 344, 345, 346, 347, 348, 349, 350, 351, 352, 353, 354, 355, 356, 357, 358, 359, 360, 361, 362, 363, 364, 365, 366, 367, 368, 369, 370, 371, 372, 373, 374, 375, 376, 377, 378, 379, 380, 381, 382, 383, 384, 385, 386, 387, 388, 389, 390, 391, 392, 393, 394, 395, 396, 397, 398, 399, 400, 401, 402, 403, 404, 405, 406, 407, 408, 409, 410, 411, 412, 413, 414, 415, 416, 417, 418, 419, 420, 421, 422, 423, 424, 425, 426, 427, 428, 429, 430, 431, 432, 433, 434, 435, 436, 437, 438, 439, 440, 441, 442, 443, 444, 445, 446, 447, 448, 449, 450, 451, 452, 453, 454, 455, 456, 457, 458, 459, 460, 461, 462, 463, 464, 465, 466, 467, 468, 469, 470, 471, 472, 473, 474, 475, 476, 477, 478, 479, 480, 481, 482, 483, 484, 485, 486, 487, 488, 489, 490, 491, 492, 493, 494, 495, 496, 497, 498, 499, 500, 501, 502, 503, 504, 505, 506, 507, 508, 509, 510, 511, 512, 513, 514, 515, 516, 517, 518, 519, 520, 521, 522, 523, 524, 525, 526, 527, 528, 529, 530, 531, 532, 533, 534, 535, 536, 537, 538, 539, 540, 541, 542, 543, 544, 545, 546, 547, 548, 549, 550, 551, 552, 553, 554, 555, 556, 557, 558, 559, 560, 561, 562, 563, 564, 565, 566, 567, 568, 569, 570, 571, 572, 573, 574, 575, 576, 577, 578, 579, 580, 581],
      "AcquisitionTime": ["145022.722500", "145023.512500", "145024.300000", "145025.087500", "145025.875000", "145026.665000", "145027.452500", "145028.240000", "145029.030000", "145029.817500", "145030.605000", "145031.392500", "145032.182500", "145032.970000", "145033.757500", "145034.545000", "145035.335000", "145036.122500", "145036.910000", "145037.697500", "145038.487500", "145039.275000", "145040.062500", "145040.850000", "145041.640000", "145042.427500", "145043.215000", "145044.002500", "145044.792500", "145045.580000", "145046.367500", "145047.157500", "145047.945000", "145048.732500", "145049.520000", "145050.310000", "145051.097500", "145051.885000", "145052.672500", "145053.462500", "145054.250000", "145055.037500", "145055.825000", "145056.615000", "145057.402500", "145058.190000", "145058.977500", "145059.767500", "145100.555000", "145101.342500", "145102.130000", "145102.920000", "145103.707500", "145104.495000", "145105.285000", "145106.072500", "145106.860000", "145107.647500", "145108.437500", "145109.225000", "145110.012500", "145110.800000", "145111.590000", "145112.377500", "145113.165000", "145113.952500", "145114.742500", "145115.530000", "145116.317500", "145117.105000", "145117.895000", "145118.682500", "145119.470000", "145120.257500", "145121.047500", "145121.835000", "145122.622500", "145123.412500", "145124.200000", "145124.987500", "145125.775000", "145126.565000", "145127.352500", "145128.140000", "145128.927500", "145129.717500", "145130.505000", "145131.292500", "145132.080000", "145132.870000", "145133.657500", "145134.445000", "145135.232500", "145136.022500", "145136.810000", "145137.597500", "145138.385000", "145139.175000", "145139.962500", "145140.750000", "145141.540000", "145142.327500", "145143.115000", "145143.902500", "145144.692500", "145145.480000", "145146.267500", "145147.055000", "145147.845000", "145148.632500", "145149.420000", "145150.207500", "145150.997500", "145151.785000", "145152.572500", "145153.360000", "145154.150000", "145154.937500", "145155.725000", "145156.512500", "145157.302500", "145158.090000", "145158.877500", "145159.667500", "145200.455000", "145201.242500", "145202.030000", "145202.820000", "145203.607500", "145204.395000", "145205.182500", "145205.972500", "145206.760000", "145207.547500", "145208.335000", "145209.125000", "145209.912500", "145210.700000", "145211.487500", "145212.277500", "145213.065000", "145213.852500", "145214.640000", "145215.430000", "145216.217500", "145217.005000", "145217.795000", "145218.582500", "145219.370000", "145220.157500", "145220.947500", "145221.735000", "145222.522500", "145223.310000", "145224.100000", "145224.887500", "145225.675000", "145226.462500", "145227.252500", "145228.040000", "145228.827500", "145229.615000", "145230.405000", "145231.192500", "145231.980000", "145232.767500", "145233.557500", "145234.345000", "145235.132500", "145235.922500", "145236.710000", "145237.497500", "145238.285000", "145239.075000", "145239.862500", "145240.650000", "145241.437500", "145242.227500", "145243.015000", "145243.802500", "145244.590000", "145245.380000", "145246.167500", "145246.955000", "145247.742500", "145248.532500", "145249.320000", "145250.107500", "145250.897500", "145251.685000", "145252.472500", "145253.260000", "145254.050000", "145254.837500", "145255.625000", "145256.412500", "145257.202500", "145257.990000", "145258.777500", "145259.565000", "145300.355000", "145301.142500", "145301.930000", "145302.717500", "145303.507500", "145304.295000", "145305.082500", "145305.870000", "145306.660000", "145307.447500", "145308.235000", "145309.025000", "145309.812500", "145310.600000", "145311.387500", "145312.177500", "145312.965000", "145313.752500", "145314.540000", "145315.330000", "145316.117500", "145316.905000", "145317.692500", "145318.482500", "145319.270000", "145320.057500", "145320.845000", "145321.635000", "145322.422500", "145323.210000", "145323.997500", "145324.787500", "145325.575000", "145326.362500", "145327.152500", "145327.940000", "145328.727500", "145329.515000", "145330.305000", "145331.092500", "145331.880000", "145332.667500", "145333.457500", "145334.245000", "145335.032500", "145335.820000", "145336.610000", "145337.397500", "145338.185000", "145338.972500", "145339.762500", "145340.550000", "145341.337500", "145342.125000", "145342.915000", "145343.702500", "145344.490000", "145345.280000", "145346.067500", "145346.855000", "145347.642500", "145348.432500", "145349.220000", "145350.007500", "145350.795000", "145351.585000", "145352.372500", "145353.160000", "145353.947500", "145354.737500", "145355.525000", "145356.312500", "145357.100000", "145357.890000", "145358.677500", "145359.465000", "145400.252500", "145401.042500", "145401.830000", "145402.617500", "145403.407500", "145404.195000", "145404.982500", "145405.770000", "145406.560000", "145407.347500", "145408.135000", "145408.922500", "145409.712500", "145410.500000", "145411.287500", "145412.075000", "145412.865000", "145413.652500", "145414.440000", "145415.227500", "145416.017500", "145416.805000", "145417.592500", "145418.380000", "145419.170000", "145419.957500", "145420.745000", "145421.535000", "145422.322500", "145423.110000", "145423.897500", "145424.687500", "145425.475000", "145426.262500", "145427.050000", "145427.840000", "145428.627500", "145429.415000", "145430.202500", "145430.992500", "145431.780000", "145432.567500", "145433.355000", "145434.145000", "145434.932500", "145435.720000", "145436.507500", "145437.297500", "145438.085000", "145438.872500", "145439.662500", "145440.450000", "145441.237500", "145442.025000", "145442.815000", "145443.602500", "145444.390000", "145445.177500", "145445.967500", "145446.755000", "145447.542500", "145448.330000", "145449.120000", "145449.907500", "145450.695000", "145451.482500", "145452.272500", "145453.060000", "145453.847500", "145454.635000", "145455.425000", "145456.212500", "145457.000000", "145457.790000", "145458.577500", "145459.365000", "145500.152500", "145500.942500", "145501.730000", "145502.517500", "145503.305000", "145504.095000", "145504.882500", "145505.670000", "145506.457500", "145507.247500", "145508.035000", "145508.822500", "145509.610000", "145510.400000", "145511.187500", "145511.975000", "145512.762500", "145513.552500", "145514.340000", "145515.127500", "145515.917500", "145516.705000", "145517.492500", "145518.280000", "145519.070000", "145519.857500", "145520.645000", "145521.432500", "145522.222500", "145523.010000", "145523.797500", "145524.585000", "145525.375000", "145526.162500", "145526.950000", "145527.737500", "145528.527500", "145529.315000", "145530.102500", "145530.890000", "145531.680000", "145532.467500", "145533.255000", "145534.045000", "145534.832500", "145535.620000", "145536.407500", "145537.197500", "145537.985000", "145538.772500", "145539.560000", "145540.350000", "145541.137500", "145541.925000", "145542.712500", "145543.502500", "145544.290000", "145545.077500", "145545.865000", "145546.655000", "145547.442500", "145548.230000", "145549.017500", "145549.807500", "145550.595000", "145551.382500", "145552.172500", "145552.960000", "145553.747500", "145554.535000", "145555.325000", "145556.112500", "145556.900000", "145557.687500", "145558.477500", "145559.265000", "145600.052500", "145600.840000", "145601.630000", "145602.417500", "145603.205000", "145603.992500", "145604.782500", "145605.570000", "145606.357500", "145607.147500", "145607.935000", "145608.722500", "145609.510000", "145610.300000", "145611.087500", "145611.875000", "145612.662500", "145613.452500", "145614.240000", "145615.027500", "145615.815000", "145616.605000", "145617.392500", "145618.180000", "145618.967500", "145619.757500", "145620.545000", "145621.332500", "145622.120000", "145622.910000", "145623.697500", "145624.485000", "145625.275000", "145626.062500", "145626.850000", "145627.637500", "145628.427500", "145629.215000", "145630.002500", "145630.790000", "145631.580000", "145632.367500", "145633.155000", "145633.942500", "145634.732500", "145635.520000", "145636.307500", "145637.095000", "145637.885000", "145638.672500", "145639.460000", "145640.247500", "145641.037500", "145641.825000", "145642.612500", "145643.402500", "145644.190000", "145644.977500", "145645.765000", "145646.555000", "145647.342500", "145648.130000", "145648.917500", "145649.707500", "145650.495000", "145651.282500", "145652.070000", "145652.860000", "145653.647500", "145654.435000", "145655.222500", "145656.012500", "145656.800000", "145657.587500", "145658.375000", "145659.165000", "145659.952500", "145700.740000", "145701.530000", "145702.317500", "145703.105000", "145703.892500", "145704.682500", "145705.470000", "145706.257500", "145707.045000", "145707.835000", "145708.622500", "145709.410000", "145710.197500", "145710.987500", "145711.775000", "145712.562500", "145713.350000", "145714.140000", "145714.927500", "145715.715000", "145716.502500", "145717.292500", "145718.080000", "145718.867500", "145719.657500", "145720.445000", "145721.232500", "145722.020000", "145722.810000", "145723.597500", "145724.385000", "145725.172500", "145725.962500", "145726.750000", "145727.537500", "145728.325000", "145729.115000", "145729.902500", "145730.690000", "145731.477500", "145732.267500", "145733.055000", "145733.842500", "145734.630000", "145735.420000", "145736.207500", "145736.995000", "145737.785000", "145738.572500", "145739.360000", "145740.147500", "145740.937500", "145741.725000", "145742.512500", "145743.300000", "145744.090000", "145744.877500", "145745.665000", "145746.452500", "145747.242500", "145748.030000", "145748.817500", "145749.605000", "145750.395000", "145751.182500", "145751.970000", "145752.757500", "145753.547500", "145754.335000", "145755.122500", "145755.912500", "145756.700000", "145757.487500", "145758.275000", "145759.065000", "145759.852500"],
      "ContentTime": ["145100.187000", "145100.187000", "145100.187000", "145100.187000", "145100.187000", "145100.203000", "145100.203000", "145100.203000", "145100.203000", "145100.203000", "145100.203000", "145100.203000", "145100.203000", "145100.218000", "145100.218000", "145100.218000", "145100.218000", "145100.218000", "145100.218000", "145100.218000", "145100.234000", "145100.234000", "145100.234000", "145100.234000", "145100.234000", "145100.234000", "145100.250000", "145100.250000", "145100.250000", "145100.250000", "145100.250000", "145100.250000", "145100.250000", "145100.265000", "145100.265000", "145100.265000", "145100.265000", "145100.265000", "145100.265000", "145100.265000", "145100.281000", "145100.281000", "145100.281000", "145100.281000", "145120.156000", "145120.171000", "145120.171000", "145120.171000", "145120.171000", "145120.171000", "145120.171000", "145120.171000", "145120.171000", "145120.187000", "145120.187000", "145120.187000", "145120.187000", "145120.187000", "145120.187000", "145120.203000", "145120.203000", "145120.203000", "145120.203000", "145120.203000", "145120.203000", "145120.218000", "145120.218000", "145120.218000", "145120.218000", "145140.156000", "145140.171000", "145140.171000", "145140.171000", "145140.171000", "145140.171000", "145140.171000", "145140.171000", "145140.171000", "145140.187000", "145140.187000", "145140.187000", "145140.187000", "145140.187000", "145140.187000", "145140.187000", "145140.203000", "145140.203000", "145140.203000", "145140.203000", "145140.203000", "145140.203000", "145140.203000", "145140.203000", "145140.218000", "145140.218000", "145200.156000", "145200.171000", "145200.171000", "145200.171000", "145200.171000", "145200.171000", "145200.171000", "145200.171000", "145200.171000", "145200.187000", "145200.187000", "145200.187000", "145200.187000", "145200.187000", "145200.187000", "145200.187000", "145200.187000", "145200.203000", "145200.203000", "145200.203000", "145200.203000", "145200.203000", "145200.203000", "145200.203000", "145200.203000", "145220.156000", "145220.171000", "145220.171000", "145220.171000", "145220.171000", "145220.171000", "145220.171000", "145220.171000", "145220.171000", "145220.187000", "145220.187000", "145220.187000", "145220.187000", "145220.187000", "145220.187000", "145220.187000", "145220.187000", "145220.203000", "145220.203000", "145220.203000", "145220.203000", "145220.203000", "145220.203000", "145220.203000", "145220.203000", "145220.218000", "145240.156000", "145240.171000", "145240.171000", "145240.171000", "145240.171000", "145240.171000", "145240.171000", "145240.171000", "145240.171000", "145240.187000", "145240.187000", "145240.187000", "145240.187000", "145240.187000", "145240.203000", "145240.218000", "145240.218000", "145240.218000", "145240.218000", "145240.218000", "145240.218000", "145240.234000", "145240.234000", "145240.234000", "145240.234000", "145300.156000", "145300.171000", "145300.171000", "145300.171000", "145300.171000", "145300.171000", "145300.171000", "145300.171000", "145300.171000", "145300.187000", "145300.187000", "145300.187000", "145300.187000", "145300.187000", "145300.187000", "145300.203000", "145300.203000", "145300.203000", "145300.203000", "145300.203000", "145300.203000", "145300.218000", "145300.218000", "145300.218000", "145300.218000", "145300.218000", "145320.156000", "145320.171000", "145320.171000", "145320.171000", "145320.171000", "145320.171000", "145320.171000", "145320.171000", "145320.171000", "145320.187000", "145320.187000", "145320.187000", "145320.187000", "145320.187000", "145320.187000", "145320.187000", "145320.203000", "145320.203000", "145320.203000", "145320.203000", "145320.203000", "145320.203000", "145320.203000", "145320.203000", "145320.218000", "145340.156000", "145340.171000", "145340.171000", "145340.171000", "145340.171000", "145340.171000", "145340.171000", "145340.171000", "145340.171000", "145340.187000", "145340.187000", "145340.187000", "145340.187000", "145340.187000", "145340.187000", "145340.187000", "145340.203000", "145340.203000", "145340.203000", "145340.203000", "145340.203000", "145340.203000", "145340.218000", "145340.218000", "145340.218000", "145340.218000", "145400.156000", "145400.171000", "145400.171000", "145400.171000", "145400.171000", "145400.171000", "145400.187000", "145400.187000", "145400.187000", "145400.187000", "145400.187000", "145400.187000", "145400.203000", "145400.203000", "145400.203000", "145400.203000", "145400.203000", "145400.203000", "145400.203000", "145400.218000", "145400.218000", "145400.218000", "145400.218000", "145400.218000", "145400.218000", "145420.156000", "145420.171000", "145420.171000", "145420.171000", "145420.171000", "145420.171000", "145420.171000", "145420.171000", "145420.171000", "145420.187000", "145420.187000", "145420.187000", "145420.187000", "145420.187000", "145420.187000", "145420.187000", "145420.203000", "145420.203000", "145420.203000", "145420.203000", "145420.203000", "145420.203000", "145420.203000", "145420.203000", "145420.218000", "145420.218000", "145440.156000", "145440.171000", "145440.171000", "145440.171000", "145440.171000", "145440.171000", "145440.171000", "145440.171000", "145440.171000", "145440.187000", "145440.187000", "145440.187000", "145440.187000", "145440.187000", "145440.187000", "145440.187000", "145440.187000", "145440.203000", "145440.203000", "145440.203000", "145440.203000", "145440.203000", "145440.203000", "145440.203000", "145440.218000", "145500.156000", "145500.171000", "145500.171000", "145500.171000", "145500.171000", "145500.171000", "145500.171000", "145500.171000", "145500.171000", "145500.187000", "145500.187000", "145500.187000", "145500.187000", "145500.187000", "145500.187000", "145500.187000", "145500.203000", "145500.203000", "145500.203000", "145500.203000", "145500.203000", "145500.203000", "145500.203000", "145500.203000", "145500.218000", "145500.218000", "145520.156000", "145520.171000", "145520.171000", "145520.171000", "145520.171000", "145520.171000", "145520.171000", "145520.171000", "145520.171000", "145520.187000", "145520.187000", "145520.187000", "145520.187000", "145520.187000", "145520.187000", "145520.187000", "145520.203000", "145520.203000", "145520.203000", "145520.203000", "145520.203000", "145520.203000", "145520.203000", "145520.203000", "145520.218000", "145540.156000", "145540.171000", "145540.171000", "145540.171000", "145540.171000", "145540.171000", "145540.171000", "145540.171000", "145540.171000", "145540.187000", "145540.187000", "145540.187000", "145540.187000", "145540.187000", "145540.187000", "145540.203000", "145540.203000", "145540.203000", "145540.203000", "145540.203000", "145540.203000", "145540.218000", "145540.218000", "145540.218000", "145540.218000", "145600.156000", "145600.171000", "145600.171000", "145600.171000", "145600.171000", "145600.171000", "145600.171000", "145600.171000", "145600.171000", "145600.187000", "145600.187000", "145600.187000", "145600.187000", "145600.187000", "145600.187000", "145600.187000", "145600.203000", "145600.203000", "145600.203000", "145600.203000", "145600.203000", "145600.203000", "145600.203000", "145600.203000", "145600.218000", "145600.218000", "145620.156000", "145620.171000", "145620.171000", "145620.171000", "145620.171000", "145620.171000", "145620.171000", "145620.171000", "145620.187000", "145620.187000", "145620.187000", "145620.187000", "145620.187000", "145620.187000", "145620.187000", "145620.203000", "145620.203000", "145620.203000", "145620.203000", "145620.203000", "145620.203000", "145620.218000", "145620.218000", "145620.218000", "145620.218000", "145640.156000", "145640.171000", "145640.171000", "145640.171000", "145640.171000", "145640.171000", "145640.171000", "145640.171000", "145640.171000", "145640.187000", "145640.187000", "145640.187000", "145640.187000", "145640.187000", "145640.187000", "145640.187000", "145640.203000", "145640.203000", "145640.203000", "145640.203000", "145640.203000", "145640.203000", "145640.203000", "145640.203000", "145640.218000", "145640.218000", "145700.156000", "145700.171000", "145700.171000", "145700.171000", "145700.171000", "145700.171000", "145700.171000", "145700.171000", "145700.187000", "145700.187000", "145700.187000", "145700.203000", "145700.203000", "145700.203000", "145700.203000", "145700.203000", "145700.203000", "145700.203000", "145700.218000", "145700.218000", "145700.218000", "145700.218000", "145700.218000", "145700.218000", "145700.218000", "145720.156000", "145720.171000", "145720.171000", "145720.171000", "145720.171000", "145720.171000", "145720.171000", "145720.171000", "145720.171000", "145720.187000", "145720.187000", "145720.187000", "145720.187000", "145720.187000", "145720.187000", "145720.187000", "145720.187000", "145720.203000", "145720.203000", "145720.203000", "145720.203000", "145720.203000", "145720.203000", "145720.203000", "145720.218000", "145720.218000", "145740.156000", "145740.171000", "145740.171000", "145740.171000", "145740.171000", "145740.171000", "145740.171000", "145740.171000", "145740.171000", "145740.187000", "145740.187000", "145740.187000", "145740.187000", "145740.187000", "145740.187000", "145740.187000", "145740.203000", "145740.203000", "145740.203000", "145740.203000", "145740.203000", "145740.203000", "145740.203000", "145740.203000", "145740.218000", "145800.156000", "145800.171000", "145800.171000", "145800.171000", "145800.171000", "145800.171000", "145800.171000", "145800.171000", "145800.171000", "145800.187000", "145800.187000", "145800.187000", "145800.187000", "145800.187000", "145800.187000", "145800.187000", "145800.203000", "145800.203000", "145800.203000", "145800.203000", "145800.203000", "145800.218000", "145800.218000", "145800.218000", "145800.218000", "145800.218000", "145801.531000", "145801.531000"],
