{
  "AcquisitionMatrixPE": 104,
  "AcquisitionNumber": 1,
  "AcquisitionTime": "14:26:26.505000",
  "BandwidthPerPixelPhaseEncode": 13.935,
  "BaseResolution": 104,
  "CoilString": "C:HEA;HEP",
  "ConversionSoftware": "dcm2niix",
  "ConversionSoftwareVersion": "v1.0.20210317",
  "DerivedVendorReportedEchoSpacing": 0.000690017,
  "DeviceSerialNumber": "35450",
  "DwellTime": 2.5e-06,
  "EchoTime": 0.0348,
  "EffectiveEchoSpacing": 0.000690017,
  "FlipAngle": 55,
  "ImageComments": "Unaliased MB8/PE3 (remote)",
  "ImageOrientationPatientDICOM": [0.999722, 0.00932383, 0.0216481, -6.79189e-09, 0.918436, -0.395569],
  "ImageType": [
    "ORIGINAL",
    "PRIMARY",
    "M",
    "MB",
    "ND",
    "MOSAIC"
],
  "ImagingFrequency": 123.235,
  "InPlanePhaseEncodingDirectionDICOM": "COL",
  "InstitutionAddress": "Univeristy Ave. 197,Newark,North East,US,07102-1814",
  "InstitutionName": "RUBIC",
  "InstitutionalDepartmentName": "Department",
  "MRAcquisitionType": "2D",
  "MagneticFieldStrength": 3,
  "Manufacturer": "Siemens",
  "ManufacturersModelName": "TrioTim",
  "Modality": "MR",
  "MultibandAccelerationFactor": 8,
  "PartialFourier": 0.875,
  "PatientPosition": "HFS",
  "PercentPhaseFOV": 100,
  "PercentSampling": 100,
  "PhaseEncodingDirection": "j-",
  "PhaseEncodingSteps": 91,
  "PhaseResolution": 1,
  "PixelBandwidth": 1923,
  "ProcedureStepDescription": "Cole^Michael",
  "ProtocolName": "cmrr_mbep2d_bold_2mm_MB8_Task_8x",
  "PulseSequenceDetails": "%CustomerSeq%\\cmrr_mbep2d_bold",
  "ReceiveCoilName": "32Ch_Head",
  "ReconMatrixPE": 104,
  "RepetitionTime": 0.785,
  "SAR": 0.136224,
  "ScanOptions": "PFP\\FS",
  "ScanningSequence": "EP",
  "SequenceName": "epfid2d1_104",
  "SequenceVariant": "SK\\SS",
  "SeriesDescription": "cmrr_mbep2d_bold_2mm_MB8_Task_8x",
  "SeriesNumber": 13,
  "ShimSetting": [2138, -300, -7257, 491, -126, -497, -3, 3],
  "SliceThickness": 2,
  "SliceTiming": [0, 0.4375, 0.0875, 0.525, 0.175, 0.6125, 0.2625, 0.7, 0.35, 0, 0.4375, 0.0875, 0.525, 0.175, 0.6125, 0.2625, 0.7, 0.35, 0, 0.4375, 0.0875, 0.525, 0.175, 0.6125, 0.2625, 0.7, 0.35, 0, 0.4375, 0.0875, 0.525, 0.175, 0.6125, 0.2625, 0.7, 0.35, 0, 0.4375, 0.0875, 0.525, 0.175, 0.6125, 0.2625, 0.7, 0.35, 0, 0.4375, 0.0875, 0.525, 0.175, 0.6125, 0.2625, 0.7, 0.35, 0, 0.4375, 0.0875, 0.525, 0.175, 0.6125, 0.2625, 0.7, 0.35, 0, 0.4375, 0.0875, 0.525, 0.175, 0.6125, 0.2625, 0.7, 0.35],
  "SoftwareVersions": "syngo MR B19",
  "SpacingBetweenSlices": 2,
  "StationName": "MRC35450",
  "TaskName": "cpro",
  "TotalReadoutTime": 0.0710717,
  "TxRefAmp": 330.704,
  "dcmmeta_affine": [
    [-1.9994443655014038, -1.3583782099146902e-08, 0.04714132100343704, 103.60768127441406],
    [-0.018647652119398117, 1.8368725776672363, -0.7909179925918579, -56.409793853759766],
    [0.043296296149492264, 0.7911378145217896, 1.8363622426986694, -146.95257568359375],
    [0.0, 0.0, 0.0, 1.0]
],
  "dcmmeta_reorient_transform": [
    [0.0, -1.0, 0.0, 103.0],
    [1.0, 0.0, 0.0, 0.0],
    [0.0, 0.0, 1.0, 0.0],
    [0.0, 0.0, 0.0, 1.0]
],
  "dcmmeta_shape": [104, 104, 72, 581],
  "dcmmeta_slice_dim": 2,
  "dcmmeta_version": 0.6,
  "global": {
    "const": {
      "AcquisitionMatrix": [104, 0, 0, 104],
      "AngioFlag": "N",
      "BitsAllocated": 16,
      "BitsStored": 12,
      "Columns": 936,
      "EchoNumbers": 1,
      "EchoTime": 34.8,
      "EchoTrainLength": 1,
      "FlipAngle": 55.0,
      "HighBit": 11,
      "ImageOrientationPatient": [0.99972217338402, 0.00932382652313, 0.02164814780285, -6.791891e-09, 0.91843630493256, -0.3955688989062],
      "ImagePositionPatient": [-935.37652270521, -904.68451606254, 245.63668124803],
      "ImageType": [
        "ORIGINAL",
        "PRIMARY",
        "M",
        "MB",
        "ND",
        "MOSAIC"
],
      "ImagedNucleus": "1H",
      "ImagingFrequency": 123.234506,
      "InPlanePhaseEncodingDirection": "COL",
      "MRAcquisitionType": "2D",
      "MagneticFieldStrength": 3.0,
      "Manufacturer": "SIEMENS",
      "ManufacturerModelName": "TrioTim",
      "Modality": "MR",
      "NumberOfAverages": 1.0,
      "NumberOfPhaseEncodingSteps": 91,
      "PercentPhaseFieldOfView": 100.0,
      "PercentSampling": 100.0,
      "PerformedProcedureStepStartTime": "131805.812000",
      "PhotometricInterpretation": "MONOCHROME2",
      "PixelBandwidth": 1923.0,
      "PixelRepresentation": 0,
      "PixelSpacing": [2.0, 2.0],
      "ProtocolName": "cmrr_mbep2d_bold_2mm_MB8_Task_8x",
      "RepetitionTime": 785.0,
      "Rows": 936,
      "SAR": 0.13622412175715,
      "SamplesPerPixel": 1,
      "ScanOptions": [
        "PFP",
        "FS"
],
      "ScanningSequence": "EP",
      "SequenceName": "epfid2d1_104",
      "SequenceVariant": [
        "SK",
        "SS"
],
      "SeriesDescription": "cmrr_mbep2d_bold_2mm_MB8_Task_8x",
      "SeriesNumber": 13,
      "SeriesTime": "142700.187000",
      "SliceLocation": -110.1792229367,
      "SliceThickness": 2.0,
      "SmallestImagePixelValue": 0,
      "SoftwareVersions": "syngo MR B19",
      "SpacingBetweenSlices": 1.999999962605,
      "SpecificCharacterSet": "ISO_IR 100",
      "StudyID": "1",
      "StudyTime": "131805.781000",
      "TransmitCoilName": "Body",
      "VariableFlipAngleFlag": "N",
      "WindowCenterWidthExplanation": "Algo1",
      "dBdt": 0.0},
    "slices": {}
  },
  "time": {
    "samples": {
      "AcquisitionNumber": [1, 2, 3, 4, 5, 6, 7, 8, 9, 10, 11, 12, 13, 14, 15, 16, 17, 18, 19, 20, 21, 22, 23, 24, 25, 26, 27, 28, 29, 30, 31, 32, 33, 34, 35, 36, 37, 38, 39, 40, 41, 42, 43, 44, 45, 46, 47, 48, 49, 50, 51, 52, 53, 54, 55, 56, 57, 58, 59, 60, 61, 62, 63, 64, 65, 66, 67, 68, 69, 70, 71, 72, 73, 74, 75, 76, 77, 78, 79, 80, 81, 82, 83, 84, 85, 86, 87, 88, 89, 90, 91, 92, 93, 94, 95, 96, 97, 98, 99, 100, 101, 102, 103, 104, 105, 106, 107, 108, 109, 110, 111, 112, 113, 114, 115, 116, 117, 118, 119, 120, 121, 122, 123, 124, 125, 126, 127, 128, 129, 130, 131, 132, 133, 134, 135, 136, 137, 138, 139, 140, 141, 142, 143, 144, 145, 146, 147, 148, 149, 150, 151, 152, 153, 154, 155, 156, 157, 158, 159, 160, 161, 162, 163, 164, 165, 166, 167, 168, 169, 170, 171, 172, 173, 174, 175, 176, 177, 178, 179, 180, 181, 182, 183, 184, 185, 186, 187, 188, 189, 190, 191, 192, 193, 194, 195, 196, 197, 198, 199, 200, 201, 202, 203, 204, 205, 206, 207, 208, 209, 210, 211, 212, 213, 214, 215, 216, 217, 218, 219, 220, 221, 222, 223, 224, 225, 226, 227, 228, 229, 230, 231, 232, 233, 234, 235, 236, 237, 238, 239, 240, 241, 242, 243, 244, 245, 246, 247, 248, 249, 250, 251, 252, 253, 254, 255, 256, 257, 258, 259, 260, 261, 262, 263, 264, 265, 266, 267, 268, 269, 270, 271, 272, 273, 274, 275, 276, 277, 278, 279, 280, 281, 282, 283, 284, 285, 286, 287, 288, 289, 290, 291, 292, 293, 294, 295, 296, 297, 298, 299, 300, 301, 302, 303, 304, 305, 306, 307, 308, 309, 310, 311, 312, 313, 314, 315, 316, 317, 318, 319, 320, 321, 322, 323, 324, 325, 326, 327, 328, 329, 330, 331, 332, 333, 334, 335, 336, 337, 338, 339, 340, 341, 342, 343, 344, 345, 346, 347, 348, 349, 350, 351, 352, 353, 354, 355, 356, 357, 358, 359, 360, 361, 362, 363, 364, 365, 366, 367, 368, 369, 370, 371, 372, 373, 374, 375, 376, 377, 378, 379, 380, 381, 382, 383, 384, 385, 386, 387, 388, 389, 390, 391, 392, 393, 394, 395, 396, 397, 398, 399, 400, 401, 402, 403, 404, 405, 406, 407, 408, 409, 410, 411, 412, 413, 414, 415, 416, 417, 418, 419, 420, 421, 422, 423, 424, 425, 426, 427, 428, 429, 430, 431, 432, 433, 434, 435, 436, 437, 438, 439, 440, 441, 442, 443, 444, 445, 446, 447, 448, 449, 450, 451, 452, 453, 454, 455, 456, 457, 458, 459, 460, 461, 462, 463, 464, 465, 466, 467, 468, 469, 470, 471, 472, 473, 474, 475, 476, 477, 478, 479, 480, 481, 482, 483, 484, 485, 486, 487, 488, 489, 490, 491, 492, 493, 494, 495, 496, 497, 498, 499, 500, 501, 502, 503, 504, 505, 506, 507, 508, 509, 510, 511, 512, 513, 514, 515, 516, 517, 518, 519, 520, 521, 522, 523, 524, 525, 526, 527, 528, 529, 530, 531, 532, 533, 534, 535, 536, 537, 538, 539, 540, 541, 542, 543, 544, 545, 546, 547, 548, 549, 550, 551, 552, 553, 554, 555, 556, 557, 558, 559, 560, 561, 562, 563, 564, 565, 566, 567, 568, 569, 570, 571, 572, 573, 574, 575, 576, 577, 578, 579, 580, 581],
      "AcquisitionTime": ["142626.505000", "142627.292500", "142628.080000", "142628.870000", "142629.657500", "142630.445000", "142631.232500", "142632.022500", "142632.810000", "142633.597500", "142634.385000", "142635.175000", "142635.962500", "142636.750000", "142637.540000", "142638.327500", "142639.115000", "142639.902500", "142640.692500", "142641.480000", "142642.267500", "142643.055000", "142643.845000", "142644.632500", "142645.420000", "142646.207500", "142646.997500", "142647.785000", "142648.572500", "142649.360000", "142650.150000", "142650.937500", "142651.725000", "142652.512500", "142653.302500", "142654.090000", "142654.877500", "142655.667500", "142656.455000", "142657.242500", "142658.030000", "142658.820000", "142659.607500", "142700.395000", "142701.182500", "142701.972500", "142702.760000", "142703.547500", "142704.335000", "142705.125000", "142705.912500", "142706.700000", "142707.487500", "142708.277500", "142709.065000", "142709.852500", "142710.640000", "142711.430000", "142712.217500", "142713.005000", "142713.795000", "142714.582500", "142715.370000", "142716.157500", "142716.947500", "142717.735000", "142718.522500", "142719.310000", "142720.100000", "142720.887500", "142721.675000", "142722.462500", "142723.252500", "142724.040000", "142724.827500", "142725.615000", "142726.405000", "142727.192500", "142727.980000", "142728.767500", "142729.557500", "142730.345000", "142731.132500", "142731.922500", "142732.710000", "142733.497500", "142734.285000", "142735.075000", "142735.862500", "142736.650000", "142737.437500", "142738.227500", "142739.015000", "142739.802500", "142740.590000", "142741.380000", "142742.167500", "142742.955000", "142743.742500", "142744.532500", "142745.320000", "142746.107500", "142746.897500", "142747.685000", "142748.472500", "142749.260000", "142750.050000", "142750.837500", "142751.625000", "142752.412500", "142753.202500", "142753.990000", "142754.777500", "142755.565000", "142756.355000", "142757.142500", "142757.930000", "142758.717500", "142759.507500", "142800.295000", "142801.082500", "142801.870000", "142802.660000", "142803.447500", "142804.235000", "142805.025000", "142805.812500", "142806.600000", "142807.387500", "142808.177500", "142808.965000", "142809.752500", "142810.540000", "142811.330000", "142812.117500", "142812.905000", "142813.692500", "142814.482500", "142815.270000", "142816.057500", "142816.845000", "142817.635000", "142818.422500", "142819.210000", "142819.997500", "142820.787500", "142821.575000", "142822.362500", "142823.152500", "142823.940000", "142824.727500", "142825.515000", "142826.305000", "142827.092500", "142827.880000", "142828.667500", "142829.457500", "142830.245000", "142831.032500", "142831.820000", "142832.610000", "142833.397500", "142834.185000", "142834.972500", "142835.762500", "142836.550000", "142837.337500", "142838.125000", "142838.915000", "142839.702500", "142840.490000", "142841.280000", "142842.067500", "142842.855000", "142843.642500", "142844.432500", "142845.220000", "142846.007500", "142846.795000", "142847.585000", "142848.372500", "142849.160000", "142849.947500", "142850.737500", "142851.525000", "142852.312500", "142853.100000", "142853.890000", "142854.677500", "142855.465000", "142856.252500", "142857.042500", "142857.830000", "142858.617500", "142859.407500", "142900.195000", "142900.982500", "142901.770000", "142902.560000", "142903.347500", "142904.135000", "142904.922500", "142905.712500", "142906.500000", "142907.287500", "142908.075000", "142908.865000", "142909.652500", "142910.440000", "142911.227500", "142912.017500", "142912.805000", "142913.592500", "142914.380000", "142915.170000", "142915.957500", "142916.745000", "142917.535000", "142918.322500", "142919.110000", "142919.897500", "142920.687500", "142921.475000", "142922.262500", "142923.050000", "142923.840000", "142924.627500", "142925.415000", "142926.202500", "142926.992500", "142927.780000", "142928.567500", "142929.355000", "142930.145000", "142930.932500", "142931.720000", "142932.507500", "142933.297500", "142934.085000", "142934.872500", "142935.662500", "142936.450000", "142937.237500", "142938.025000", "142938.815000", "142939.602500", "142940.390000", "142941.177500", "142941.967500", "142942.755000", "142943.542500", "142944.330000", "142945.120000", "142945.907500", "142946.695000", "142947.482500", "142948.272500", "142949.060000", "142949.847500", "142950.635000", "142951.425000", "142952.212500", "142953.000000", "142953.790000", "142954.577500", "142955.365000", "142956.152500", "142956.942500", "142957.730000", "142958.517500", "142959.305000", "143000.095000", "143000.882500", "143001.670000", "143002.457500", "143003.247500", "143004.035000", "143004.822500", "143005.610000", "143006.400000", "143007.187500", "143007.975000", "143008.762500", "143009.552500", "143010.340000", "143011.127500", "143011.917500", "143012.705000", "143013.492500", "143014.280000", "143015.070000", "143015.857500", "143016.645000", "143017.432500", "143018.222500", "143019.010000", "143019.797500", "143020.585000", "143021.375000", "143022.162500", "143022.950000", "143023.737500", "143024.527500", "143025.315000", "143026.102500", "143026.890000", "143027.680000", "143028.467500", "143029.255000", "143030.045000", "143030.832500", "143031.620000", "143032.407500", "143033.197500", "143033.985000", "143034.772500", "143035.560000", "143036.350000", "143037.137500", "143037.925000", "143038.712500", "143039.502500", "143040.290000", "143041.077500", "143041.865000", "143042.655000", "143043.442500", "143044.230000", "143045.017500", "143045.807500", "143046.595000", "143047.382500", "143048.172500", "143048.960000", "143049.747500", "143050.535000", "143051.325000", "143052.112500", "143052.900000", "143053.687500", "143054.477500", "143055.265000", "143056.052500", "143056.840000", "143057.630000", "143058.417500", "143059.205000", "143059.992500", "143100.782500", "143101.570000", "143102.357500", "143103.147500", "143103.935000", "143104.722500", "143105.510000", "143106.300000", "143107.087500", "143107.875000", "143108.662500", "143109.452500", "143110.240000", "143111.027500", "143111.815000", "143112.605000", "143113.392500", "143114.180000", "143114.967500", "143115.757500", "143116.545000", "143117.332500", "143118.120000", "143118.910000", "143119.697500", "143120.485000", "143121.275000", "143122.062500", "143122.850000", "143123.637500", "143124.427500", "143125.215000", "143126.002500", "143126.790000", "143127.580000", "143128.367500", "143129.155000", "143129.942500", "143130.732500", "143131.520000", "143132.307500", "143133.095000", "143133.885000", "143134.672500", "143135.460000", "143136.247500", "143137.037500", "143137.825000", "143138.612500", "143139.402500", "143140.190000", "143140.977500", "143141.765000", "143142.555000", "143143.342500", "143144.130000", "143144.917500", "143145.707500", "143146.495000", "143147.282500", "143148.070000", "143148.860000", "143149.647500", "143150.435000", "143151.222500", "143152.012500", "143152.800000", "143153.587500", "143154.375000", "143155.165000", "143155.952500", "143156.740000", "143157.530000", "143158.317500", "143159.105000", "143159.892500", "143200.682500", "143201.470000", "143202.257500", "143203.045000", "143203.835000", "143204.622500", "143205.410000", "143206.197500", "143206.987500", "143207.775000", "143208.562500", "143209.350000", "143210.140000", "143210.927500", "143211.715000", "143212.502500", "143213.292500", "143214.080000", "143214.867500", "143215.657500", "143216.445000", "143217.232500", "143218.020000", "143218.810000", "143219.597500", "143220.385000", "143221.172500", "143221.962500", "143222.750000", "143223.537500", "143224.325000", "143225.115000", "143225.902500", "143226.690000", "143227.477500", "143228.267500", "143229.055000", "143229.842500", "143230.630000", "143231.420000", "143232.207500", "143232.995000", "143233.785000", "143234.572500", "143235.360000", "143236.147500", "143236.937500", "143237.725000", "143238.512500", "143239.300000", "143240.090000", "143240.877500", "143241.665000", "143242.452500", "143243.242500", "143244.030000", "143244.817500", "143245.605000", "143246.395000", "143247.182500", "143247.970000", "143248.757500", "143249.547500", "143250.335000", "143251.122500", "143251.912500", "143252.700000", "143253.487500", "143254.275000", "143255.065000", "143255.852500", "143256.640000", "143257.427500", "143258.217500", "143259.005000", "143259.792500", "143300.580000", "143301.370000", "143302.157500", "143302.945000", "143303.732500", "143304.522500", "143305.310000", "143306.097500", "143306.885000", "143307.675000", "143308.462500", "143309.250000", "143310.040000", "143310.827500", "143311.615000", "143312.402500", "143313.192500", "143313.980000", "143314.767500", "143315.555000", "143316.345000", "143317.132500", "143317.920000", "143318.707500", "143319.497500", "143320.285000", "143321.072500", "143321.860000", "143322.650000", "143323.437500", "143324.225000", "143325.012500", "143325.802500", "143326.590000", "143327.377500", "143328.167500", "143328.955000", "143329.742500", "143330.530000", "143331.320000", "143332.107500", "143332.895000", "143333.682500", "143334.472500", "143335.260000", "143336.047500", "143336.835000", "143337.625000", "143338.412500", "143339.200000", "143339.987500", "143340.777500", "143341.565000", "143342.352500", "143343.140000", "143343.930000", "143344.717500", "143345.505000", "143346.295000", "143347.082500", "143347.870000", "143348.657500", "143349.447500", "143350.235000", "143351.022500", "143351.810000", "143352.600000", "143353.387500", "143354.175000", "143354.962500", "143355.752500", "143356.540000", "143357.327500", "143358.115000", "143358.905000", "143359.692500", "143400.480000", "143401.267500", "143402.057500", "143402.845000", "143403.632500"],
      "ContentTime": ["142700.187000", "142700.187000", "142700.187000", "142700.187000", "142700.187000", "142700.203000", "142700.203000", "142700.203000", "142700.203000", "142700.203000", "142700.203000", "142700.203000", "142700.218000", "142700.218000", "142700.218000", "142700.218000", "142700.218000", "142700.218000", "142700.218000", "142700.234000", "142700.234000", "142700.234000", "142700.234000", "142700.234000", "142700.234000", "142700.234000", "142700.234000", "142700.250000", "142700.250000", "142700.250000", "142700.250000", "142700.250000", "142700.250000", "142700.250000", "142700.250000", "142700.265000", "142700.265000", "142700.265000", "142700.265000", "142700.265000", "142700.281000", "142720.156000", "142720.171000", "142720.171000", "142720.171000", "142720.171000", "142720.171000", "142720.171000", "142720.171000", "142720.171000", "142720.187000", "142720.187000", "142720.187000", "142720.187000", "142720.187000", "142720.187000", "142720.187000", "142720.203000", "142720.203000", "142720.203000", "142720.203000", "142720.203000", "142720.203000", "142720.203000", "142720.203000", "142720.218000", "142740.156000", "142740.171000", "142740.171000", "142740.171000", "142740.171000", "142740.171000", "142740.171000", "142740.171000", "142740.171000", "142740.187000", "142740.187000", "142740.187000", "142740.187000", "142740.187000", "142740.187000", "142740.187000", "142740.203000", "142740.203000", "142740.203000", "142740.203000", "142740.203000", "142740.203000", "142740.203000", "142740.203000", "142740.218000", "142740.218000", "142800.156000", "142800.171000", "142800.171000", "142800.171000", "142800.171000", "142800.171000", "142800.171000", "142800.171000", "142800.187000", "142800.187000", "142800.187000", "142800.187000", "142800.187000", "142800.187000", "142800.187000", "142800.187000", "142800.203000", "142800.203000", "142800.203000", "142800.203000", "142800.203000", "142800.203000", "142800.203000", "142800.218000", "142800.218000", "142820.156000", "142820.171000", "142820.171000", "142820.171000", "142820.171000", "142820.171000", "142820.171000", "142820.187000", "142820.187000", "142820.187000", "142820.187000", "142820.187000", "142820.187000", "142820.187000", "142820.187000", "142820.203000", "142820.203000", "142820.203000", "142820.203000", "142820.203000", "142820.203000", "142820.203000", "142820.218000", "142820.218000", "142820.218000", "142820.218000", "142840.156000", "142840.171000", "142840.171000", "142840.171000", "142840.171000", "142840.171000", "142840.171000", "142840.171000", "142840.171000", "142840.187000", "142840.187000", "142840.187000", "142840.187000", "142840.187000", "142840.187000", "142840.187000", "142840.203000", "142840.203000", "142840.203000", "142840.203000", "142840.203000", "142840.203000", "142840.203000", "142840.218000", "142840.218000", "142900.156000", "142900.171000", "142900.171000", "142900.187000", "142900.187000", "142900.187000", "142900.187000", "142900.187000", "142900.203000", "142900.203000", "142900.203000", "142900.203000", "142900.203000", "142900.203000", "142900.203000", "142900.203000", "142900.218000", "142900.218000", "142900.218000", "142900.218000", "142900.218000", "142900.218000", "142900.218000", "142900.234000", "142900.234000", "142920.156000", "142920.171000", "142920.171000", "142920.171000", "142920.171000", "142920.171000", "142920.171000", "142920.187000", "142920.187000", "142920.187000", "142920.187000", "142920.187000", "142920.187000", "142920.187000", "142920.203000", "142920.203000", "142920.203000", "142920.203000", "142920.203000", "142920.203000", "142920.203000", "142920.203000", "142920.218000", "142920.218000", "142920.218000", "142920.218000", "142940.156000", "142940.171000", "142940.171000", "142940.171000", "142940.171000", "142940.187000", "142940.187000", "142940.187000", "142940.187000", "142940.187000", "142940.187000", "142940.187000", "142940.187000", "142940.203000", "142940.203000", "142940.203000", "142940.203000", "142940.203000", "142940.203000", "142940.203000", "142940.218000", "142940.218000", "142940.218000", "142940.218000", "142940.218000", "143000.156000", "143000.171000", "143000.171000", "143000.171000", "143000.171000", "143000.171000", "143000.171000", "143000.171000", "143000.171000", "143000.187000", "143000.187000", "143000.187000", "143000.187000", "143000.187000", "143000.187000", "143000.187000", "143000.203000", "143000.203000", "143000.203000", "143000.203000", "143000.203000", "143000.203000", "143000.203000", "143000.203000", "143000.218000", "143000.218000", "143020.156000", "143020.171000", "143020.171000", "143020.171000", "143020.171000", "143020.171000", "143020.171000", "143020.171000", "143020.187000", "143020.187000", "143020.187000", "143020.187000", "143020.187000", "143020.187000", "143020.203000", "143020.203000", "143020.203000", "143020.203000", "143020.203000", "143020.203000", "143020.203000", "143020.218000", "143020.218000", "143020.218000", "143020.218000", "143040.156000", "143040.171000", "143040.171000", "143040.171000", "143040.171000", "143040.171000", "143040.171000", "143040.171000", "143040.171000", "143040.187000", "143040.187000", "143040.187000", "143040.187000", "143040.187000", "143040.187000", "143040.187000", "143040.203000", "143040.203000", "143040.203000", "143040.203000", "143040.203000", "143040.218000", "143040.218000", "143040.218000", "143040.218000", "143040.218000", "143100.156000", "143100.171000", "143100.171000", "143100.171000", "143100.171000", "143100.171000", "143100.171000", "143100.171000", "143100.187000", "143100.187000", "143100.187000", "143100.187000", "143100.187000", "143100.187000", "143100.203000", "143100.203000", "143100.203000", "143100.203000", "143100.203000", "143100.203000", "143100.203000", "143100.218000", "143100.218000", "143100.218000", "143100.218000", "143120.156000", "143120.171000", "143120.171000", "143120.171000", "143120.171000", "143120.171000", "143120.171000", "143120.171000", "143120.171000", "143120.187000", "143120.187000", "143120.187000", "143120.187000", "143120.187000", "143120.187000", "143120.187000", "143120.203000", "143120.203000", "143120.203000", "143120.203000", "143120.203000", "143120.203000", "143120.203000", "143120.218000", "143120.218000", "143120.218000", "143140.156000", "143140.171000", "143140.171000", "143140.171000", "143140.171000", "143140.171000", "143140.171000", "143140.171000", "143140.171000", "143140.187000", "143140.187000", "143140.187000", "143140.187000", "143140.187000", "143140.187000", "143140.187000", "143140.203000", "143140.203000", "143140.203000", "143140.203000", "143140.203000", "143140.203000", "143140.218000", "143140.218000", "143140.218000", "143200.156000", "143200.171000", "143200.171000", "143200.171000", "143200.171000", "143200.171000", "143200.171000", "143200.171000", "143200.171000", "143200.187000", "143200.187000", "143200.187000", "143200.187000", "143200.187000", "143200.187000", "143200.187000", "143200.203000", "143200.203000", "143200.203000", "143200.203000", "143200.203000", "143200.203000", "143200.203000", "143200.203000", "143200.218000", "143200.218000", "143220.156000", "143220.171000", "143220.171000", "143220.171000", "143220.171000", "143220.171000", "143220.187000", "143220.187000", "143220.187000", "143220.187000", "143220.187000", "143220.187000", "143220.187000", "143220.203000", "143220.203000", "143220.203000", "143220.203000", "143220.203000", "143220.203000", "143220.218000", "143220.218000", "143220.218000", "143220.218000", "143220.218000", "143220.234000", "143240.156000", "143240.171000", "143240.171000", "143240.171000", "143240.171000", "143240.171000", "143240.171000", "143240.171000", "143240.171000", "143240.187000", "143240.187000", "143240.187000", "143240.187000", "143240.187000", "143240.187000", "143240.187000", "143240.203000", "143240.203000", "143240.203000", "143240.203000", "143240.203000", "143240.203000", "143240.203000", "143240.218000", "143240.218000", "143240.218000", "143300.156000", "143300.171000", "143300.171000", "143300.171000", "143300.171000", "143300.171000", "143300.171000", "143300.171000", "143300.171000", "143300.187000", "143300.187000", "143300.187000", "143300.187000", "143300.187000", "143300.187000", "143300.203000", "143300.203000", "143300.203000", "143300.203000", "143300.203000", "143300.203000", "143300.203000", "143300.203000", "143300.218000", "143300.218000", "143320.156000", "143320.171000", "143320.171000", "143320.171000", "143320.171000", "143320.171000", "143320.171000", "143320.171000", "143320.171000", "143320.187000", "143320.187000", "143320.187000", "143320.187000", "143320.187000", "143320.187000", "143320.187000", "143320.203000", "143320.203000", "143320.203000", "143320.203000", "143320.203000", "143320.218000", "143320.218000", "143320.218000", "143320.218000", "143320.218000", "143340.156000", "143340.171000", "143340.171000", "143340.171000", "143340.171000", "143340.171000", "143340.171000", "143340.171000", "143340.171000", "143340.187000", "143340.187000", "143340.187000", "143340.187000", "143340.187000", "143340.187000", "143340.187000", "143340.203000", "143340.203000", "143340.203000", "143340.203000", "143340.203000", "143340.218000", "143340.218000", "143340.218000", "143340.218000", "143400.156000", "143400.171000", "143400.171000", "143400.171000", "143400.171000", "143400.171000", "143400.171000", "143400.171000", "143400.171000", "143400.187000", "143400.187000", "143400.187000", "143400.187000", "143400.187000", "143400.187000", "143400.187000", "143400.203000", "143400.203000", "143400.203000", "143400.203000", "143400.203000", "143400.203000", "143400.203000", "143400.218000", "143400.218000", "143400.218000", "143404.000000", "143404.000000", "143404.000000", "143404.000000", "143404.000000"],
