{
  "AcquisitionMatrixPE": 104,
  "AcquisitionNumber": 1,
  "AcquisitionTime": "14:58:22.765000",
  "BandwidthPerPixelPhaseEncode": 13.935,
  "BaseResolution": 104,
  "CoilString": "C:HEA;HEP",
  "ConversionSoftware": "dcm2niix",
  "ConversionSoftwareVersion": "v1.0.20210317",
  "DerivedVendorReportedEchoSpacing": 0.000690017,
  "DeviceSerialNumber": "35450",
  "DwellTime": 2.5e-06,
  "EchoTime": 0.0348,
  "EffectiveEchoSpacing": 0.000690017,
  "FlipAngle": 55,
  "ImageComments": "Unaliased MB8/PE3 (remote)",
  "ImageOrientationPatientDICOM": [0.999722, 0.00932383, 0.0216481, -6.79189e-09, 0.918436, -0.395569],
  "ImageType": [
    "ORIGINAL",
    "PRIMARY",
    "M",
    "MB",
    "ND",
    "MOSAIC"
],
  "ImagingFrequency": 123.235,
  "InPlanePhaseEncodingDirectionDICOM": "COL",
  "InstitutionAddress": "Univeristy Ave. 197,Newark,North East,US,07102-1814",
  "InstitutionName": "RUBIC",
  "InstitutionalDepartmentName": "Department",
  "MRAcquisitionType": "2D",
  "MagneticFieldStrength": 3,
  "Manufacturer": "Siemens",
  "ManufacturersModelName": "TrioTim",
  "Modality": "MR",
  "MultibandAccelerationFactor": 8,
  "PartialFourier": 0.875,
  "PatientPosition": "HFS",
  "PercentPhaseFOV": 100,
  "PercentSampling": 100,
  "PhaseEncodingDirection": "j-",
  "PhaseEncodingSteps": 91,
  "PhaseResolution": 1,
  "PixelBandwidth": 1923,
  "ProcedureStepDescription": "Cole^Michael",
  "ProtocolName": "cmrr_mbep2d_bold_2mm_MB8_Task_8x",
  "PulseSequenceDetails": "%CustomerSeq%\\cmrr_mbep2d_bold",
  "ReceiveCoilName": "32Ch_Head",
  "ReconMatrixPE": 104,
  "RepetitionTime": 0.785,
  "SAR": 0.123727,
  "ScanOptions": "PFP\\FS",
  "ScanningSequence": "EP",
  "SequenceName": "epfid2d1_104",
  "SequenceVariant": "SK\\SS",
  "SeriesDescription": "cmrr_mbep2d_bold_2mm_MB8_Task_8x",
  "SeriesNumber": 21,
  "ShimSetting": [2138, -300, -7257, 491, -126, -497, -3, 3],
  "SliceThickness": 2,
  "SliceTiming": [0, 0.4375, 0.0875, 0.525, 0.175, 0.6125, 0.2625, 0.7, 0.35, 0, 0.4375, 0.0875, 0.525, 0.175, 0.6125, 0.2625, 0.7, 0.35, 0, 0.4375, 0.0875, 0.525, 0.175, 0.6125, 0.2625, 0.7, 0.35, 0, 0.4375, 0.0875, 0.525, 0.175, 0.6125, 0.2625, 0.7, 0.35, 0, 0.4375, 0.0875, 0.525, 0.175, 0.6125, 0.2625, 0.7, 0.35, 0, 0.4375, 0.0875, 0.525, 0.175, 0.6125, 0.2625, 0.7, 0.35, 0, 0.4375, 0.0875, 0.525, 0.175, 0.6125, 0.2625, 0.7, 0.35, 0, 0.4375, 0.0875, 0.525, 0.175, 0.6125, 0.2625, 0.7, 0.35],
  "SoftwareVersions": "syngo MR B19",
  "SpacingBetweenSlices": 2,
  "StationName": "MRC35450",
  "TaskName": "cpro",
  "TotalReadoutTime": 0.0710717,
  "TxRefAmp": 330.704,
  "dcmmeta_affine": [
    [-1.9994443655014038, -1.3583782099146902e-08, 0.04714132100343704, 103.60768127441406],
    [-0.018647652119398117, 1.8368725776672363, -0.7909179925918579, -56.409793853759766],
    [0.043296296149492264, 0.7911378145217896, 1.8363622426986694, -146.95257568359375],
    [0.0, 0.0, 0.0, 1.0]
],
  "dcmmeta_reorient_transform": [
    [0.0, -1.0, 0.0, 103.0],
    [1.0, 0.0, 0.0, 0.0],
    [0.0, 0.0, 1.0, 0.0],
    [0.0, 0.0, 0.0, 1.0]
],
  "dcmmeta_shape": [104, 104, 72, 581],
  "dcmmeta_slice_dim": 2,
  "dcmmeta_version": 0.6,
  "global": {
    "const": {
      "AcquisitionMatrix": [104, 0, 0, 104],
      "AngioFlag": "N",
      "BitsAllocated": 16,
      "BitsStored": 12,
      "Columns": 936,
      "EchoNumbers": 1,
      "EchoTime": 34.8,
      "EchoTrainLength": 1,
      "FlipAngle": 55.0,
      "HighBit": 11,
      "ImageOrientationPatient": [0.99972217338402, 0.00932382652313, 0.02164814780285, -6.791891e-09, 0.91843630493256, -0.3955688989062],
      "ImagePositionPatient": [-935.37652270521, -904.68451606254, 245.63668124803],
      "ImageType": [
        "ORIGINAL",
        "PRIMARY",
        "M",
        "MB",
        "ND",
        "MOSAIC"
],
      "ImagedNucleus": "1H",
      "ImagingFrequency": 123.234506,
      "InPlanePhaseEncodingDirection": "COL",
      "MRAcquisitionType": "2D",
      "MagneticFieldStrength": 3.0,
      "Manufacturer": "SIEMENS",
      "ManufacturerModelName": "TrioTim",
      "Modality": "MR",
      "NumberOfAverages": 1.0,
      "NumberOfPhaseEncodingSteps": 91,
      "PercentPhaseFieldOfView": 100.0,
      "PercentSampling": 100.0,
      "PerformedProcedureStepStartTime": "131805.812000",
      "PhotometricInterpretation": "MONOCHROME2",
      "PixelBandwidth": 1923.0,
      "PixelRepresentation": 0,
      "PixelSpacing": [2.0, 2.0],
      "ProtocolName": "cmrr_mbep2d_bold_2mm_MB8_Task_8x",
      "RepetitionTime": 785.0,
      "Rows": 936,
      "SAR": 0.12372655592324,
      "SamplesPerPixel": 1,
      "ScanOptions": [
        "PFP",
        "FS"
],
      "ScanningSequence": "EP",
      "SequenceName": "epfid2d1_104",
      "SequenceVariant": [
        "SK",
        "SS"
],
      "SeriesDescription": "cmrr_mbep2d_bold_2mm_MB8_Task_8x",
      "SeriesNumber": 21,
      "SeriesTime": "145859.609000",
      "SliceLocation": -110.1792229367,
      "SliceThickness": 2.0,
      "SmallestImagePixelValue": 0,
      "SoftwareVersions": "syngo MR B19",
      "SpacingBetweenSlices": 1.999999962605,
      "SpecificCharacterSet": "ISO_IR 100",
      "StudyID": "1",
      "StudyTime": "131805.781000",
      "TransmitCoilName": "Body",
      "VariableFlipAngleFlag": "N",
      "WindowCenterWidthExplanation": "Algo1",
      "dBdt": 0.0},
    "slices": {}
  },
  "time": {
    "samples": {
      "AcquisitionNumber": [1, 2, 3, 4, 5, 6, 7, 8, 9, 10, 11, 12, 13, 14, 15, 16, 17, 18, 19, 20, 21, 22, 23, 24, 25, 26, 27, 28, 29, 30, 31, 32, 33, 34, 35, 36, 37, 38, 39, 40, 41, 42, 43, 44, 45, 46, 47, 48, 49, 50, 51, 52, 53, 54, 55, 56, 57, 58, 59, 60, 61, 62, 63, 64, 65, 66, 67, 68, 69, 70, 71, 72, 73, 74, 75, 76, 77, 78, 79, 80, 81, 82, 83, 84, 85, 86, 87, 88, 89, 90, 91, 92, 93, 94, 95, 96, 97, 98, 99, 100, 101, 102, 103, 104, 105, 106, 107, 108, 109, 110, 111, 112, 113, 114, 115, 116, 117, 118, 119, 120, 121, 122, 123, 124, 125, 126, 127, 128, 129, 130, 131, 132, 133, 134, 135, 136, 137, 138, 139, 140, 141, 142, 143, 144, 145, 146, 147, 148, 149, 150, 151, 152, 153, 154, 155, 156, 157, 158, 159, 160, 161, 162, 163, 164, 165, 166, 167, 168, 169, 170, 171, 172, 173, 174, 175, 176, 177, 178, 179, 180, 181, 182, 183, 184, 185, 186, 187, 188, 189, 190, 191, 192, 193, 194, 195, 196, 197, 198, 199, 200, 201, 202, 203, 204, 205, 206, 207, 208, 209, 210, 211, 212, 213, 214, 215, 216, 217, 218, 219, 220, 221, 222, 223, 224, 225, 226, 227, 228, 229, 230, 231, 232, 233, 234, 235, 236, 237, 238, 239, 240, 241, 242, 243, 244, 245, 246, 247, 248, 249, 250, 251, 252, 253, 254, 255, 256, 257, 258, 259, 260, 261, 262, 263, 264, 265, 266, 267, 268, 269, 270, 271, 272, 273, 274, 275, 276, 277, 278, 279, 280, 281, 282, 283, 284, 285, 286, 287, 288, 289, 290, 291, 292, 293, 294, 295, 296, 297, 298, 299, 300, 301, 302, 303, 304, 305, 306, 307, 308, 309, 310, 311, 312, 313, 314, 315, 316, 317, 318, 319, 320, 321, 322, 323, 324, 325, 326, 327, 328, 329, 330, 331, 332, 333, 334, 335, 336, 337, 338, 339, 340, 341, 342, 343, 344, 345, 346, 347, 348, 349, 350, 351, 352, 353, 354, 355, 356, 357, 358, 359, 360, 361, 362, 363, 364, 365, 366, 367, 368, 369, 370, 371, 372, 373, 374, 375, 376, 377, 378, 379, 380, 381, 382, 383, 384, 385, 386, 387, 388, 389, 390, 391, 392, 393, 394, 395, 396, 397, 398, 399, 400, 401, 402, 403, 404, 405, 406, 407, 408, 409, 410, 411, 412, 413, 414, 415, 416, 417, 418, 419, 420, 421, 422, 423, 424, 425, 426, 427, 428, 429, 430, 431, 432, 433, 434, 435, 436, 437, 438, 439, 440, 441, 442, 443, 444, 445, 446, 447, 448, 449, 450, 451, 452, 453, 454, 455, 456, 457, 458, 459, 460, 461, 462, 463, 464, 465, 466, 467, 468, 469, 470, 471, 472, 473, 474, 475, 476, 477, 478, 479, 480, 481, 482, 483, 484, 485, 486, 487, 488, 489, 490, 491, 492, 493, 494, 495, 496, 497, 498, 499, 500, 501, 502, 503, 504, 505, 506, 507, 508, 509, 510, 511, 512, 513, 514, 515, 516, 517, 518, 519, 520, 521, 522, 523, 524, 525, 526, 527, 528, 529, 530, 531, 532, 533, 534, 535, 536, 537, 538, 539, 540, 541, 542, 543, 544, 545, 546, 547, 548, 549, 550, 551, 552, 553, 554, 555, 556, 557, 558, 559, 560, 561, 562, 563, 564, 565, 566, 567, 568, 569, 570, 571, 572, 573, 574, 575, 576, 577, 578, 579, 580, 581],
      "AcquisitionTime": ["145822.765000", "145823.552500", "145824.340000", "145825.127500", "145825.917500", "145826.705000", "145827.492500", "145828.282500", "145829.070000", "145829.857500", "145830.645000", "145831.435000", "145832.222500", "145833.010000", "145833.797500", "145834.587500", "145835.375000", "145836.162500", "145836.950000", "145837.740000", "145838.527500", "145839.315000", "145840.102500", "145840.892500", "145841.680000", "145842.467500", "145843.255000", "145844.045000", "145844.832500", "145845.620000", "145846.410000", "145847.197500", "145847.985000", "145848.772500", "145849.562500", "145850.350000", "145851.137500", "145851.925000", "145852.715000", "145853.502500", "145854.290000", "145855.077500", "145855.867500", "145856.655000", "145857.442500", "145858.230000", "145859.020000", "145859.807500", "145900.595000", "145901.385000", "145902.172500", "145902.960000", "145903.747500", "145904.537500", "145905.325000", "145906.112500", "145906.900000", "145907.690000", "145908.477500", "145909.265000", "145910.052500", "145910.842500", "145911.630000", "145912.417500", "145913.205000", "145913.995000", "145914.782500", "145915.570000", "145916.357500", "145917.147500", "145917.935000", "145918.722500", "145919.512500", "145920.300000", "145921.087500", "145921.875000", "145922.665000", "145923.452500", "145924.240000", "145925.027500", "145925.817500", "145926.605000", "145927.392500", "145928.180000", "145928.970000", "145929.757500", "145930.545000", "145931.332500", "145932.122500", "145932.910000", "145933.697500", "145934.485000", "145935.275000", "145936.062500", "145936.850000", "145937.640000", "145938.427500", "145939.215000", "145940.002500", "145940.792500", "145941.580000", "145942.367500", "145943.155000", "145943.945000", "145944.732500", "145945.520000", "145946.307500", "145947.097500", "145947.885000", "145948.672500", "145949.460000", "145950.250000", "145951.037500", "145951.825000", "145952.612500", "145953.402500", "145954.190000", "145954.977500", "145955.767500", "145956.555000", "145957.342500", "145958.130000", "145958.920000", "145959.707500", "150000.495000", "150001.282500", "150002.072500", "150002.860000", "150003.647500", "150004.435000", "150005.225000", "150006.012500", "150006.800000", "150007.587500", "150008.377500", "150009.165000", "150009.952500", "150010.740000", "150011.530000", "150012.317500", "150013.105000", "150013.895000", "150014.682500", "150015.470000", "150016.257500", "150017.047500", "150017.835000", "150018.622500", "150019.410000", "150020.200000", "150020.987500", "150021.775000", "150022.562500", "150023.352500", "150024.140000", "150024.927500", "150025.715000", "150026.505000", "150027.292500", "150028.080000", "150028.867500", "150029.657500", "150030.445000", "150031.232500", "150032.022500", "150032.810000", "150033.597500", "150034.385000", "150035.175000", "150035.962500", "150036.750000", "150037.537500", "150038.327500", "150039.115000", "150039.902500", "150040.690000", "150041.480000", "150042.267500", "150043.055000", "150043.842500", "150044.632500", "150045.420000", "150046.207500", "150046.995000", "150047.785000", "150048.572500", "150049.360000", "150050.150000", "150050.937500", "150051.725000", "150052.512500", "150053.302500", "150054.090000", "150054.877500", "150055.665000", "150056.455000", "150057.242500", "150058.030000", "150058.817500", "150059.607500", "150100.395000", "150101.182500", "150101.970000", "150102.760000", "150103.547500", "150104.335000", "150105.122500", "150105.912500", "150106.700000", "150107.487500", "150108.277500", "150109.065000", "150109.852500", "150110.640000", "150111.430000", "150112.217500", "150113.005000", "150113.792500", "150114.582500", "150115.370000", "150116.157500", "150116.945000", "150117.735000", "150118.522500", "150119.310000", "150120.097500", "150120.887500", "150121.675000", "150122.462500", "150123.250000", "150124.040000", "150124.827500", "150125.615000", "150126.405000", "150127.192500", "150127.980000", "150128.767500", "150129.557500", "150130.345000", "150131.132500", "150131.920000", "150132.710000", "150133.497500", "150134.285000", "150135.072500", "150135.862500", "150136.650000", "150137.437500", "150138.225000", "150139.015000", "150139.802500", "150140.590000", "150141.377500", "150142.167500", "150142.955000", "150143.742500", "150144.532500", "150145.320000", "150146.107500", "150146.895000", "150147.685000", "150148.472500", "150149.260000", "150150.047500", "150150.837500", "150151.625000", "150152.412500", "150153.200000", "150153.990000", "150154.777500", "150155.565000", "150156.352500", "150157.142500", "150157.930000", "150158.717500", "150159.505000", "150200.295000", "150201.082500", "150201.870000", "150202.660000", "150203.447500", "150204.235000", "150205.022500", "150205.812500", "150206.600000", "150207.387500", "150208.175000", "150208.965000", "150209.752500", "150210.540000", "150211.327500", "150212.117500", "150212.905000", "150213.692500", "150214.480000", "150215.270000", "150216.057500", "150216.845000", "150217.635000", "150218.422500", "150219.210000", "150219.997500", "150220.787500", "150221.575000", "150222.362500", "150223.150000", "150223.940000", "150224.727500", "150225.515000", "150226.302500", "150227.092500", "150227.880000", "150228.667500", "150229.455000", "150230.245000", "150231.032500", "150231.820000", "150232.607500", "150233.397500", "150234.185000", "150234.972500", "150235.762500", "150236.550000", "150237.337500", "150238.125000", "150238.915000", "150239.702500", "150240.490000", "150241.277500", "150242.067500", "150242.855000", "150243.642500", "150244.430000", "150245.220000", "150246.007500", "150246.795000", "150247.582500", "150248.372500", "150249.160000", "150249.947500", "150250.735000", "150251.525000", "150252.312500", "150253.100000", "150253.890000", "150254.677500", "150255.465000", "150256.252500", "150257.042500", "150257.830000", "150258.617500", "150259.405000", "150300.195000", "150300.982500", "150301.770000", "150302.557500", "150303.347500", "150304.135000", "150304.922500", "150305.710000", "150306.500000", "150307.287500", "150308.075000", "150308.862500", "150309.652500", "150310.440000", "150311.227500", "150312.017500", "150312.805000", "150313.592500", "150314.380000", "150315.170000", "150315.957500", "150316.745000", "150317.532500", "150318.322500", "150319.110000", "150319.897500", "150320.685000", "150321.475000", "150322.262500", "150323.050000", "150323.837500", "150324.627500", "150325.415000", "150326.202500", "150326.990000", "150327.780000", "150328.567500", "150329.355000", "150330.145000", "150330.932500", "150331.720000", "150332.507500", "150333.297500", "150334.085000", "150334.872500", "150335.660000", "150336.450000", "150337.237500", "150338.025000", "150338.812500", "150339.602500", "150340.390000", "150341.177500", "150341.965000", "150342.755000", "150343.542500", "150344.330000", "150345.117500", "150345.907500", "150346.695000", "150347.482500", "150348.272500", "150349.060000", "150349.847500", "150350.635000", "150351.425000", "150352.212500", "150353.000000", "150353.787500", "150354.577500", "150355.365000", "150356.152500", "150356.940000", "150357.730000", "150358.517500", "150359.305000", "150400.092500", "150400.882500", "150401.670000", "150402.457500", "150403.245000", "150404.035000", "150404.822500", "150405.610000", "150406.400000", "150407.187500", "150407.975000", "150408.762500", "150409.552500", "150410.340000", "150411.127500", "150411.915000", "150412.705000", "150413.492500", "150414.280000", "150415.067500", "150415.857500", "150416.645000", "150417.432500", "150418.220000", "150419.010000", "150419.797500", "150420.585000", "150421.372500", "150422.162500", "150422.950000", "150423.737500", "150424.527500", "150425.315000", "150426.102500", "150426.890000", "150427.680000", "150428.467500", "150429.255000", "150430.042500", "150430.832500", "150431.620000", "150432.407500", "150433.195000", "150433.985000", "150434.772500", "150435.560000", "150436.347500", "150437.137500", "150437.925000", "150438.712500", "150439.500000", "150440.290000", "150441.077500", "150441.865000", "150442.655000", "150443.442500", "150444.230000", "150445.017500", "150445.807500", "150446.595000", "150447.382500", "150448.170000", "150448.960000", "150449.747500", "150450.535000", "150451.322500", "150452.112500", "150452.900000", "150453.687500", "150454.475000", "150455.265000", "150456.052500", "150456.840000", "150457.627500", "150458.417500", "150459.205000", "150459.992500", "150500.782500", "150501.570000", "150502.357500", "150503.145000", "150503.935000", "150504.722500", "150505.510000", "150506.297500", "150507.087500", "150507.875000", "150508.662500", "150509.450000", "150510.240000", "150511.027500", "150511.815000", "150512.602500", "150513.392500", "150514.180000", "150514.967500", "150515.755000", "150516.545000", "150517.332500", "150518.120000", "150518.910000", "150519.697500", "150520.485000", "150521.272500", "150522.062500", "150522.850000", "150523.637500", "150524.425000", "150525.215000", "150526.002500", "150526.790000", "150527.577500", "150528.367500", "150529.155000", "150529.942500", "150530.730000", "150531.520000", "150532.307500", "150533.095000", "150533.885000", "150534.672500", "150535.460000", "150536.247500", "150537.037500", "150537.825000", "150538.612500", "150539.400000", "150540.190000", "150540.977500", "150541.765000", "150542.552500", "150543.342500", "150544.130000", "150544.917500", "150545.705000", "150546.495000", "150547.282500", "150548.070000", "150548.857500", "150549.647500", "150550.435000", "150551.222500", "150552.012500", "150552.800000", "150553.587500", "150554.375000", "150555.165000", "150555.952500", "150556.740000", "150557.527500", "150558.317500", "150559.105000", "150559.892500"],
      "ContentTime": ["145859.609000", "145859.609000", "145859.609000", "145859.609000", "145859.609000", "145859.625000", "145859.625000", "145859.625000", "145859.625000", "145859.625000", "145859.625000", "145859.625000", "145859.640000", "145859.640000", "145859.640000", "145859.640000", "145859.640000", "145859.640000", "145859.640000", "145859.640000", "145859.656000", "145859.656000", "145859.656000", "145859.656000", "145859.656000", "145859.656000", "145859.656000", "145859.671000", "145859.671000", "145859.671000", "145859.671000", "145859.671000", "145859.671000", "145859.671000", "145859.671000", "145859.687000", "145859.687000", "145859.687000", "145859.687000", "145859.687000", "145859.687000", "145859.687000", "145859.687000", "145919.578000", "145919.593000", "145919.593000", "145919.593000", "145919.593000", "145919.593000", "145919.593000", "145919.593000", "145919.593000", "145919.609000", "145919.609000", "145919.609000", "145919.609000", "145919.609000", "145919.609000", "145919.625000", "145919.625000", "145919.625000", "145919.625000", "145919.625000", "145919.625000", "145919.625000", "145919.640000", "145919.640000", "145919.640000", "145939.578000", "145939.593000", "145939.593000", "145939.593000", "145939.593000", "145939.593000", "145939.593000", "145939.593000", "145939.609000", "145939.609000", "145939.609000", "145939.609000", "145939.609000", "145939.609000", "145939.609000", "145939.609000", "145939.625000", "145939.625000", "145939.625000", "145939.625000", "145939.625000", "145939.625000", "145939.625000", "145939.625000", "145939.640000", "145939.640000", "145959.578000", "145959.593000", "145959.593000", "145959.593000", "145959.593000", "145959.593000", "145959.593000", "145959.593000", "145959.593000", "145959.609000", "145959.609000", "145959.625000", "145959.625000", "145959.625000", "145959.625000", "145959.625000", "145959.625000", "145959.625000", "145959.640000", "145959.640000", "145959.640000", "145959.640000", "145959.640000", "145959.640000", "145959.656000", "150019.578000", "150019.593000", "150019.593000", "150019.593000", "150019.593000", "150019.593000", "150019.593000", "150019.593000", "150019.593000", "150019.609000", "150019.609000", "150019.609000", "150019.609000", "150019.609000", "150019.609000", "150019.609000", "150019.625000", "150019.625000", "150019.625000", "150019.625000", "150019.625000", "150019.625000", "150019.625000", "150019.625000", "150019.640000", "150019.640000", "150039.578000", "150039.593000", "150039.593000", "150039.593000", "150039.593000", "150039.593000", "150039.593000", "150039.593000", "150039.593000", "150039.609000", "150039.609000", "150039.609000", "150039.609000", "150039.609000", "150039.609000", "150039.609000", "150039.625000", "150039.625000", "150039.625000", "150039.625000", "150039.625000", "150039.625000", "150039.625000", "150039.640000", "150039.640000", "150059.578000", "150059.593000", "150059.593000", "150059.593000", "150059.593000", "150059.593000", "150059.593000", "150059.593000", "150059.593000", "150059.609000", "150059.609000", "150059.609000", "150059.609000", "150059.609000", "150059.609000", "150059.609000", "150059.609000", "150059.625000", "150059.625000", "150059.625000", "150059.625000", "150059.625000", "150059.625000", "150059.625000", "150059.640000", "150059.640000", "150119.578000", "150119.593000", "150119.593000", "150119.593000", "150119.593000", "150119.593000", "150119.593000", "150119.593000", "150119.593000", "150119.609000", "150119.609000", "150119.609000", "150119.609000", "150119.609000", "150119.609000", "150119.609000", "150119.609000", "150119.625000", "150119.625000", "150119.625000", "150119.625000", "150119.625000", "150119.625000", "150119.625000", "150119.640000", "150139.578000", "150139.593000", "150139.593000", "150139.593000", "150139.593000", "150139.593000", "150139.593000", "150139.593000", "150139.593000", "150139.609000", "150139.609000", "150139.609000", "150139.609000", "150139.609000", "150139.609000", "150139.609000", "150139.609000", "150139.625000", "150139.625000", "150139.625000", "150139.625000", "150139.625000", "150139.625000", "150139.625000", "150139.640000", "150139.640000", "150159.578000", "150159.593000", "150159.593000", "150159.593000", "150159.593000", "150159.593000", "150159.593000", "150159.593000", "150159.593000", "150159.609000", "150159.609000", "150159.609000", "150159.609000", "150159.609000", "150159.609000", "150159.609000", "150159.609000", "150159.625000", "150159.625000", "150159.625000", "150159.625000", "150159.625000", "150159.625000", "150159.625000", "150159.640000", "150219.578000", "150219.593000", "150219.593000", "150219.593000", "150219.593000", "150219.593000", "150219.593000", "150219.593000", "150219.593000", "150219.609000", "150219.609000", "150219.609000", "150219.609000", "150219.609000", "150219.609000", "150219.609000", "150219.625000", "150219.625000", "150219.625000", "150219.625000", "150219.625000", "150219.625000", "150219.625000", "150219.625000", "150219.640000", "150219.640000", "150239.578000", "150239.593000", "150239.593000", "150239.593000", "150239.593000", "150239.593000", "150239.593000", "150239.593000", "150239.593000", "150239.609000", "150239.609000", "150239.609000", "150239.609000", "150239.609000", "150239.609000", "150239.609000", "150239.609000", "150239.625000", "150239.625000", "150239.625000", "150239.625000", "150239.625000", "150239.625000", "150239.625000", "150239.640000", "150259.578000", "150259.593000", "150259.593000", "150259.593000", "150259.593000", "150259.593000", "150259.593000", "150259.593000", "150259.593000", "150259.609000", "150259.609000", "150259.609000", "150259.609000", "150259.609000", "150259.609000", "150259.609000", "150259.625000", "150259.625000", "150259.625000", "150259.625000", "150259.625000", "150259.625000", "150259.625000", "150259.625000", "150259.640000", "150259.640000", "150319.578000", "150319.593000", "150319.593000", "150319.593000", "150319.593000", "150319.593000", "150319.593000", "150319.593000", "150319.593000", "150319.609000", "150319.609000", "150319.609000", "150319.609000", "150319.609000", "150319.609000", "150319.609000", "150319.609000", "150319.625000", "150319.625000", "150319.625000", "150319.625000", "150319.625000", "150319.625000", "150319.625000", "150319.640000", "150339.578000", "150339.593000", "150339.593000", "150339.593000", "150339.593000", "150339.593000", "150339.593000", "150339.593000", "150339.593000", "150339.609000", "150339.609000", "150339.609000", "150339.609000", "150339.609000", "150339.609000", "150339.609000", "150339.609000", "150339.625000", "150339.625000", "150339.625000", "150339.625000", "150339.625000", "150339.625000", "150339.625000", "150339.640000", "150339.640000", "150359.578000", "150359.593000", "150359.593000", "150359.593000", "150359.593000", "150359.593000", "150359.593000", "150359.593000", "150359.593000", "150359.609000", "150359.609000", "150359.609000", "150359.609000", "150359.609000", "150359.609000", "150359.609000", "150359.609000", "150359.625000", "150359.625000", "150359.625000", "150359.625000", "150359.625000", "150359.625000", "150359.625000", "150359.640000", "150419.578000", "150419.593000", "150419.593000", "150419.593000", "150419.593000", "150419.593000", "150419.593000", "150419.593000", "150419.593000", "150419.609000", "150419.609000", "150419.609000", "150419.609000", "150419.609000", "150419.609000", "150419.609000", "150419.609000", "150419.625000", "150419.625000", "150419.625000", "150419.625000", "150419.625000", "150419.625000", "150419.625000", "150419.640000", "150419.640000", "150439.578000", "150439.593000", "150439.593000", "150439.593000", "150439.593000", "150439.593000", "150439.593000", "150439.593000", "150439.593000", "150439.609000", "150439.609000", "150439.609000", "150439.609000", "150439.609000", "150439.609000", "150439.609000", "150439.625000", "150439.625000", "150439.625000", "150439.625000", "150439.625000", "150439.625000", "150439.625000", "150439.625000", "150439.640000", "150459.578000", "150459.593000", "150459.593000", "150459.593000", "150459.593000", "150459.593000", "150459.593000", "150459.593000", "150459.593000", "150459.609000", "150459.609000", "150459.609000", "150459.609000", "150459.609000", "150459.609000", "150459.609000", "150459.609000", "150459.625000", "150459.625000", "150459.625000", "150459.625000", "150459.625000", "150459.625000", "150459.625000", "150459.640000", "150459.640000", "150519.578000", "150519.593000", "150519.593000", "150519.593000", "150519.593000", "150519.593000", "150519.593000", "150519.593000", "150519.593000", "150519.609000", "150519.609000", "150519.609000", "150519.609000", "150519.609000", "150519.609000", "150519.609000", "150519.625000", "150519.625000", "150519.625000", "150519.625000", "150519.625000", "150519.625000", "150519.625000", "150519.625000", "150519.640000", "150539.578000", "150539.593000", "150539.593000", "150539.593000", "150539.593000", "150539.593000", "150539.593000", "150539.593000", "150539.593000", "150539.609000", "150539.609000", "150539.609000", "150539.609000", "150539.609000", "150539.609000", "150539.609000", "150539.625000", "150539.625000", "150539.625000", "150539.625000", "150539.625000", "150539.625000", "150539.625000", "150539.625000", "150539.640000", "150539.640000", "150559.578000", "150559.593000", "150559.593000", "150559.593000", "150559.593000", "150559.593000", "150559.593000", "150559.593000", "150559.593000", "150559.609000", "150559.609000", "150559.609000", "150559.609000", "150559.609000", "150559.609000", "150559.609000", "150559.625000", "150559.625000", "150559.625000", "150559.625000", "150559.625000", "150559.625000", "150559.625000", "150559.625000", "150559.640000", "150601.546000", "150601.546000", "150601.546000"],
