{
  "AcquisitionMatrixPE": 104,
  "AcquisitionNumber": 1,
  "AcquisitionTime": "14:03:50.560000",
  "BandwidthPerPixelPhaseEncode": 13.935,
  "BaseResolution": 104,
  "CoilString": "C:HEA;HEP",
  "ConversionSoftware": "dcm2niix",
  "ConversionSoftwareVersion": "v1.0.20210317",
  "DerivedVendorReportedEchoSpacing": 0.000690017,
  "DeviceSerialNumber": "35450",
  "DwellTime": 2.5e-06,
  "EchoTime": 0.0348,
  "EffectiveEchoSpacing": 0.000690017,
  "FlipAngle": 55,
  "ImageComments": "Unaliased MB8/PE3 (remote)",
  "ImageOrientationPatientDICOM": [0.999722, 0.00932383, 0.0216481, -6.79189e-09, 0.918436, -0.395569],
  "ImageType": [
    "ORIGINAL",
    "PRIMARY",
    "M",
    "MB",
    "ND",
    "MOSAIC"
],
  "ImagingFrequency": 123.234,
  "InPlanePhaseEncodingDirectionDICOM": "COL",
  "InstitutionAddress": "Univeristy Ave. 197,Newark,North East,US,07102-1814",
  "InstitutionName": "RUBIC",
  "InstitutionalDepartmentName": "Department",
  "MRAcquisitionType": "2D",
  "MagneticFieldStrength": 3,
  "Manufacturer": "Siemens",
  "ManufacturersModelName": "TrioTim",
  "Modality": "MR",
  "MultibandAccelerationFactor": 8,
  "PartialFourier": 0.875,
  "PatientPosition": "HFS",
  "PercentPhaseFOV": 100,
  "PercentSampling": 100,
  "PhaseEncodingDirection": "j-",
  "PhaseEncodingSteps": 91,
  "PhaseResolution": 1,
  "PixelBandwidth": 1923,
  "ProcedureStepDescription": "Cole^Michael",
  "ProtocolName": "cmrr_mbep2d_bold_2mm_MB8_Rest",
  "PulseSequenceDetails": "%CustomerSeq%\\cmrr_mbep2d_bold",
  "ReceiveCoilName": "32Ch_Head",
  "ReconMatrixPE": 104,
  "RepetitionTime": 0.785,
  "SAR": 0.124629,
  "ScanOptions": "PFP\\FS",
  "ScanningSequence": "EP",
  "SequenceName": "epfid2d1_104",
  "SequenceVariant": "SK\\SS",
  "SeriesDescription": "cmrr_mbep2d_bold_2mm_MB8_Rest",
  "SeriesNumber": 9,
  "ShimSetting": [2138, -300, -7257, 491, -126, -497, -3, 3],
  "SliceThickness": 2,
  "SliceTiming": [0, 0.4375, 0.0875, 0.525, 0.175, 0.6125, 0.2625, 0.7, 0.35, 0, 0.4375, 0.0875, 0.525, 0.175, 0.6125, 0.2625, 0.7, 0.35, 0, 0.4375, 0.0875, 0.525, 0.175, 0.6125, 0.2625, 0.7, 0.35, 0, 0.4375, 0.0875, 0.525, 0.175, 0.6125, 0.2625, 0.7, 0.35, 0, 0.4375, 0.0875, 0.525, 0.175, 0.6125, 0.2625, 0.7, 0.35, 0, 0.4375, 0.0875, 0.525, 0.175, 0.6125, 0.2625, 0.7, 0.35, 0, 0.4375, 0.0875, 0.525, 0.175, 0.6125, 0.2625, 0.7, 0.35, 0, 0.4375, 0.0875, 0.525, 0.175, 0.6125, 0.2625, 0.7, 0.35],
  "SoftwareVersions": "syngo MR B19",
  "SpacingBetweenSlices": 2,
  "StationName": "MRC35450",
  "TaskName": "rest",
  "TotalReadoutTime": 0.0710717,
  "TxRefAmp": 330.704,
  "dcmmeta_affine": [
    [-1.9994443655014038, -1.3583782099146902e-08, 0.04714132100343704, 103.60768127441406],
    [-0.018647652119398117, 1.8368725776672363, -0.7909179925918579, -56.409793853759766],
    [0.043296296149492264, 0.7911378145217896, 1.8363622426986694, -146.95257568359375],
    [0.0, 0.0, 0.0, 1.0]
],
  "dcmmeta_reorient_transform": [
    [0.0, -1.0, 0.0, 103.0],
    [1.0, 0.0, 0.0, 0.0],
    [0.0, 0.0, 1.0, 0.0],
    [0.0, 0.0, 0.0, 1.0]
],
  "dcmmeta_shape": [104, 104, 72, 1070],
  "dcmmeta_slice_dim": 2,
  "dcmmeta_version": 0.6,
  "global": {
    "const": {
      "AcquisitionMatrix": [104, 0, 0, 104],
      "AngioFlag": "N",
      "BitsAllocated": 16,
      "BitsStored": 12,
      "Columns": 936,
      "EchoNumbers": 1,
      "EchoTime": 34.8,
      "EchoTrainLength": 1,
      "FlipAngle": 55.0,
      "HighBit": 11,
      "ImageOrientationPatient": [0.99972217338402, 0.00932382652313, 0.02164814780285, -6.791891e-09, 0.91843630493256, -0.3955688989062],
      "ImagePositionPatient": [-935.37652270521, -904.68451606254, 245.63668124803],
      "ImageType": [
        "ORIGINAL",
        "PRIMARY",
        "M",
        "MB",
        "ND",
        "MOSAIC"
],
      "ImagedNucleus": "1H",
      "ImagingFrequency": 123.234446,
      "InPlanePhaseEncodingDirection": "COL",
      "MRAcquisitionType": "2D",
      "MagneticFieldStrength": 3.0,
      "Manufacturer": "SIEMENS",
      "ManufacturerModelName": "TrioTim",
      "Modality": "MR",
      "NumberOfAverages": 1.0,
      "NumberOfPhaseEncodingSteps": 91,
      "PercentPhaseFieldOfView": 100.0,
      "PercentSampling": 100.0,
      "PerformedProcedureStepStartTime": "131805.812000",
      "PhotometricInterpretation": "MONOCHROME2",
      "PixelBandwidth": 1923.0,
      "PixelRepresentation": 0,
      "PixelSpacing": [2.0, 2.0],
      "ProtocolName": "cmrr_mbep2d_bold_2mm_MB8_Rest",
      "RepetitionTime": 785.0,
      "Rows": 936,
      "SAR": 0.12462858650657,
      "SamplesPerPixel": 1,
      "ScanOptions": [
        "PFP",
        "FS"
],
      "ScanningSequence": "EP",
      "SequenceName": "epfid2d1_104",
      "SequenceVariant": [
        "SK",
        "SS"
],
      "SeriesDescription": "cmrr_mbep2d_bold_2mm_MB8_Rest",
      "SeriesNumber": 9,
      "SeriesTime": "140419.609000",
      "SliceLocation": -110.1792229367,
      "SliceThickness": 2.0,
      "SmallestImagePixelValue": 0,
      "SoftwareVersions": "syngo MR B19",
      "SpacingBetweenSlices": 1.999999962605,
      "SpecificCharacterSet": "ISO_IR 100",
      "StudyID": "1",
      "StudyTime": "131805.781000",
      "TransmitCoilName": "Body",
      "VariableFlipAngleFlag": "N",
      "WindowCenterWidthExplanation": "Algo1",
      "dBdt": 0.0},
    "slices": {}
  },
  "time": {
    "samples": {
      "AcquisitionNumber": [1, 2, 3, 4, 5, 6, 7, 8, 9, 10, 11, 12, 13, 14, 15, 16, 17, 18, 19, 20, 21, 22, 23, 24, 25, 26, 27, 28, 29, 30, 31, 32, 33, 34, 35, 36, 37, 38, 39, 40, 41, 42, 43, 44, 45, 46, 47, 48, 49, 50, 51, 52, 53, 54, 55, 56, 57, 58, 59, 60, 61, 62, 63, 64, 65, 66, 67, 68, 69, 70, 71, 72, 73, 74, 75, 76, 77, 78, 79, 80, 81, 82, 83, 84, 85, 86, 87, 88, 89, 90, 91, 92, 93, 94, 95, 96, 97, 98, 99, 100, 101, 102, 103, 104, 105, 106, 107, 108, 109, 110, 111, 112, 113, 114, 115, 116, 117, 118, 119, 120, 121, 122, 123, 124, 125, 126, 127, 128, 129, 130, 131, 132, 133, 134, 135, 136, 137, 138, 139, 140, 141, 142, 143, 144, 145, 146, 147, 148, 149, 150, 151, 152, 153, 154, 155, 156, 157, 158, 159, 160, 161, 162, 163, 164, 165, 166, 167, 168, 169, 170, 171, 172, 173, 174, 175, 176, 177, 178, 179, 180, 181, 182, 183, 184, 185, 186, 187, 188, 189, 190, 191, 192, 193, 194, 195, 196, 197, 198, 199, 200, 201, 202, 203, 204, 205, 206, 207, 208, 209, 210, 211, 212, 213, 214, 215, 216, 217, 218, 219, 220, 221, 222, 223, 224, 225, 226, 227, 228, 229, 230, 231, 232, 233, 234, 235, 236, 237, 238, 239, 240, 241, 242, 243, 244, 245, 246, 247, 248, 249, 250, 251, 252, 253, 254, 255, 256, 257, 258, 259, 260, 261, 262, 263, 264, 265, 266, 267, 268, 269, 270, 271, 272, 273, 274, 275, 276, 277, 278, 279, 280, 281, 282, 283, 284, 285, 286, 287, 288, 289, 290, 291, 292, 293, 294, 295, 296, 297, 298, 299, 300, 301, 302, 303, 304, 305, 306, 307, 308, 309, 310, 311, 312, 313, 314, 315, 316, 317, 318, 319, 320, 321, 322, 323, 324, 325, 326, 327, 328, 329, 330, 331, 332, 333, 334, 335, 336, 337, 338, 339, 340, 341, 342, 343, 344, 345, 346, 347, 348, 349, 350, 351, 352, 353, 354, 355, 356, 357, 358, 359, 360, 361, 362, 363, 364, 365, 366, 367, 368, 369, 370, 371, 372, 373, 374, 375, 376, 377, 378, 379, 380, 381, 382, 383, 384, 385, 386, 387, 388, 389, 390, 391, 392, 393, 394, 395, 396, 397, 398, 399, 400, 401, 402, 403, 404, 405, 406, 407, 408, 409, 410, 411, 412, 413, 414, 415, 416, 417, 418, 419, 420, 421, 422, 423, 424, 425, 426, 427, 428, 429, 430, 431, 432, 433, 434, 435, 436, 437, 438, 439, 440, 441, 442, 443, 444, 445, 446, 447, 448, 449, 450, 451, 452, 453, 454, 455, 456, 457, 458, 459, 460, 461, 462, 463, 464, 465, 466, 467, 468, 469, 470, 471, 472, 473, 474, 475, 476, 477, 478, 479, 480, 481, 482, 483, 484, 485, 486, 487, 488, 489, 490, 491, 492, 493, 494, 495, 496, 497, 498, 499, 500, 501, 502, 503, 504, 505, 506, 507, 508, 509, 510, 511, 512, 513, 514, 515, 516, 517, 518, 519, 520, 521, 522, 523, 524, 525, 526, 527, 528, 529, 530, 531, 532, 533, 534, 535, 536, 537, 538, 539, 540, 541, 542, 543, 544, 545, 546, 547, 548, 549, 550, 551, 552, 553, 554, 555, 556, 557, 558, 559, 560, 561, 562, 563, 564, 565, 566, 567, 568, 569, 570, 571, 572, 573, 574, 575, 576, 577, 578, 579, 580, 581, 582, 583, 584, 585, 586, 587, 588, 589, 590, 591, 592, 593, 594, 595, 596, 597, 598, 599, 600, 601, 602, 603, 604, 605, 606, 607, 608, 609, 610, 611, 612, 613, 614, 615, 616, 617, 618, 619, 620, 621, 622, 623, 624, 625, 626, 627, 628, 629, 630, 631, 632, 633, 634, 635, 636, 637, 638, 639, 640, 641, 642, 643, 644, 645, 646, 647, 648, 649, 650, 651, 652, 653, 654, 655, 656, 657, 658, 659, 660, 661, 662, 663, 664, 665, 666, 667, 668, 669, 670, 671, 672, 673, 674, 675, 676, 677, 678, 679, 680, 681, 682, 683, 684, 685, 686, 687, 688, 689, 690, 691, 692, 693, 694, 695, 696, 697, 698, 699, 700, 701, 702, 703, 704, 705, 706, 707, 708, 709, 710, 711, 712, 713, 714, 715, 716, 717, 718, 719, 720, 721, 722, 723, 724, 725, 726, 727, 728, 729, 730, 731, 732, 733, 734, 735, 736, 737, 738, 739, 740, 741, 742, 743, 744, 745, 746, 747, 748, 749, 750, 751, 752, 753, 754, 755, 756, 757, 758, 759, 760, 761, 762, 763, 764, 765, 766, 767, 768, 769, 770, 771, 772, 773, 774, 775, 776, 777, 778, 779, 780, 781, 782, 783, 784, 785, 786, 787, 788, 789, 790, 791, 792, 793, 794, 795, 796, 797, 798, 799, 800, 801, 802, 803, 804, 805, 806, 807, 808, 809, 810, 811, 812, 813, 814, 815, 816, 817, 818, 819, 820, 821, 822, 823, 824, 825, 826, 827, 828, 829, 830, 831, 832, 833, 834, 835, 836, 837, 838, 839, 840, 841, 842, 843, 844, 845, 846, 847, 848, 849, 850, 851, 852, 853, 854, 855, 856, 857, 858, 859, 860, 861, 862, 863, 864, 865, 866, 867, 868, 869, 870, 871, 872, 873, 874, 875, 876, 877, 878, 879, 880, 881, 882, 883, 884, 885, 886, 887, 888, 889, 890, 891, 892, 893, 894, 895, 896, 897, 898, 899, 900, 901, 902, 903, 904, 905, 906, 907, 908, 909, 910, 911, 912, 913, 914, 915, 916, 917, 918, 919, 920, 921, 922, 923, 924, 925, 926, 927, 928, 929, 930, 931, 932, 933, 934, 935, 936, 937, 938, 939, 940, 941, 942, 943, 944, 945, 946, 947, 948, 949, 950, 951, 952, 953, 954, 955, 956, 957, 958, 959, 960, 961, 962, 963, 964, 965, 966, 967, 968, 969, 970, 971, 972, 973, 974, 975, 976, 977, 978, 979, 980, 981, 982, 983, 984, 985, 986, 987, 988, 989, 990, 991, 992, 993, 994, 995, 996, 997, 998, 999, 1000, 1001, 1002, 1003, 1004, 1005, 1006, 1007, 1008, 1009, 1010, 1011, 1012, 1013, 1014, 1015, 1016, 1017, 1018, 1019, 1020, 1021, 1022, 1023, 1024, 1025, 1026, 1027, 1028, 1029, 1030, 1031, 1032, 1033, 1034, 1035, 1036, 1037, 1038, 1039, 1040, 1041, 1042, 1043, 1044, 1045, 1046, 1047, 1048, 1049, 1050, 1051, 1052, 1053, 1054, 1055, 1056, 1057, 1058, 1059, 1060, 1061, 1062, 1063, 1064, 1065, 1066, 1067, 1068, 1069, 1070],
      "AcquisitionTime": ["140350.560000", "140351.347500", "140352.137500", "140352.925000", "140353.712500", "140354.500000", "140355.290000", "140356.077500", "140356.865000", "140357.652500", "140358.442500", "140359.230000", "140400.017500", "140400.805000", "140401.595000", "140402.382500", "140403.170000", "140403.957500", "140404.747500", "140405.535000", "140406.322500", "140407.112500", "140407.900000", "140408.687500", "140409.475000", "140410.265000", "140411.052500", "140411.840000", "140412.627500", "140413.417500", "140414.205000", "140414.992500", "140415.780000", "140416.570000", "140417.357500", "140418.145000", "140418.932500", "140419.722500", "140420.510000", "140421.297500", "140422.085000", "140422.875000", "140423.662500", "140424.450000", "140425.240000", "140426.027500", "140426.815000", "140427.602500", "140428.392500", "140429.180000", "140429.967500", "140430.755000", "140431.545000", "140432.332500", "140433.120000", "140433.907500", "140434.697500", "140435.485000", "140436.272500", "140437.060000", "140437.850000", "140438.637500", "140439.425000", "140440.215000", "140441.002500", "140441.790000", "140442.577500", "140443.367500", "140444.155000", "140444.942500", "140445.730000", "140446.520000", "140447.307500", "140448.095000", "140448.882500", "140449.672500", "140450.460000", "140451.247500", "140452.035000", "140452.825000", "140453.612500", "140454.400000", "140455.187500", "140455.977500", "140456.765000", "140457.552500", "140458.342500", "140459.130000", "140459.917500", "140500.705000", "140501.495000", "140502.282500", "140503.070000", "140503.857500", "140504.647500", "140505.435000", "140506.222500", "140507.010000", "140507.800000", "140508.587500", "140509.375000", "140510.162500", "140510.952500", "140511.740000", "140512.527500", "140513.315000", "140514.105000", "140514.892500", "140515.680000", "140516.470000", "140517.257500", "140518.045000", "140518.832500", "140519.622500", "140520.410000", "140521.197500", "140521.985000", "140522.775000", "140523.562500", "140524.350000", "140525.137500", "140525.927500", "140526.715000", "140527.502500", "140528.290000", "140529.080000", "140529.867500", "140530.655000", "140531.442500", "140532.232500", "140533.020000", "140533.807500", "140534.597500", "140535.385000", "140536.172500", "140536.960000", "140537.750000", "140538.537500", "140539.325000", "140540.112500", "140540.902500", "140541.690000", "140542.477500", "140543.265000", "140544.055000", "140544.842500", "140545.630000", "140546.417500", "140547.207500", "140547.995000", "140548.782500", "140549.570000", "140550.360000", "140551.147500", "140551.935000", "140552.725000", "140553.512500", "140554.300000", "140555.087500", "140555.877500", "140556.665000", "140557.452500", "140558.240000", "140559.030000", "140559.817500", "140600.605000", "140601.392500", "140602.182500", "140602.970000", "140603.757500", "140604.545000", "140605.335000", "140606.122500", "140606.910000", "140607.697500", "140608.487500", "140609.275000", "140610.062500", "140610.852500", "140611.640000", "140612.427500", "140613.215000", "140614.005000", "140614.792500", "140615.580000", "140616.367500", "140617.157500", "140617.945000", "140618.732500", "140619.520000", "140620.310000", "140621.097500", "140621.885000", "140622.672500", "140623.462500", "140624.250000", "140625.037500", "140625.825000", "140626.615000", "140627.402500", "140628.190000", "140628.980000", "140629.767500", "140630.555000", "140631.342500", "140632.132500", "140632.920000", "140633.707500", "140634.495000", "140635.285000", "140636.072500", "140636.860000", "140637.647500", "140638.437500", "140639.225000", "140640.012500", "140640.800000", "140641.590000", "140642.377500", "140643.165000", "140643.952500", "140644.742500", "140645.530000", "140646.317500", "140647.107500", "140647.895000", "140648.682500", "140649.470000", "140650.260000", "140651.047500", "140651.835000", "140652.622500", "140653.412500", "140654.200000", "140654.987500", "140655.775000", "140656.565000", "140657.352500", "140658.140000", "140658.927500", "140659.717500", "140700.505000", "140701.292500", "140702.080000", "140702.870000", "140703.657500", "140704.445000", "140705.235000", "140706.022500", "140706.810000", "140707.597500", "140708.387500", "140709.175000", "140709.962500", "140710.750000", "140711.540000", "140712.327500", "140713.115000", "140713.902500", "140714.692500", "140715.480000", "140716.267500", "140717.055000", "140717.845000", "140718.632500", "140719.420000", "140720.207500", "140720.997500", "140721.785000", "140722.572500", "140723.362500", "140724.150000", "140724.937500", "140725.725000", "140726.515000", "140727.302500", "140728.090000", "140728.877500", "140729.667500", "140730.455000", "140731.242500", "140732.030000", "140732.820000", "140733.607500", "140734.395000", "140735.182500", "140735.972500", "140736.760000", "140737.547500", "140738.335000", "140739.125000", "140739.912500", "140740.700000", "140741.490000", "140742.277500", "140743.065000", "140743.852500", "140744.642500", "140745.430000", "140746.217500", "140747.005000", "140747.795000", "140748.582500", "140749.370000", "140750.157500", "140750.947500", "140751.735000", "140752.522500", "140753.310000", "140754.100000", "140754.887500", "140755.675000", "140756.465000", "140757.252500", "140758.040000", "140758.827500", "140759.617500", "140800.405000", "140801.192500", "140801.980000", "140802.770000", "140803.557500", "140804.345000", "140805.132500", "140805.922500", "140806.710000", "140807.497500", "140808.285000", "140809.075000", "140809.862500", "140810.650000", "140811.437500", "140812.227500", "140813.015000", "140813.802500", "140814.592500", "140815.380000", "140816.167500", "140816.955000", "140817.745000", "140818.532500", "140819.320000", "140820.107500", "140820.897500", "140821.685000", "140822.472500", "140823.260000", "140824.050000", "140824.837500", "140825.625000", "140826.412500", "140827.202500", "140827.990000", "140828.777500", "140829.565000", "140830.355000", "140831.142500", "140831.930000", "140832.720000", "140833.507500", "140834.295000", "140835.082500", "140835.872500", "140836.660000", "140837.447500", "140838.235000", "140839.025000", "140839.812500", "140840.600000", "140841.387500", "140842.177500", "140842.965000", "140843.752500", "140844.540000", "140845.330000", "140846.117500", "140846.905000", "140847.692500", "140848.482500", "140849.270000", "140850.057500", "140850.847500", "140851.635000", "140852.422500", "140853.210000", "140854.000000", "140854.787500", "140855.575000", "140856.362500", "140857.152500", "140857.940000", "140858.727500", "140859.515000", "140900.305000", "140901.092500", "140901.880000", "140902.667500", "140903.457500", "140904.245000", "140905.032500", "140905.820000", "140906.610000", "140907.397500", "140908.185000", "140908.975000", "140909.762500", "140910.550000", "140911.337500", "140912.127500", "140912.915000", "140913.702500", "140914.490000", "140915.280000", "140916.067500", "140916.855000", "140917.642500", "140918.432500", "140919.220000", "140920.007500", "140920.795000", "140921.585000", "140922.372500", "140923.160000", "140923.947500", "140924.737500", "140925.525000", "140926.312500", "140927.102500", "140927.890000", "140928.677500", "140929.465000", "140930.255000", "140931.042500", "140931.830000", "140932.617500", "140933.407500", "140934.195000", "140934.982500", "140935.770000", "140936.560000", "140937.347500", "140938.135000", "140938.922500", "140939.712500", "140940.500000", "140941.287500", "140942.075000", "140942.865000", "140943.652500", "140944.440000", "140945.230000", "140946.017500", "140946.805000", "140947.592500", "140948.382500", "140949.170000", "140949.957500", "140950.745000", "140951.535000", "140952.322500", "140953.110000", "140953.897500", "140954.687500", "140955.475000", "140956.262500", "140957.050000", "140957.840000", "140958.627500", "140959.415000", "141000.202500", "141000.992500", "141001.780000", "141002.567500", "141003.357500", "141004.145000", "141004.932500", "141005.720000", "141006.510000", "141007.297500", "141008.085000", "141008.872500", "141009.662500", "141010.450000", "141011.237500", "141012.025000", "141012.815000", "141013.602500", "141014.390000", "141015.177500", "141015.967500", "141016.755000", "141017.542500", "141018.330000", "141019.120000", "141019.907500", "141020.695000", "141021.485000", "141022.272500", "141023.060000", "141023.847500", "141024.637500", "141025.425000", "141026.212500", "141027.000000", "141027.790000", "141028.577500", "141029.365000", "141030.152500", "141030.942500", "141031.730000", "141032.517500", "141033.305000", "141034.095000", "141034.882500", "141035.670000", "141036.457500", "141037.247500", "141038.035000", "141038.822500", "141039.612500", "141040.400000", "141041.187500", "141041.975000", "141042.765000", "141043.552500", "141044.340000", "141045.127500", "141045.917500", "141046.705000", "141047.492500", "141048.280000", "141049.070000", "141049.857500", "141050.645000", "141051.432500", "141052.222500", "141053.010000", "141053.797500", "141054.585000", "141055.375000", "141056.162500", "141056.950000", "141057.740000", "141058.527500", "141059.315000", "141100.102500", "141100.892500", "141101.680000", "141102.467500", "141103.255000", "141104.045000", "141104.832500", "141105.620000", "141106.407500", "141107.197500", "141107.985000", "141108.772500", "141109.560000", "141110.350000", "141111.137500", "141111.925000", "141112.715000", "141113.502500", "141114.290000", "141115.077500", "141115.867500", "141116.655000", "141117.442500", "141118.230000", "141119.020000", "141119.807500", "141120.595000", "141121.382500", "141122.172500", "141122.960000", "141123.747500", "141124.535000", "141125.325000", "141126.112500", "141126.900000", "141127.687500", "141128.477500", "141129.265000", "141130.052500", "141130.842500", "141131.630000", "141132.417500", "141133.205000", "141133.995000", "141134.782500", "141135.570000", "141136.357500", "141137.147500", "141137.935000", "141138.722500", "141139.510000", "141140.300000", "141141.087500", "141141.875000", "141142.662500", "141143.452500", "141144.240000", "141145.027500", "141145.815000", "141146.605000", "141147.392500", "141148.180000", "141148.970000", "141149.757500", "141150.545000", "141151.332500", "141152.122500", "141152.910000", "141153.697500", "141154.485000", "141155.275000", "141156.062500", "141156.850000", "141157.637500", "141158.427500", "141159.215000", "141200.002500", "141200.790000", "141201.580000", "141202.367500", "141203.155000", "141203.942500", "141204.732500", "141205.520000", "141206.307500", "141207.097500", "141207.885000", "141208.672500", "141209.460000", "141210.250000", "141211.037500", "141211.825000", "141212.612500", "141213.402500", "141214.190000", "141214.977500", "141215.765000", "141216.555000", "141217.342500", "141218.130000", "141218.917500", "141219.707500", "141220.495000", "141221.282500", "141222.070000", "141222.860000", "141223.647500", "141224.435000", "141225.225000", "141226.012500", "141226.800000", "141227.587500", "141228.377500", "141229.165000", "141229.952500", "141230.740000", "141231.530000", "141232.317500", "141233.105000", "141233.892500", "141234.682500", "141235.470000", "141236.257500", "141237.045000", "141237.835000", "141238.622500", "141239.410000", "141240.197500", "141240.987500", "141241.775000", "141242.562500", "141243.352500", "141244.140000", "141244.927500", "141245.715000", "141246.505000", "141247.292500", "141248.080000", "141248.867500", "141249.657500", "141250.445000", "141251.232500", "141252.020000", "141252.810000", "141253.597500", "141254.385000", "141255.172500", "141255.962500", "141256.750000", "141257.537500", "141258.325000", "141259.115000", "141259.902500", "141300.690000", "141301.480000", "141302.267500", "141303.055000", "141303.842500", "141304.632500", "141305.420000", "141306.207500", "141306.995000", "141307.785000", "141308.572500", "141309.360000", "141310.147500", "141310.937500", "141311.725000", "141312.512500", "141313.300000", "141314.090000", "141314.877500", "141315.665000", "141316.452500", "141317.242500", "141318.030000", "141318.817500", "141319.607500", "141320.395000", "141321.182500", "141321.970000", "141322.760000", "141323.547500", "141324.335000", "141325.122500", "141325.912500", "141326.700000", "141327.487500", "141328.275000", "141329.065000", "141329.852500", "141330.640000", "141331.427500", "141332.217500", "141333.005000", "141333.792500", "141334.580000", "141335.370000", "141336.157500", "141336.945000", "141337.735000", "141338.522500", "141339.310000", "141340.097500", "141340.887500", "141341.675000", "141342.462500", "141343.250000", "141344.040000", "141344.827500", "141345.615000", "141346.402500", "141347.192500", "141347.980000", "141348.767500", "141349.555000", "141350.345000", "141351.132500", "141351.920000", "141352.707500", "141353.497500", "141354.285000", "141355.072500", "141355.862500", "141356.650000", "141357.437500", "141358.225000", "141359.015000", "141359.802500", "141400.590000", "141401.377500", "141402.167500", "141402.955000", "141403.742500", "141404.530000", "141405.320000", "141406.107500", "141406.895000", "141407.682500", "141408.472500", "141409.260000", "141410.047500", "141410.835000", "141411.625000", "141412.412500", "141413.200000", "141413.990000", "141414.777500", "141415.565000", "141416.352500", "141417.142500", "141417.930000", "141418.717500", "141419.505000", "141420.295000", "141421.082500", "141421.870000", "141422.657500", "141423.447500", "141424.235000", "141425.022500", "141425.810000", "141426.600000", "141427.387500", "141428.175000", "141428.965000", "141429.752500", "141430.540000", "141431.327500", "141432.117500", "141432.905000", "141433.692500", "141434.480000", "141435.270000", "141436.057500", "141436.845000", "141437.632500", "141438.422500", "141439.210000", "141439.997500", "141440.785000", "141441.575000", "141442.362500", "141443.150000", "141443.937500", "141444.727500", "141445.515000", "141446.302500", "141447.092500", "141447.880000", "141448.667500", "141449.455000", "141450.245000", "141451.032500", "141451.820000", "141452.607500", "141453.397500", "141454.185000", "141454.972500", "141455.760000", "141456.550000", "141457.337500", "141458.125000", "141458.912500", "141459.702500", "141500.490000", "141501.277500", "141502.065000", "141502.855000", "141503.642500", "141504.430000", "141505.220000", "141506.007500", "141506.795000", "141507.582500", "141508.372500", "141509.160000", "141509.947500", "141510.735000", "141511.525000", "141512.312500", "141513.100000", "141513.887500", "141514.677500", "141515.465000", "141516.252500", "141517.040000", "141517.830000", "141518.617500", "141519.405000", "141520.192500", "141520.982500", "141521.770000", "141522.557500", "141523.347500", "141524.135000", "141524.922500", "141525.710000", "141526.500000", "141527.287500", "141528.075000", "141528.862500", "141529.652500", "141530.440000", "141531.227500", "141532.015000", "141532.805000", "141533.592500", "141534.380000", "141535.167500", "141535.957500", "141536.745000", "141537.532500", "141538.320000", "141539.110000", "141539.897500", "141540.685000", "141541.475000", "141542.262500", "141543.050000", "141543.837500", "141544.627500", "141545.415000", "141546.202500", "141546.990000", "141547.780000", "141548.567500", "141549.355000", "141550.142500", "141550.932500", "141551.720000", "141552.507500", "141553.295000", "141554.085000", "141554.872500", "141555.660000", "141556.447500", "141557.237500", "141558.025000", "141558.812500", "141559.602500", "141600.390000", "141601.177500", "141601.965000", "141602.755000", "141603.542500", "141604.330000", "141605.117500", "141605.907500", "141606.695000", "141607.482500", "141608.270000", "141609.060000", "141609.847500", "141610.635000", "141611.422500", "141612.212500", "141613.000000", "141613.787500", "141614.575000", "141615.365000", "141616.152500", "141616.940000", "141617.730000", "141618.517500", "141619.305000", "141620.092500", "141620.882500", "141621.670000", "141622.457500", "141623.245000", "141624.035000", "141624.822500", "141625.610000", "141626.397500", "141627.187500", "141627.975000", "141628.762500", "141629.550000", "141630.340000", "141631.127500", "141631.915000", "141632.702500", "141633.492500", "141634.280000", "141635.067500", "141635.857500", "141636.645000", "141637.432500", "141638.220000", "141639.010000", "141639.797500", "141640.585000", "141641.372500", "141642.162500", "141642.950000", "141643.737500", "141644.525000", "141645.315000", "141646.102500", "141646.890000", "141647.677500", "141648.467500", "141649.255000", "141650.042500", "141650.830000", "141651.620000", "141652.407500", "141653.195000", "141653.985000", "141654.772500", "141655.560000", "141656.347500", "141657.137500", "141657.925000", "141658.712500", "141659.500000", "141700.290000", "141701.077500", "141701.865000", "141702.652500", "141703.442500", "141704.230000", "141705.017500", "141705.805000", "141706.595000", "141707.382500", "141708.170000", "141708.957500", "141709.747500", "141710.535000", "141711.322500", "141712.112500", "141712.900000", "141713.687500", "141714.475000", "141715.265000", "141716.052500", "141716.840000", "141717.627500", "141718.417500", "141719.205000", "141719.992500", "141720.780000", "141721.570000", "141722.357500", "141723.145000", "141723.932500", "141724.722500", "141725.510000", "141726.297500", "141727.085000", "141727.875000", "141728.662500", "141729.450000", "141730.240000", "141731.027500", "141731.815000", "141732.602500", "141733.392500", "141734.180000", "141734.967500", "141735.755000", "141736.545000", "141737.332500", "141738.120000", "141738.907500", "141739.697500", "141740.485000", "141741.272500", "141742.060000", "141742.850000", "141743.637500", "141744.425000", "141745.215000", "141746.002500", "141746.790000", "141747.577500", "141748.367500", "141749.155000", "141749.942500", "141750.730000", "141751.520000", "141752.307500", "141753.095000"],
