{
  "AcquisitionMatrixPE": 104,
  "AcquisitionNumber": 1,
  "AcquisitionTime": "12:38:37.722500",
  "BandwidthPerPixelPhaseEncode": 13.935,
  "BaseResolution": 104,
  "CoilString": "C:HEA;HEP",
  "ConversionSoftware": "dcm2niix",
  "ConversionSoftwareVersion": "v1.0.20210317",
  "DerivedVendorReportedEchoSpacing": 0.000690017,
  "DeviceSerialNumber": "35450",
  "DwellTime": 2.5e-06,
  "EchoTime": 0.0348,
  "EffectiveEchoSpacing": 0.000690017,
  "FlipAngle": 55,
  "ImageComments": "Unaliased MB8/PE3 (remote)",
  "ImageOrientationPatientDICOM": [0.999046, 0.00668102, 0.0431586, 6.15192e-09, 0.988229, -0.15298],
  "ImageType": [
    "ORIGINAL",
    "PRIMARY",
    "M",
    "MB",
    "ND",
    "MOSAIC"
],
  "ImagingFrequency": 123.234,
  "InPlanePhaseEncodingDirectionDICOM": "COL",
  "InstitutionAddress": "Univeristy Ave. 197,Newark,North East,US,07102-1814",
  "InstitutionName": "RUBIC",
  "InstitutionalDepartmentName": "Department",
  "MRAcquisitionType": "2D",
  "MagneticFieldStrength": 3,
  "Manufacturer": "Siemens",
  "ManufacturersModelName": "TrioTim",
  "Modality": "MR",
  "MultibandAccelerationFactor": 8,
  "PartialFourier": 0.875,
  "PatientPosition": "HFS",
  "PercentPhaseFOV": 100,
  "PercentSampling": 100,
  "PhaseEncodingDirection": "j-",
  "PhaseEncodingSteps": 91,
  "PhaseResolution": 1,
  "PixelBandwidth": 1923,
  "ProcedureStepDescription": "Cole^Michael",
  "ProtocolName": "cmrr_mbep2d_bold_2mm_MB8_Task_8x",
  "PulseSequenceDetails": "%CustomerSeq%\\cmrr_mbep2d_bold",
  "ReceiveCoilName": "32Ch_Head",
  "ReconMatrixPE": 104,
  "RepetitionTime": 0.785,
  "SAR": 0.131206,
  "ScanOptions": "PFP\\FS",
  "ScanningSequence": "EP",
  "SequenceName": "epfid2d1_104",
  "SequenceVariant": "SK\\SS",
  "SeriesDescription": "cmrr_mbep2d_bold_2mm_MB8_Task_8x",
  "SeriesNumber": 28,
  "ShimSetting": [2152, -381, -7328, 639, -176, -1, 127, -45],
  "SliceThickness": 2,
  "SliceTiming": [0, 0.4375, 0.0875, 0.525, 0.175, 0.6125, 0.2625, 0.7, 0.35, 0, 0.4375, 0.0875, 0.525, 0.175, 0.6125, 0.2625, 0.7, 0.35, 0, 0.4375, 0.0875, 0.525, 0.175, 0.6125, 0.2625, 0.7, 0.35, 0, 0.4375, 0.0875, 0.525, 0.175, 0.6125, 0.2625, 0.7, 0.35, 0, 0.4375, 0.0875, 0.525, 0.175, 0.6125, 0.2625, 0.7, 0.35, 0, 0.4375, 0.0875, 0.525, 0.175, 0.6125, 0.2625, 0.7, 0.35, 0, 0.4375, 0.0875, 0.525, 0.175, 0.6125, 0.2625, 0.7, 0.35, 0, 0.4375, 0.0875, 0.525, 0.175, 0.6125, 0.2625, 0.7, 0.35],
  "SoftwareVersions": "syngo MR B19",
  "SpacingBetweenSlices": 2,
  "StationName": "MRC35450",
  "TaskName": "cpro",
  "TotalReadoutTime": 0.0710717,
  "TxRefAmp": 347.613,
  "dcmmeta_affine": [
    [-1.9980918169021606, 1.2303834395765989e-08, 0.08734536916017532, 107.62000274658203],
    [-0.013362041674554348, 1.9764586687088013, -0.3056671619415283, -80.89434814453125],
    [0.08631725609302521, 0.3059590756893158, 1.9745728969573975, -128.68344116210938],
    [0.0, 0.0, 0.0, 1.0]
],
  "dcmmeta_reorient_transform": [
    [0.0, -1.0, 0.0, 103.0],
    [1.0, 0.0, 0.0, 0.0],
    [0.0, 0.0, 1.0, 0.0],
    [0.0, 0.0, 0.0, 1.0]
],
  "dcmmeta_shape": [104, 104, 72, 581],
  "dcmmeta_slice_dim": 2,
  "dcmmeta_version": 0.6,
  "global": {
    "const": {
      "AcquisitionMatrix": [104, 0, 0, 104],
      "AngioFlag": "N",
      "BitsAllocated": 16,
      "BitsStored": 12,
      "Columns": 936,
      "EchoNumbers": 1,
      "EchoTime": 34.8,
      "EchoTrainLength": 1,
      "FlipAngle": 55.0,
      "HighBit": 11,
      "ImageOrientationPatient": [0.99904589321385, 0.00668102074528, 0.04315862850396, 6.151917e-09, 0.98822935670289, -0.1529795363786],
      "ImagePositionPatient": [-938.82618888193, -950.4463298137, -5.7986641649119],
      "ImageType": [
        "ORIGINAL",
        "PRIMARY",
        "M",
        "MB",
        "ND",
        "MOSAIC"
],
      "ImagedNucleus": "1H",
      "ImagingFrequency": 123.234471,
      "InPlanePhaseEncodingDirection": "COL",
      "MRAcquisitionType": "2D",
      "MagneticFieldStrength": 3.0,
      "Manufacturer": "SIEMENS",
      "ManufacturerModelName": "TrioTim",
      "Modality": "MR",
      "NumberOfAverages": 1.0,
      "NumberOfPhaseEncodingSteps": 91,
      "PercentPhaseFieldOfView": 100.0,
      "PercentSampling": 100.0,
      "PerformedProcedureStepStartTime": "102321.359000",
      "PhotometricInterpretation": "MONOCHROME2",
      "PixelBandwidth": 1923.0,
      "PixelRepresentation": 0,
      "PixelSpacing": [2.0, 2.0],
      "ProtocolName": "cmrr_mbep2d_bold_2mm_MB8_Task_8x",
      "RepetitionTime": 785.0,
      "Rows": 936,
      "SAR": 0.13120641713045,
      "SamplesPerPixel": 1,
      "ScanOptions": [
        "PFP",
        "FS"
],
      "ScanningSequence": "EP",
      "SequenceName": "epfid2d1_104",
      "SequenceVariant": [
        "SK",
        "SS"
],
      "SeriesDescription": "cmrr_mbep2d_bold_2mm_MB8_Task_8x",
      "SeriesNumber": 28,
      "SeriesTime": "123855.750000",
      "SliceLocation": -109.98399718561,
      "SliceThickness": 2.0,
      "SmallestImagePixelValue": 0,
      "SoftwareVersions": "syngo MR B19",
      "SpacingBetweenSlices": 1.999999987165,
      "SpecificCharacterSet": "ISO_IR 100",
      "StudyID": "1",
      "StudyTime": "102321.312000",
      "TransmitCoilName": "Body",
      "VariableFlipAngleFlag": "N",
      "WindowCenterWidthExplanation": "Algo1",
      "dBdt": 0.0},
    "slices": {}
  },
  "time": {
    "samples": {
      "AcquisitionNumber": [1, 2, 3, 4, 5, 6, 7, 8, 9, 10, 11, 12, 13, 14, 15, 16, 17, 18, 19, 20, 21, 22, 23, 24, 25, 26, 27, 28, 29, 30, 31, 32, 33, 34, 35, 36, 37, 38, 39, 40, 41, 42, 43, 44, 45, 46, 47, 48, 49, 50, 51, 52, 53, 54, 55, 56, 57, 58, 59, 60, 61, 62, 63, 64, 65, 66, 67, 68, 69, 70, 71, 72, 73, 74, 75, 76, 77, 78, 79, 80, 81, 82, 83, 84, 85, 86, 87, 88, 89, 90, 91, 92, 93, 94, 95, 96, 97, 98, 99, 100, 101, 102, 103, 104, 105, 106, 107, 108, 109, 110, 111, 112, 113, 114, 115, 116, 117, 118, 119, 120, 121, 122, 123, 124, 125, 126, 127, 128, 129, 130, 131, 132, 133, 134, 135, 136, 137, 138, 139, 140, 141, 142, 143, 144, 145, 146, 147, 148, 149, 150, 151, 152, 153, 154, 155, 156, 157, 158, 159, 160, 161, 162, 163, 164, 165, 166, 167, 168, 169, 170, 171, 172, 173, 174, 175, 176, 177, 178, 179, 180, 181, 182, 183, 184, 185, 186, 187, 188, 189, 190, 191, 192, 193, 194, 195, 196, 197, 198, 199, 200, 201, 202, 203, 204, 205, 206, 207, 208, 209, 210, 211, 212, 213, 214, 215, 216, 217, 218, 219, 220, 221, 222, 223, 224, 225, 226, 227, 228, 229, 230, 231, 232, 233, 234, 235, 236, 237, 238, 239, 240, 241, 242, 243, 244, 245, 246, 247, 248, 249, 250, 251, 252, 253, 254, 255, 256, 257, 258, 259, 260, 261, 262, 263, 264, 265, 266, 267, 268, 269, 270, 271, 272, 273, 274, 275, 276, 277, 278, 279, 280, 281, 282, 283, 284, 285, 286, 287, 288, 289, 290, 291, 292, 293, 294, 295, 296, 297, 298, 299, 300, 301, 302, 303, 304, 305, 306, 307, 308, 309, 310, 311, 312, 313, 314, 315, 316, 317, 318, 319, 320, 321, 322, 323, 324, 325, 326, 327, 328, 329, 330, 331, 332, 333, 334, 335, 336, 337, 338, 339, 340, 341, 342, 343, 344, 345, 346, 347, 348, 349, 350, 351, 352, 353, 354, 355, 356, 357, 358, 359, 360, 361, 362, 363, 364, 365, 366, 367, 368, 369, 370, 371, 372, 373, 374, 375, 376, 377, 378, 379, 380, 381, 382, 383, 384, 385, 386, 387, 388, 389, 390, 391, 392, 393, 394, 395, 396, 397, 398, 399, 400, 401, 402, 403, 404, 405, 406, 407, 408, 409, 410, 411, 412, 413, 414, 415, 416, 417, 418, 419, 420, 421, 422, 423, 424, 425, 426, 427, 428, 429, 430, 431, 432, 433, 434, 435, 436, 437, 438, 439, 440, 441, 442, 443, 444, 445, 446, 447, 448, 449, 450, 451, 452, 453, 454, 455, 456, 457, 458, 459, 460, 461, 462, 463, 464, 465, 466, 467, 468, 469, 470, 471, 472, 473, 474, 475, 476, 477, 478, 479, 480, 481, 482, 483, 484, 485, 486, 487, 488, 489, 490, 491, 492, 493, 494, 495, 496, 497, 498, 499, 500, 501, 502, 503, 504, 505, 506, 507, 508, 509, 510, 511, 512, 513, 514, 515, 516, 517, 518, 519, 520, 521, 522, 523, 524, 525, 526, 527, 528, 529, 530, 531, 532, 533, 534, 535, 536, 537, 538, 539, 540, 541, 542, 543, 544, 545, 546, 547, 548, 549, 550, 551, 552, 553, 554, 555, 556, 557, 558, 559, 560, 561, 562, 563, 564, 565, 566, 567, 568, 569, 570, 571, 572, 573, 574, 575, 576, 577, 578, 579, 580, 581],
      "AcquisitionTime": ["123837.722500", "123838.510000", "123839.300000", "123840.087500", "123840.875000", "123841.662500", "123842.452500", "123843.240000", "123844.027500", "123844.815000", "123845.605000", "123846.392500", "123847.180000", "123847.967500", "123848.757500", "123849.545000", "123850.332500", "123851.122500", "123851.910000", "123852.697500", "123853.485000", "123854.275000", "123855.062500", "123855.850000", "123856.637500", "123857.427500", "123858.215000", "123859.002500", "123859.790000", "123900.580000", "123901.367500", "123902.155000", "123902.942500", "123903.732500", "123904.520000", "123905.307500", "123906.095000", "123906.885000", "123907.672500", "123908.460000", "123909.250000", "123910.037500", "123910.825000", "123911.612500", "123912.402500", "123913.190000", "123913.977500", "123914.765000", "123915.555000", "123916.342500", "123917.130000", "123917.917500", "123918.707500", "123919.495000", "123920.282500", "123921.070000", "123921.860000", "123922.647500", "123923.435000", "123924.222500", "123925.012500", "123925.800000", "123926.587500", "123927.377500", "123928.165000", "123928.952500", "123929.740000", "123930.530000", "123931.317500", "123932.105000", "123932.892500", "123933.682500", "123934.470000", "123935.257500", "123936.045000", "123936.835000", "123937.622500", "123938.410000", "123939.197500", "123939.987500", "123940.775000", "123941.562500", "123942.350000", "123943.140000", "123943.927500", "123944.715000", "123945.505000", "123946.292500", "123947.080000", "123947.867500", "123948.657500", "123949.445000", "123950.232500", "123951.020000", "123951.810000", "123952.597500", "123953.385000", "123954.172500", "123954.962500", "123955.750000", "123956.537500", "123957.325000", "123958.115000", "123958.902500", "123959.690000", "124000.477500", "124001.267500", "124002.055000", "124002.842500", "124003.632500", "124004.420000", "124005.207500", "124005.995000", "124006.785000", "124007.572500", "124008.360000", "124009.147500", "124009.937500", "124010.725000", "124011.512500", "124012.300000", "124013.090000", "124013.877500", "124014.665000", "124015.452500", "124016.242500", "124017.030000", "124017.817500", "124018.605000", "124019.395000", "124020.182500", "124020.970000", "124021.760000", "124022.547500", "124023.335000", "124024.122500", "124024.912500", "124025.700000", "124026.487500", "124027.275000", "124028.065000", "124028.852500", "124029.640000", "124030.427500", "124031.217500", "124032.005000", "124032.792500", "124033.580000", "124034.370000", "124035.157500", "124035.945000", "124036.735000", "124037.522500", "124038.310000", "124039.097500", "124039.887500", "124040.675000", "124041.462500", "124042.250000", "124043.040000", "124043.827500", "124044.615000", "124045.402500", "124046.192500", "124046.980000", "124047.767500", "124048.555000", "124049.345000", "124050.132500", "124050.920000", "124051.707500", "124052.497500", "124053.285000", "124054.072500", "124054.862500", "124055.650000", "124056.437500", "124057.225000", "124058.015000", "124058.802500", "124059.590000", "124100.377500", "124101.167500", "124101.955000", "124102.742500", "124103.530000", "124104.320000", "124105.107500", "124105.895000", "124106.682500", "124107.472500", "124108.260000", "124109.047500", "124109.835000", "124110.625000", "124111.412500", "124112.200000", "124112.990000", "124113.777500", "124114.565000", "124115.352500", "124116.142500", "124116.930000", "124117.717500", "124118.505000", "124119.295000", "124120.082500", "124120.870000", "124121.657500", "124122.447500", "124123.235000", "124124.022500", "124124.810000", "124125.600000", "124126.387500", "124127.175000", "124127.962500", "124128.752500", "124129.540000", "124130.327500", "124131.117500", "124131.905000", "124132.692500", "124133.480000", "124134.270000", "124135.057500", "124135.845000", "124136.632500", "124137.422500", "124138.210000", "124138.997500", "124139.785000", "124140.575000", "124141.362500", "124142.150000", "124142.937500", "124143.727500", "124144.515000", "124145.302500", "124146.090000", "124146.880000", "124147.667500", "124148.455000", "124149.245000", "124150.032500", "124150.820000", "124151.607500", "124152.397500", "124153.185000", "124153.972500", "124154.760000", "124155.550000", "124156.337500", "124157.125000", "124157.912500", "124158.702500", "124159.490000", "124200.277500", "124201.065000", "124201.855000", "124202.642500", "124203.430000", "124204.217500", "124205.007500", "124205.795000", "124206.582500", "124207.372500", "124208.160000", "124208.947500", "124209.735000", "124210.525000", "124211.312500", "124212.100000", "124212.887500", "124213.677500", "124214.465000", "124215.252500", "124216.040000", "124216.830000", "124217.617500", "124218.405000", "124219.192500", "124219.982500", "124220.770000", "124221.557500", "124222.345000", "124223.135000", "124223.922500", "124224.710000", "124225.500000", "124226.287500", "124227.075000", "124227.862500", "124228.652500", "124229.440000", "124230.227500", "124231.015000", "124231.805000", "124232.592500", "124233.380000", "124234.167500", "124234.957500", "124235.745000", "124236.532500", "124237.320000", "124238.110000", "124238.897500", "124239.685000", "124240.472500", "124241.262500", "124242.050000", "124242.837500", "124243.627500", "124244.415000", "124245.202500", "124245.990000", "124246.780000", "124247.567500", "124248.355000", "124249.142500", "124249.932500", "124250.720000", "124251.507500", "124252.295000", "124253.085000", "124253.872500", "124254.660000", "124255.447500", "124256.237500", "124257.025000", "124257.812500", "124258.600000", "124259.390000", "124300.177500", "124300.965000", "124301.755000", "124302.542500", "124303.330000", "124304.117500", "124304.907500", "124305.695000", "124306.482500", "124307.270000", "124308.060000", "124308.847500", "124309.635000", "124310.422500", "124311.212500", "124312.000000", "124312.787500", "124313.575000", "124314.365000", "124315.152500", "124315.940000", "124316.727500", "124317.517500", "124318.305000", "124319.092500", "124319.882500", "124320.670000", "124321.457500", "124322.245000", "124323.035000", "124323.822500", "124324.610000", "124325.397500", "124326.187500", "124326.975000", "124327.762500", "124328.550000", "124329.340000", "124330.127500", "124330.915000", "124331.702500", "124332.492500", "124333.280000", "124334.067500", "124334.855000", "124335.645000", "124336.432500", "124337.220000", "124338.010000", "124338.797500", "124339.585000", "124340.372500", "124341.162500", "124341.950000", "124342.737500", "124343.525000", "124344.315000", "124345.102500", "124345.890000", "124346.677500", "124347.467500", "124348.255000", "124349.042500", "124349.830000", "124350.620000", "124351.407500", "124352.195000", "124352.985000", "124353.772500", "124354.560000", "124355.347500", "124356.137500", "124356.925000", "124357.712500", "124358.500000", "124359.290000", "124400.077500", "124400.865000", "124401.652500", "124402.442500", "124403.230000", "124404.017500", "124404.805000", "124405.595000", "124406.382500", "124407.170000", "124407.957500", "124408.747500", "124409.535000", "124410.322500", "124411.112500", "124411.900000", "124412.687500", "124413.475000", "124414.265000", "124415.052500", "124415.840000", "124416.627500", "124417.417500", "124418.205000", "124418.992500", "124419.780000", "124420.570000", "124421.357500", "124422.145000", "124422.932500", "124423.722500", "124424.510000", "124425.297500", "124426.085000", "124426.875000", "124427.662500", "124428.450000", "124429.240000", "124430.027500", "124430.815000", "124431.602500", "124432.392500", "124433.180000", "124433.967500", "124434.755000", "124435.545000", "124436.332500", "124437.120000", "124437.907500", "124438.697500", "124439.485000", "124440.272500", "124441.060000", "124441.850000", "124442.637500", "124443.425000", "124444.212500", "124445.002500", "124445.790000", "124446.577500", "124447.367500", "124448.155000", "124448.942500", "124449.730000", "124450.520000", "124451.307500", "124452.095000", "124452.882500", "124453.672500", "124454.460000", "124455.247500", "124456.035000", "124456.825000", "124457.612500", "124458.400000", "124459.187500", "124459.977500", "124500.765000", "124501.552500", "124502.340000", "124503.130000", "124503.917500", "124504.705000", "124505.495000", "124506.282500", "124507.070000", "124507.857500", "124508.647500", "124509.435000", "124510.222500", "124511.010000", "124511.800000", "124512.587500", "124513.375000", "124514.162500", "124514.952500", "124515.740000", "124516.527500", "124517.315000", "124518.105000", "124518.892500", "124519.680000", "124520.467500", "124521.257500", "124522.045000", "124522.832500", "124523.622500", "124524.410000", "124525.197500", "124525.985000", "124526.775000", "124527.562500", "124528.350000", "124529.137500", "124529.927500", "124530.715000", "124531.502500", "124532.290000", "124533.080000", "124533.867500", "124534.655000", "124535.442500", "124536.232500", "124537.020000", "124537.807500", "124538.595000", "124539.385000", "124540.172500", "124540.960000", "124541.750000", "124542.537500", "124543.325000", "124544.112500", "124544.902500", "124545.690000", "124546.477500", "124547.265000", "124548.055000", "124548.842500", "124549.630000", "124550.417500", "124551.207500", "124551.995000", "124552.782500", "124553.570000", "124554.360000", "124555.147500", "124555.935000", "124556.722500", "124557.512500", "124558.300000", "124559.087500", "124559.877500", "124600.665000", "124601.452500", "124602.240000", "124603.030000", "124603.817500", "124604.605000", "124605.392500", "124606.182500", "124606.970000", "124607.757500", "124608.545000", "124609.335000", "124610.122500", "124610.910000", "124611.697500", "124612.487500", "124613.275000", "124614.062500", "124614.850000"],
      "ContentTime": ["123855.750000", "123855.750000", "123855.750000", "123855.750000", "123855.765000", "123855.765000", "123855.765000", "123855.765000", "123855.765000", "123855.765000", "123855.765000", "123855.781000", "123855.781000", "123855.781000", "123855.781000", "123855.781000", "123855.781000", "123855.796000", "123855.796000", "123855.796000", "123915.734000", "123915.734000", "123915.734000", "123915.734000", "123915.734000", "123915.734000", "123915.750000", "123915.750000", "123915.750000", "123915.750000", "123915.750000", "123915.750000", "123915.750000", "123915.750000", "123915.765000", "123915.765000", "123915.765000", "123915.765000", "123915.765000", "123915.765000", "123915.765000", "123915.781000", "123915.781000", "123915.781000", "123915.781000", "123935.734000", "123935.734000", "123935.734000", "123935.734000", "123935.734000", "123935.734000", "123935.734000", "123935.750000", "123935.750000", "123935.750000", "123935.750000", "123935.750000", "123935.750000", "123935.750000", "123935.765000", "123935.765000", "123935.765000", "123935.765000", "123935.765000", "123935.765000", "123935.765000", "123935.765000", "123935.781000", "123935.781000", "123935.781000", "123935.781000", "123955.734000", "123955.734000", "123955.734000", "123955.734000", "123955.734000", "123955.734000", "123955.750000", "123955.750000", "123955.750000", "123955.750000", "123955.750000", "123955.750000", "123955.750000", "123955.750000", "123955.765000", "123955.765000", "123955.765000", "123955.765000", "123955.765000", "123955.765000", "123955.765000", "123955.781000", "123955.781000", "123955.781000", "123955.781000", "124015.734000", "124015.734000", "124015.734000", "124015.734000", "124015.734000", "124015.734000", "124015.750000", "124015.750000", "124015.750000", "124015.750000", "124015.750000", "124015.750000", "124015.765000", "124015.765000", "124015.765000", "124015.765000", "124015.765000", "124015.765000", "124015.765000", "124015.781000", "124015.781000", "124015.781000", "124015.781000", "124015.781000", "124015.781000", "124015.781000", "124035.734000", "124035.734000", "124035.734000", "124035.734000", "124035.734000", "124035.734000", "124035.750000", "124035.750000", "124035.750000", "124035.750000", "124035.750000", "124035.750000", "124035.750000", "124035.750000", "124035.765000", "124035.765000", "124035.765000", "124035.765000", "124035.765000", "124035.765000", "124035.765000", "124035.781000", "124035.781000", "124035.781000", "124035.781000", "124055.734000", "124055.734000", "124055.734000", "124055.734000", "124055.734000", "124055.734000", "124055.750000", "124055.750000", "124055.750000", "124055.750000", "124055.750000", "124055.750000", "124055.750000", "124055.750000", "124055.765000", "124055.765000", "124055.765000", "124055.765000", "124055.781000", "124055.781000", "124055.781000", "124055.781000", "124055.781000", "124055.781000", "124055.781000", "124055.796000", "124115.734000", "124115.734000", "124115.734000", "124115.734000", "124115.734000", "124115.734000", "124115.750000", "124115.750000", "124115.750000", "124115.750000", "124115.750000", "124115.750000", "124115.750000", "124115.750000", "124115.765000", "124115.765000", "124115.765000", "124115.765000", "124115.765000", "124115.765000", "124115.781000", "124115.781000", "124115.781000", "124115.781000", "124115.781000", "124135.734000", "124135.734000", "124135.734000", "124135.734000", "124135.734000", "124135.750000", "124135.750000", "124135.750000", "124135.750000", "124135.750000", "124135.750000", "124135.750000", "124135.750000", "124135.765000", "124135.765000", "124135.765000", "124135.765000", "124135.765000", "124135.765000", "124135.765000", "124135.781000", "124135.781000", "124135.781000", "124135.781000", "124135.781000", "124135.796000", "124155.734000", "124155.734000", "124155.734000", "124155.734000", "124155.734000", "124155.734000", "124155.750000", "124155.750000", "124155.750000", "124155.750000", "124155.750000", "124155.750000", "124155.750000", "124155.750000", "124155.765000", "124155.765000", "124155.765000", "124155.765000", "124155.765000", "124155.765000", "124155.765000", "124155.781000", "124155.781000", "124155.781000", "124155.781000", "124215.734000", "124215.734000", "124215.734000", "124215.734000", "124215.734000", "124215.734000", "124215.750000", "124215.750000", "124215.750000", "124215.750000", "124215.750000", "124215.750000", "124215.765000", "124215.765000", "124215.765000", "124215.765000", "124215.765000", "124215.765000", "124215.765000", "124215.765000", "124215.781000", "124215.781000", "124215.781000", "124215.781000", "124215.781000", "124215.796000", "124235.734000", "124235.734000", "124235.734000", "124235.734000", "124235.734000", "124235.734000", "124235.750000", "124235.750000", "124235.750000", "124235.750000", "124235.750000", "124235.750000", "124235.765000", "124235.765000", "124235.765000", "124235.765000", "124235.765000", "124235.781000", "124235.781000", "124235.781000", "124235.781000", "124235.796000", "124235.796000", "124235.796000", "124235.796000", "124255.734000", "124255.734000", "124255.734000", "124255.734000", "124255.750000", "124255.750000", "124255.750000", "124255.750000", "124255.750000", "124255.765000", "124255.765000", "124255.765000", "124255.765000", "124255.765000", "124255.765000", "124255.765000", "124255.781000", "124255.781000", "124255.781000", "124255.781000", "124255.781000", "124255.781000", "124255.796000", "124255.796000", "124255.796000", "124315.734000", "124315.734000", "124315.734000", "124315.734000", "124315.734000", "124315.734000", "124315.750000", "124315.750000", "124315.750000", "124315.750000", "124315.750000", "124315.750000", "124315.750000", "124315.750000", "124315.765000", "124315.765000", "124315.765000", "124315.765000", "124315.765000", "124315.765000", "124315.765000", "124315.781000", "124315.781000", "124315.781000", "124315.796000", "124315.796000", "124335.734000", "124335.734000", "124335.734000", "124335.734000", "124335.734000", "124335.734000", "124335.750000", "124335.750000", "124335.750000", "124335.750000", "124335.750000", "124335.750000", "124335.765000", "124335.765000", "124335.765000", "124335.765000", "124335.765000", "124335.765000", "124335.765000", "124335.765000", "124335.781000", "124335.781000", "124335.781000", "124335.781000", "124335.781000", "124355.734000", "124355.750000", "124355.750000", "124355.765000", "124355.765000", "124355.765000", "124355.765000", "124355.781000", "124355.781000", "124355.781000", "124355.781000", "124355.781000", "124355.781000", "124355.781000", "124355.796000", "124355.796000", "124355.796000", "124355.796000", "124355.796000", "124355.796000", "124355.796000", "124355.796000", "124355.812000", "124355.812000", "124355.812000", "124355.812000", "124415.734000", "124415.734000", "124415.734000", "124415.734000", "124415.734000", "124415.734000", "124415.750000", "124415.750000", "124415.750000", "124415.750000", "124415.750000", "124415.750000", "124415.750000", "124415.750000", "124415.765000", "124415.765000", "124415.765000", "124415.765000", "124415.765000", "124415.765000", "124415.781000", "124415.781000", "124415.781000", "124415.781000", "124415.781000", "124435.734000", "124435.734000", "124435.734000", "124435.734000", "124435.734000", "124435.734000", "124435.750000", "124435.750000", "124435.750000", "124435.750000", "124435.750000", "124435.750000", "124435.750000", "124435.750000", "124435.765000", "124435.765000", "124435.765000", "124435.765000", "124435.765000", "124435.765000", "124435.765000", "124435.781000", "124435.781000", "124435.781000", "124435.781000", "124435.781000", "124455.734000", "124455.734000", "124455.734000", "124455.734000", "124455.734000", "124455.734000", "124455.750000", "124455.750000", "124455.750000", "124455.750000", "124455.750000", "124455.750000", "124455.750000", "124455.750000", "124455.765000", "124455.765000", "124455.765000", "124455.765000", "124455.765000", "124455.765000", "124455.765000", "124455.781000", "124455.781000", "124455.781000", "124455.781000", "124515.734000", "124515.734000", "124515.734000", "124515.734000", "124515.734000", "124515.734000", "124515.750000", "124515.750000", "124515.750000", "124515.765000", "124515.765000", "124515.765000", "124515.765000", "124515.765000", "124515.781000", "124515.781000", "124515.781000", "124515.781000", "124515.781000", "124515.781000", "124515.781000", "124515.796000", "124515.796000", "124515.796000", "124515.796000", "124515.796000", "124535.734000", "124535.734000", "124535.734000", "124535.734000", "124535.734000", "124535.734000", "124535.750000", "124535.750000", "124535.750000", "124535.750000", "124535.750000", "124535.750000", "124535.750000", "124535.750000", "124535.765000", "124535.765000", "124535.765000", "124535.765000", "124535.765000", "124535.765000", "124535.765000", "124535.781000", "124535.781000", "124535.781000", "124535.781000", "124555.734000", "124555.734000", "124555.734000", "124555.734000", "124555.734000", "124555.734000", "124555.750000", "124555.750000", "124555.750000", "124555.750000", "124555.750000", "124555.750000", "124555.750000", "124555.750000", "124555.765000", "124555.765000", "124555.765000", "124555.765000", "124555.765000", "124555.765000", "124555.765000", "124555.781000", "124555.781000", "124555.781000", "124555.781000", "124555.781000", "124615.734000", "124615.734000", "124615.734000", "124615.734000", "124615.750000", "124615.750000", "124615.750000", "124615.750000", "124615.750000", "124615.765000", "124615.765000", "124615.765000", "124615.765000", "124615.765000", "124615.765000", "124615.765000", "124615.765000", "124615.781000", "124615.781000", "124615.781000", "124615.781000", "124615.781000", "124615.781000", "124615.781000", "124615.796000", "124616.031000"],
