{
  "AcquisitionMatrixPE": 104,
  "AcquisitionNumber": 1,
  "AcquisitionTime": "11:19:1.662500",
  "BandwidthPerPixelPhaseEncode": 13.935,
  "BaseResolution": 104,
  "CoilString": "C:HEA;HEP",
  "ConversionSoftware": "dcm2niix",
  "ConversionSoftwareVersion": "v1.0.20210317",
  "DerivedVendorReportedEchoSpacing": 0.000690017,
  "DeviceSerialNumber": "35450",
  "DwellTime": 2.5e-06,
  "EchoTime": 0.0348,
  "EffectiveEchoSpacing": 0.000690017,
  "FlipAngle": 55,
  "ImageComments": "Unaliased MB8/PE3 (remote)",
  "ImageOrientationPatientDICOM": [0.999046, 0.00668102, 0.0431586, 6.15192e-09, 0.988229, -0.15298],
  "ImageType": [
    "ORIGINAL",
    "PRIMARY",
    "M",
    "MB",
    "ND",
    "MOSAIC"
],
  "ImagingFrequency": 123.234,
  "InPlanePhaseEncodingDirectionDICOM": "COL",
  "InstitutionAddress": "Univeristy Ave. 197,Newark,North East,US,07102-1814",
  "InstitutionName": "RUBIC",
  "InstitutionalDepartmentName": "Department",
  "MRAcquisitionType": "2D",
  "MagneticFieldStrength": 3,
  "Manufacturer": "Siemens",
  "ManufacturersModelName": "TrioTim",
  "Modality": "MR",
  "MultibandAccelerationFactor": 8,
  "PartialFourier": 0.875,
  "PatientPosition": "HFS",
  "PercentPhaseFOV": 100,
  "PercentSampling": 100,
  "PhaseEncodingDirection": "j-",
  "PhaseEncodingSteps": 91,
  "PhaseResolution": 1,
  "PixelBandwidth": 1923,
  "ProcedureStepDescription": "Cole^Michael",
  "ProtocolName": "cmrr_mbep2d_bold_2mm_MB8_Rest",
  "PulseSequenceDetails": "%CustomerSeq%\\cmrr_mbep2d_bold",
  "ReceiveCoilName": "32Ch_Head",
  "ReconMatrixPE": 104,
  "RepetitionTime": 0.785,
  "SAR": 0.145942,
  "ScanOptions": "PFP\\FS",
  "ScanningSequence": "EP",
  "SequenceName": "epfid2d1_104",
  "SequenceVariant": "SK\\SS",
  "SeriesDescription": "cmrr_mbep2d_bold_2mm_MB8_Rest",
  "SeriesNumber": 10,
  "ShimSetting": [2152, -381, -7328, 639, -176, -1, 127, -45],
  "SliceThickness": 2,
  "SliceTiming": [0, 0.4375, 0.0875, 0.525, 0.175, 0.6125, 0.2625, 0.7, 0.35, 0, 0.4375, 0.0875, 0.525, 0.175, 0.6125, 0.2625, 0.7, 0.35, 0, 0.4375, 0.0875, 0.525, 0.175, 0.6125, 0.2625, 0.7, 0.35, 0, 0.4375, 0.0875, 0.525, 0.175, 0.6125, 0.2625, 0.7, 0.35, 0, 0.4375, 0.0875, 0.525, 0.175, 0.6125, 0.2625, 0.7, 0.35, 0, 0.4375, 0.0875, 0.525, 0.175, 0.6125, 0.2625, 0.7, 0.35, 0, 0.4375, 0.0875, 0.525, 0.175, 0.6125, 0.2625, 0.7, 0.35, 0, 0.4375, 0.0875, 0.525, 0.175, 0.6125, 0.2625, 0.7, 0.35],
  "SoftwareVersions": "syngo MR B19",
  "SpacingBetweenSlices": 2,
  "StationName": "MRC35450",
  "TaskName": "rest",
  "TotalReadoutTime": 0.0710717,
  "TxRefAmp": 347.613,
  "dcmmeta_affine": [
    [-1.9980918169021606, 1.2303834395765989e-08, 0.08734536916017532, 107.62000274658203],
    [-0.013362041674554348, 1.9764586687088013, -0.3056671619415283, -80.89434814453125],
    [0.08631725609302521, 0.3059590756893158, 1.9745728969573975, -128.68344116210938],
    [0.0, 0.0, 0.0, 1.0]
],
  "dcmmeta_reorient_transform": [
    [0.0, -1.0, 0.0, 103.0],
    [1.0, 0.0, 0.0, 0.0],
    [0.0, 0.0, 1.0, 0.0],
    [0.0, 0.0, 0.0, 1.0]
],
  "dcmmeta_shape": [104, 104, 72, 1070],
  "dcmmeta_slice_dim": 2,
  "dcmmeta_version": 0.6,
  "global": {
    "const": {
      "AcquisitionMatrix": [104, 0, 0, 104],
      "AngioFlag": "N",
      "BitsAllocated": 16,
      "BitsStored": 12,
      "Columns": 936,
      "EchoNumbers": 1,
      "EchoTime": 34.8,
      "EchoTrainLength": 1,
      "FlipAngle": 55.0,
      "HighBit": 11,
      "ImageOrientationPatient": [0.99904589321385, 0.00668102074528, 0.04315862850396, 6.151917e-09, 0.98822935670289, -0.1529795363786],
      "ImagePositionPatient": [-938.82618888193, -950.4463298137, -5.7986641649119],
      "ImageType": [
        "ORIGINAL",
        "PRIMARY",
        "M",
        "MB",
        "ND",
        "MOSAIC"
],
      "ImagedNucleus": "1H",
      "ImagingFrequency": 123.234407,
      "InPlanePhaseEncodingDirection": "COL",
      "MRAcquisitionType": "2D",
      "MagneticFieldStrength": 3.0,
      "Manufacturer": "SIEMENS",
      "ManufacturerModelName": "TrioTim",
      "Modality": "MR",
      "NumberOfAverages": 1.0,
      "NumberOfPhaseEncodingSteps": 91,
      "PercentPhaseFieldOfView": 100.0,
      "PercentSampling": 100.0,
      "PerformedProcedureStepStartTime": "102321.359000",
      "PhotometricInterpretation": "MONOCHROME2",
      "PixelBandwidth": 1923.0,
      "PixelRepresentation": 0,
      "PixelSpacing": [2.0, 2.0],
      "ProtocolName": "cmrr_mbep2d_bold_2mm_MB8_Rest",
      "RepetitionTime": 785.0,
      "Rows": 936,
      "SAR": 0.14594159594798,
      "SamplesPerPixel": 1,
      "ScanOptions": [
        "PFP",
        "FS"
],
      "ScanningSequence": "EP",
      "SequenceName": "epfid2d1_104",
      "SequenceVariant": [
        "SK",
        "SS"
],
      "SeriesDescription": "cmrr_mbep2d_bold_2mm_MB8_Rest",
      "SeriesNumber": 10,
      "SeriesTime": "111915.750000",
      "SliceLocation": -109.98399718561,
      "SliceThickness": 2.0,
      "SmallestImagePixelValue": 0,
      "SoftwareVersions": "syngo MR B19",
      "SpacingBetweenSlices": 1.999999987165,
      "SpecificCharacterSet": "ISO_IR 100",
      "StudyID": "1",
      "StudyTime": "102321.312000",
      "TransmitCoilName": "Body",
      "VariableFlipAngleFlag": "N",
      "WindowCenterWidthExplanation": "Algo1",
      "dBdt": 0.0},
    "slices": {}
  },
  "time": {
    "samples": {
      "AcquisitionNumber": [1, 2, 3, 4, 5, 6, 7, 8, 9, 10, 11, 12, 13, 14, 15, 16, 17, 18, 19, 20, 21, 22, 23, 24, 25, 26, 27, 28, 29, 30, 31, 32, 33, 34, 35, 36, 37, 38, 39, 40, 41, 42, 43, 44, 45, 46, 47, 48, 49, 50, 51, 52, 53, 54, 55, 56, 57, 58, 59, 60, 61, 62, 63, 64, 65, 66, 67, 68, 69, 70, 71, 72, 73, 74, 75, 76, 77, 78, 79, 80, 81, 82, 83, 84, 85, 86, 87, 88, 89, 90, 91, 92, 93, 94, 95, 96, 97, 98, 99, 100, 101, 102, 103, 104, 105, 106, 107, 108, 109, 110, 111, 112, 113, 114, 115, 116, 117, 118, 119, 120, 121, 122, 123, 124, 125, 126, 127, 128, 129, 130, 131, 132, 133, 134, 135, 136, 137, 138, 139, 140, 141, 142, 143, 144, 145, 146, 147, 148, 149, 150, 151, 152, 153, 154, 155, 156, 157, 158, 159, 160, 161, 162, 163, 164, 165, 166, 167, 168, 169, 170, 171, 172, 173, 174, 175, 176, 177, 178, 179, 180, 181, 182, 183, 184, 185, 186, 187, 188, 189, 190, 191, 192, 193, 194, 195, 196, 197, 198, 199, 200, 201, 202, 203, 204, 205, 206, 207, 208, 209, 210, 211, 212, 213, 214, 215, 216, 217, 218, 219, 220, 221, 222, 223, 224, 225, 226, 227, 228, 229, 230, 231, 232, 233, 234, 235, 236, 237, 238, 239, 240, 241, 242, 243, 244, 245, 246, 247, 248, 249, 250, 251, 252, 253, 254, 255, 256, 257, 258, 259, 260, 261, 262, 263, 264, 265, 266, 267, 268, 269, 270, 271, 272, 273, 274, 275, 276, 277, 278, 279, 280, 281, 282, 283, 284, 285, 286, 287, 288, 289, 290, 291, 292, 293, 294, 295, 296, 297, 298, 299, 300, 301, 302, 303, 304, 305, 306, 307, 308, 309, 310, 311, 312, 313, 314, 315, 316, 317, 318, 319, 320, 321, 322, 323, 324, 325, 326, 327, 328, 329, 330, 331, 332, 333, 334, 335, 336, 337, 338, 339, 340, 341, 342, 343, 344, 345, 346, 347, 348, 349, 350, 351, 352, 353, 354, 355, 356, 357, 358, 359, 360, 361, 362, 363, 364, 365, 366, 367, 368, 369, 370, 371, 372, 373, 374, 375, 376, 377, 378, 379, 380, 381, 382, 383, 384, 385, 386, 387, 388, 389, 390, 391, 392, 393, 394, 395, 396, 397, 398, 399, 400, 401, 402, 403, 404, 405, 406, 407, 408, 409, 410, 411, 412, 413, 414, 415, 416, 417, 418, 419, 420, 421, 422, 423, 424, 425, 426, 427, 428, 429, 430, 431, 432, 433, 434, 435, 436, 437, 438, 439, 440, 441, 442, 443, 444, 445, 446, 447, 448, 449, 450, 451, 452, 453, 454, 455, 456, 457, 458, 459, 460, 461, 462, 463, 464, 465, 466, 467, 468, 469, 470, 471, 472, 473, 474, 475, 476, 477, 478, 479, 480, 481, 482, 483, 484, 485, 486, 487, 488, 489, 490, 491, 492, 493, 494, 495, 496, 497, 498, 499, 500, 501, 502, 503, 504, 505, 506, 507, 508, 509, 510, 511, 512, 513, 514, 515, 516, 517, 518, 519, 520, 521, 522, 523, 524, 525, 526, 527, 528, 529, 530, 531, 532, 533, 534, 535, 536, 537, 538, 539, 540, 541, 542, 543, 544, 545, 546, 547, 548, 549, 550, 551, 552, 553, 554, 555, 556, 557, 558, 559, 560, 561, 562, 563, 564, 565, 566, 567, 568, 569, 570, 571, 572, 573, 574, 575, 576, 577, 578, 579, 580, 581, 582, 583, 584, 585, 586, 587, 588, 589, 590, 591, 592, 593, 594, 595, 596, 597, 598, 599, 600, 601, 602, 603, 604, 605, 606, 607, 608, 609, 610, 611, 612, 613, 614, 615, 616, 617, 618, 619, 620, 621, 622, 623, 624, 625, 626, 627, 628, 629, 630, 631, 632, 633, 634, 635, 636, 637, 638, 639, 640, 641, 642, 643, 644, 645, 646, 647, 648, 649, 650, 651, 652, 653, 654, 655, 656, 657, 658, 659, 660, 661, 662, 663, 664, 665, 666, 667, 668, 669, 670, 671, 672, 673, 674, 675, 676, 677, 678, 679, 680, 681, 682, 683, 684, 685, 686, 687, 688, 689, 690, 691, 692, 693, 694, 695, 696, 697, 698, 699, 700, 701, 702, 703, 704, 705, 706, 707, 708, 709, 710, 711, 712, 713, 714, 715, 716, 717, 718, 719, 720, 721, 722, 723, 724, 725, 726, 727, 728, 729, 730, 731, 732, 733, 734, 735, 736, 737, 738, 739, 740, 741, 742, 743, 744, 745, 746, 747, 748, 749, 750, 751, 752, 753, 754, 755, 756, 757, 758, 759, 760, 761, 762, 763, 764, 765, 766, 767, 768, 769, 770, 771, 772, 773, 774, 775, 776, 777, 778, 779, 780, 781, 782, 783, 784, 785, 786, 787, 788, 789, 790, 791, 792, 793, 794, 795, 796, 797, 798, 799, 800, 801, 802, 803, 804, 805, 806, 807, 808, 809, 810, 811, 812, 813, 814, 815, 816, 817, 818, 819, 820, 821, 822, 823, 824, 825, 826, 827, 828, 829, 830, 831, 832, 833, 834, 835, 836, 837, 838, 839, 840, 841, 842, 843, 844, 845, 846, 847, 848, 849, 850, 851, 852, 853, 854, 855, 856, 857, 858, 859, 860, 861, 862, 863, 864, 865, 866, 867, 868, 869, 870, 871, 872, 873, 874, 875, 876, 877, 878, 879, 880, 881, 882, 883, 884, 885, 886, 887, 888, 889, 890, 891, 892, 893, 894, 895, 896, 897, 898, 899, 900, 901, 902, 903, 904, 905, 906, 907, 908, 909, 910, 911, 912, 913, 914, 915, 916, 917, 918, 919, 920, 921, 922, 923, 924, 925, 926, 927, 928, 929, 930, 931, 932, 933, 934, 935, 936, 937, 938, 939, 940, 941, 942, 943, 944, 945, 946, 947, 948, 949, 950, 951, 952, 953, 954, 955, 956, 957, 958, 959, 960, 961, 962, 963, 964, 965, 966, 967, 968, 969, 970, 971, 972, 973, 974, 975, 976, 977, 978, 979, 980, 981, 982, 983, 984, 985, 986, 987, 988, 989, 990, 991, 992, 993, 994, 995, 996, 997, 998, 999, 1000, 1001, 1002, 1003, 1004, 1005, 1006, 1007, 1008, 1009, 1010, 1011, 1012, 1013, 1014, 1015, 1016, 1017, 1018, 1019, 1020, 1021, 1022, 1023, 1024, 1025, 1026, 1027, 1028, 1029, 1030, 1031, 1032, 1033, 1034, 1035, 1036, 1037, 1038, 1039, 1040, 1041, 1042, 1043, 1044, 1045, 1046, 1047, 1048, 1049, 1050, 1051, 1052, 1053, 1054, 1055, 1056, 1057, 1058, 1059, 1060, 1061, 1062, 1063, 1064, 1065, 1066, 1067, 1068, 1069, 1070],
      "AcquisitionTime": ["111901.662500", "111902.450000", "111903.237500", "111904.027500", "111904.815000", "111905.602500", "111906.390000", "111907.180000", "111907.967500", "111908.755000", "111909.542500", "111910.332500", "111911.120000", "111911.907500", "111912.695000", "111913.485000", "111914.272500", "111915.060000", "111915.850000", "111916.637500", "111917.425000", "111918.212500", "111919.002500", "111919.790000", "111920.577500", "111921.365000", "111922.155000", "111922.942500", "111923.730000", "111924.517500", "111925.307500", "111926.095000", "111926.882500", "111927.670000", "111928.460000", "111929.247500", "111930.035000", "111930.822500", "111931.612500", "111932.400000", "111933.187500", "111933.977500", "111934.765000", "111935.552500", "111936.340000", "111937.130000", "111937.917500", "111938.705000", "111939.492500", "111940.282500", "111941.070000", "111941.857500", "111942.645000", "111943.435000", "111944.222500", "111945.010000", "111945.797500", "111946.587500", "111947.375000", "111948.162500", "111948.950000", "111949.740000", "111950.527500", "111951.315000", "111952.105000", "111952.892500", "111953.680000", "111954.467500", "111955.257500", "111956.045000", "111956.832500", "111957.620000", "111958.410000", "111959.197500", "111959.985000", "112000.772500", "112001.562500", "112002.350000", "112003.137500", "112003.925000", "112004.715000", "112005.502500", "112006.290000", "112007.077500", "112007.867500", "112008.655000", "112009.442500", "112010.232500", "112011.020000", "112011.807500", "112012.595000", "112013.385000", "112014.172500", "112014.960000", "112015.747500", "112016.537500", "112017.325000", "112018.112500", "112018.900000", "112019.690000", "112020.477500", "112021.265000", "112022.052500", "112022.842500", "112023.630000", "112024.417500", "112025.205000", "112025.995000", "112026.782500", "112027.570000", "112028.360000", "112029.147500", "112029.935000", "112030.722500", "112031.512500", "112032.300000", "112033.087500", "112033.875000", "112034.665000", "112035.452500", "112036.240000", "112037.027500", "112037.817500", "112038.605000", "112039.392500", "112040.180000", "112040.970000", "112041.757500", "112042.545000", "112043.332500", "112044.122500", "112044.910000", "112045.697500", "112046.487500", "112047.275000", "112048.062500", "112048.850000", "112049.640000", "112050.427500", "112051.215000", "112052.002500", "112052.792500", "112053.580000", "112054.367500", "112055.155000", "112055.945000", "112056.732500", "112057.520000", "112058.307500", "112059.097500", "112059.885000", "112100.672500", "112101.462500", "112102.250000", "112103.037500", "112103.825000", "112104.615000", "112105.402500", "112106.190000", "112106.977500", "112107.767500", "112108.555000", "112109.342500", "112110.130000", "112110.920000", "112111.707500", "112112.495000", "112113.282500", "112114.072500", "112114.860000", "112115.647500", "112116.435000", "112117.225000", "112118.012500", "112118.800000", "112119.590000", "112120.377500", "112121.165000", "112121.952500", "112122.742500", "112123.530000", "112124.317500", "112125.105000", "112125.895000", "112126.682500", "112127.470000", "112128.257500", "112129.047500", "112129.835000", "112130.622500", "112131.410000", "112132.200000", "112132.987500", "112133.775000", "112134.562500", "112135.352500", "112136.140000", "112136.927500", "112137.717500", "112138.505000", "112139.292500", "112140.080000", "112140.870000", "112141.657500", "112142.445000", "112143.232500", "112144.022500", "112144.810000", "112145.597500", "112146.385000", "112147.175000", "112147.962500", "112148.750000", "112149.537500", "112150.327500", "112151.115000", "112151.902500", "112152.690000", "112153.480000", "112154.267500", "112155.055000", "112155.845000", "112156.632500", "112157.420000", "112158.207500", "112158.997500", "112159.785000", "112200.572500", "112201.360000", "112202.150000", "112202.937500", "112203.725000", "112204.512500", "112205.302500", "112206.090000", "112206.877500", "112207.665000", "112208.455000", "112209.242500", "112210.030000", "112210.817500", "112211.607500", "112212.395000", "112213.182500", "112213.972500", "112214.760000", "112215.547500", "112216.335000", "112217.125000", "112217.912500", "112218.700000", "112219.487500", "112220.277500", "112221.065000", "112221.852500", "112222.640000", "112223.430000", "112224.217500", "112225.005000", "112225.792500", "112226.582500", "112227.370000", "112228.157500", "112228.945000", "112229.735000", "112230.522500", "112231.310000", "112232.100000", "112232.887500", "112233.675000", "112234.462500", "112235.252500", "112236.040000", "112236.827500", "112237.615000", "112238.405000", "112239.192500", "112239.980000", "112240.767500", "112241.557500", "112242.345000", "112243.132500", "112243.920000", "112244.710000", "112245.497500", "112246.285000", "112247.072500", "112247.862500", "112248.650000", "112249.437500", "112250.227500", "112251.015000", "112251.802500", "112252.590000", "112253.380000", "112254.167500", "112254.955000", "112255.742500", "112256.532500", "112257.320000", "112258.107500", "112258.895000", "112259.685000", "112300.472500", "112301.260000", "112302.047500", "112302.837500", "112303.625000", "112304.412500", "112305.200000", "112305.990000", "112306.777500", "112307.565000", "112308.355000", "112309.142500", "112309.930000", "112310.717500", "112311.507500", "112312.295000", "112313.082500", "112313.870000", "112314.660000", "112315.447500", "112316.235000", "112317.022500", "112317.812500", "112318.600000", "112319.387500", "112320.175000", "112320.965000", "112321.752500", "112322.540000", "112323.327500", "112324.117500", "112324.905000", "112325.692500", "112326.482500", "112327.270000", "112328.057500", "112328.845000", "112329.635000", "112330.422500", "112331.210000", "112331.997500", "112332.787500", "112333.575000", "112334.362500", "112335.150000", "112335.940000", "112336.727500", "112337.515000", "112338.302500", "112339.092500", "112339.880000", "112340.667500", "112341.455000", "112342.245000", "112343.032500", "112343.820000", "112344.610000", "112345.397500", "112346.185000", "112346.972500", "112347.762500", "112348.550000", "112349.337500", "112350.125000", "112350.915000", "112351.702500", "112352.490000", "112353.277500", "112354.067500", "112354.855000", "112355.642500", "112356.430000", "112357.220000", "112358.007500", "112358.795000", "112359.582500", "112400.372500", "112401.160000", "112401.947500", "112402.737500", "112403.525000", "112404.312500", "112405.100000", "112405.890000", "112406.677500", "112407.465000", "112408.252500", "112409.042500", "112409.830000", "112410.617500", "112411.405000", "112412.195000", "112412.982500", "112413.770000", "112414.557500", "112415.347500", "112416.135000", "112416.922500", "112417.712500", "112418.500000", "112419.287500", "112420.075000", "112420.865000", "112421.652500", "112422.440000", "112423.227500", "112424.017500", "112424.805000", "112425.592500", "112426.380000", "112427.170000", "112427.957500", "112428.745000", "112429.532500", "112430.322500", "112431.110000", "112431.897500", "112432.685000", "112433.475000", "112434.262500", "112435.050000", "112435.840000", "112436.627500", "112437.415000", "112438.202500", "112438.992500", "112439.780000", "112440.567500", "112441.355000", "112442.145000", "112442.932500", "112443.720000", "112444.507500", "112445.297500", "112446.085000", "112446.872500", "112447.660000", "112448.450000", "112449.237500", "112450.025000", "112450.812500", "112451.602500", "112452.390000", "112453.177500", "112453.967500", "112454.755000", "112455.542500", "112456.330000", "112457.120000", "112457.907500", "112458.695000", "112459.482500", "112500.272500", "112501.060000", "112501.847500", "112502.635000", "112503.425000", "112504.212500", "112505.000000", "112505.787500", "112506.577500", "112507.365000", "112508.152500", "112508.940000", "112509.730000", "112510.517500", "112511.305000", "112512.095000", "112512.882500", "112513.670000", "112514.457500", "112515.247500", "112516.035000", "112516.822500", "112517.610000", "112518.400000", "112519.187500", "112519.975000", "112520.762500", "112521.552500", "112522.340000", "112523.127500", "112523.915000", "112524.705000", "112525.492500", "112526.280000", "112527.067500", "112527.857500", "112528.645000", "112529.432500", "112530.222500", "112531.010000", "112531.797500", "112532.585000", "112533.375000", "112534.162500", "112534.950000", "112535.737500", "112536.527500", "112537.315000", "112538.102500", "112538.890000", "112539.680000", "112540.467500", "112541.255000", "112542.042500", "112542.832500", "112543.620000", "112544.407500", "112545.195000", "112545.985000", "112546.772500", "112547.560000", "112548.350000", "112549.137500", "112549.925000", "112550.712500", "112551.502500", "112552.290000", "112553.077500", "112553.865000", "112554.655000", "112555.442500", "112556.230000", "112557.017500", "112557.807500", "112558.595000", "112559.382500", "112600.170000", "112600.960000", "112601.747500", "112602.535000", "112603.322500", "112604.112500", "112604.900000", "112605.687500", "112606.477500", "112607.265000", "112608.052500", "112608.840000", "112609.630000", "112610.417500", "112611.205000", "112611.992500", "112612.782500", "112613.570000", "112614.357500", "112615.145000", "112615.935000", "112616.722500", "112617.510000", "112618.297500", "112619.087500", "112619.875000", "112620.662500", "112621.450000", "112622.240000", "112623.027500", "112623.815000", "112624.605000", "112625.392500", "112626.180000", "112626.967500", "112627.757500", "112628.545000", "112629.332500", "112630.120000", "112630.910000", "112631.697500", "112632.485000", "112633.272500", "112634.062500", "112634.850000", "112635.637500", "112636.425000", "112637.215000", "112638.002500", "112638.790000", "112639.577500", "112640.367500", "112641.155000", "112641.942500", "112642.732500", "112643.520000", "112644.307500", "112645.095000", "112645.885000", "112646.672500", "112647.460000", "112648.247500", "112649.037500", "112649.825000", "112650.612500", "112651.400000", "112652.190000", "112652.977500", "112653.765000", "112654.552500", "112655.342500", "112656.130000", "112656.917500", "112657.705000", "112658.495000", "112659.282500", "112700.070000", "112700.860000", "112701.647500", "112702.435000", "112703.222500", "112704.012500", "112704.800000", "112705.587500", "112706.375000", "112707.165000", "112707.952500", "112708.740000", "112709.527500", "112710.317500", "112711.105000", "112711.892500", "112712.680000", "112713.470000", "112714.257500", "112715.045000", "112715.832500", "112716.622500", "112717.410000", "112718.197500", "112718.987500", "112719.775000", "112720.562500", "112721.350000", "112722.140000", "112722.927500", "112723.715000", "112724.502500", "112725.292500", "112726.080000", "112726.867500", "112727.655000", "112728.445000", "112729.232500", "112730.020000", "112730.807500", "112731.597500", "112732.385000", "112733.172500", "112733.962500", "112734.750000", "112735.537500", "112736.325000", "112737.115000", "112737.902500", "112738.690000", "112739.477500", "112740.267500", "112741.055000", "112741.842500", "112742.630000", "112743.420000", "112744.207500", "112744.995000", "112745.782500", "112746.572500", "112747.360000", "112748.147500", "112748.935000", "112749.725000", "112750.512500", "112751.300000", "112752.090000", "112752.877500", "112753.665000", "112754.452500", "112755.242500", "112756.030000", "112756.817500", "112757.605000", "112758.395000", "112759.182500", "112759.970000", "112800.757500", "112801.547500", "112802.335000", "112803.122500", "112803.910000", "112804.700000", "112805.487500", "112806.275000", "112807.062500", "112807.852500", "112808.640000", "112809.427500", "112810.217500", "112811.005000", "112811.792500", "112812.580000", "112813.370000", "112814.157500", "112814.945000", "112815.732500", "112816.522500", "112817.310000", "112818.097500", "112818.885000", "112819.675000", "112820.462500", "112821.250000", "112822.037500", "112822.827500", "112823.615000", "112824.402500", "112825.190000", "112825.980000", "112826.767500", "112827.555000", "112828.345000", "112829.132500", "112829.920000", "112830.707500", "112831.497500", "112832.285000", "112833.072500", "112833.860000", "112834.650000", "112835.437500", "112836.225000", "112837.012500", "112837.802500", "112838.590000", "112839.377500", "112840.165000", "112840.955000", "112841.742500", "112842.530000", "112843.317500", "112844.107500", "112844.895000", "112845.682500", "112846.472500", "112847.260000", "112848.047500", "112848.835000", "112849.625000", "112850.412500", "112851.200000", "112851.987500", "112852.777500", "112853.565000", "112854.352500", "112855.140000", "112855.930000", "112856.717500", "112857.505000", "112858.292500", "112859.082500", "112859.870000", "112900.657500", "112901.445000", "112902.235000", "112903.022500", "112903.810000", "112904.600000", "112905.387500", "112906.175000", "112906.962500", "112907.752500", "112908.540000", "112909.327500", "112910.115000", "112910.905000", "112911.692500", "112912.480000", "112913.267500", "112914.057500", "112914.845000", "112915.632500", "112916.420000", "112917.210000", "112917.997500", "112918.785000", "112919.572500", "112920.362500", "112921.150000", "112921.937500", "112922.727500", "112923.515000", "112924.302500", "112925.090000", "112925.880000", "112926.667500", "112927.455000", "112928.242500", "112929.032500", "112929.820000", "112930.607500", "112931.395000", "112932.185000", "112932.972500", "112933.760000", "112934.547500", "112935.337500", "112936.125000", "112936.912500", "112937.700000", "112938.490000", "112939.277500", "112940.065000", "112940.855000", "112941.642500", "112942.430000", "112943.217500", "112944.007500", "112944.795000", "112945.582500", "112946.370000", "112947.160000", "112947.947500", "112948.735000", "112949.522500", "112950.312500", "112951.100000", "112951.887500", "112952.675000", "112953.465000", "112954.252500", "112955.040000", "112955.827500", "112956.617500", "112957.405000", "112958.192500", "112958.982500", "112959.770000", "113000.557500", "113001.345000", "113002.135000", "113002.922500", "113003.710000", "113004.497500", "113005.287500", "113006.075000", "113006.862500", "113007.650000", "113008.440000", "113009.227500", "113010.015000", "113010.802500", "113011.592500", "113012.380000", "113013.167500", "113013.955000", "113014.745000", "113015.532500", "113016.320000", "113017.110000", "113017.897500", "113018.685000", "113019.472500", "113020.262500", "113021.050000", "113021.837500", "113022.625000", "113023.415000", "113024.202500", "113024.990000", "113025.777500", "113026.567500", "113027.355000", "113028.142500", "113028.930000", "113029.720000", "113030.507500", "113031.295000", "113032.082500", "113032.872500", "113033.660000", "113034.447500", "113035.237500", "113036.025000", "113036.812500", "113037.600000", "113038.390000", "113039.177500", "113039.965000", "113040.752500", "113041.542500", "113042.330000", "113043.117500", "113043.905000", "113044.695000", "113045.482500", "113046.270000", "113047.057500", "113047.847500", "113048.635000", "113049.422500", "113050.212500", "113051.000000", "113051.787500", "113052.575000", "113053.365000", "113054.152500", "113054.940000", "113055.727500", "113056.517500", "113057.305000", "113058.092500", "113058.880000", "113059.670000", "113100.457500", "113101.245000", "113102.032500", "113102.822500", "113103.610000", "113104.397500", "113105.185000", "113105.975000", "113106.762500", "113107.550000", "113108.340000", "113109.127500", "113109.915000", "113110.702500", "113111.492500", "113112.280000", "113113.067500", "113113.855000", "113114.645000", "113115.432500", "113116.220000", "113117.007500", "113117.797500", "113118.585000", "113119.372500", "113120.160000", "113120.950000", "113121.737500", "113122.525000", "113123.312500", "113124.102500", "113124.890000", "113125.677500", "113126.467500", "113127.255000", "113128.042500", "113128.830000", "113129.620000", "113130.407500", "113131.195000", "113131.982500", "113132.772500", "113133.560000", "113134.347500", "113135.135000", "113135.925000", "113136.712500", "113137.500000", "113138.287500", "113139.077500", "113139.865000", "113140.652500", "113141.440000", "113142.230000", "113143.017500", "113143.805000", "113144.595000", "113145.382500", "113146.170000", "113146.957500", "113147.747500", "113148.535000", "113149.322500", "113150.110000", "113150.900000", "113151.687500", "113152.475000", "113153.262500", "113154.052500", "113154.840000", "113155.627500", "113156.415000", "113157.205000", "113157.992500", "113158.780000", "113159.567500", "113200.357500", "113201.145000", "113201.932500", "113202.722500", "113203.510000", "113204.297500", "113205.085000", "113205.875000", "113206.662500", "113207.450000", "113208.237500", "113209.027500", "113209.815000", "113210.602500", "113211.390000", "113212.180000", "113212.967500", "113213.755000", "113214.542500", "113215.332500", "113216.120000", "113216.907500", "113217.695000", "113218.485000", "113219.272500", "113220.060000", "113220.850000", "113221.637500", "113222.425000", "113223.212500", "113224.002500", "113224.790000", "113225.577500", "113226.365000", "113227.155000", "113227.942500", "113228.730000", "113229.517500", "113230.307500", "113231.095000", "113231.882500", "113232.670000", "113233.460000", "113234.247500", "113235.035000", "113235.822500", "113236.612500", "113237.400000", "113238.187500", "113238.977500", "113239.765000", "113240.552500", "113241.340000", "113242.130000", "113242.917500", "113243.705000", "113244.492500", "113245.282500", "113246.070000", "113246.857500", "113247.645000", "113248.435000", "113249.222500", "113250.010000", "113250.797500", "113251.587500", "113252.375000", "113253.162500", "113253.950000", "113254.740000", "113255.527500", "113256.315000", "113257.105000", "113257.892500", "113258.680000", "113259.467500", "113300.257500", "113301.045000", "113301.832500", "113302.620000", "113303.410000", "113304.197500"],
