{
  "AcquisitionMatrixPE": 104,
  "AcquisitionNumber": 1,
  "AcquisitionTime": "15:49:25.740000",
  "BandwidthPerPixelPhaseEncode": 13.935,
  "BaseResolution": 104,
  "CoilString": "C:HEA;HEP",
  "ConversionSoftware": "dcm2niix",
  "ConversionSoftwareVersion": "v1.0.20210317",
  "DerivedVendorReportedEchoSpacing": 0.000690017,
  "DeviceSerialNumber": "35450",
  "DwellTime": 2.5e-06,
  "EchoTime": 0.0348,
  "EffectiveEchoSpacing": 0.000690017,
  "FlipAngle": 55,
  "ImageComments": "Unaliased MB8/PE3 (remote)",
  "ImageOrientationPatientDICOM": [1, 0, 0, 0, 0.996779, -0.0801989],
  "ImageType": [
    "ORIGINAL",
    "PRIMARY",
    "M",
    "MB",
    "ND",
    "MOSAIC"
],
  "ImagingFrequency": 123.235,
  "InPlanePhaseEncodingDirectionDICOM": "COL",
  "InstitutionAddress": "Univeristy Ave. 197,Newark,North East,US,07102-1814",
  "InstitutionName": "RUBIC",
  "InstitutionalDepartmentName": "Department",
  "MRAcquisitionType": "2D",
  "MagneticFieldStrength": 3,
  "Manufacturer": "Siemens",
  "ManufacturersModelName": "TrioTim",
  "Modality": "MR",
  "MultibandAccelerationFactor": 8,
  "PartialFourier": 0.875,
  "PatientPosition": "HFS",
  "PercentPhaseFOV": 100,
  "PercentSampling": 100,
  "PhaseEncodingDirection": "j-",
  "PhaseEncodingSteps": 91,
  "PhaseResolution": 1,
  "PixelBandwidth": 1923,
  "ProcedureStepDescription": "Cole^Michael",
  "ProtocolName": "cmrr_mbep2d_bold_2mm_MB8_Task_8x",
  "PulseSequenceDetails": "%CustomerSeq%\\cmrr_mbep2d_bold",
  "ReceiveCoilName": "32Ch_Head",
  "ReconMatrixPE": 104,
  "RepetitionTime": 0.785,
  "SAR": 0.132051,
  "ScanOptions": "PFP\\FS",
  "ScanningSequence": "EP",
  "SequenceName": "epfid2d1_104",
  "SequenceVariant": "SK\\SS",
  "SeriesDescription": "cmrr_mbep2d_bold_2mm_MB8_Task_8x",
  "SeriesNumber": 27,
  "ShimSetting": [2101, -452, -7325, 572, 33, 56, 301, 36],
  "SliceThickness": 2,
  "SliceTiming": [0, 0.4375, 0.0875, 0.525, 0.175, 0.6125, 0.2625, 0.7, 0.35, 0, 0.4375, 0.0875, 0.525, 0.175, 0.6125, 0.2625, 0.7, 0.35, 0, 0.4375, 0.0875, 0.525, 0.175, 0.6125, 0.2625, 0.7, 0.35, 0, 0.4375, 0.0875, 0.525, 0.175, 0.6125, 0.2625, 0.7, 0.35, 0, 0.4375, 0.0875, 0.525, 0.175, 0.6125, 0.2625, 0.7, 0.35, 0, 0.4375, 0.0875, 0.525, 0.175, 0.6125, 0.2625, 0.7, 0.35, 0, 0.4375, 0.0875, 0.525, 0.175, 0.6125, 0.2625, 0.7, 0.35, 0, 0.4375, 0.0875, 0.525, 0.175, 0.6125, 0.2625, 0.7, 0.35],
  "SoftwareVersions": "syngo MR B19",
  "SpacingBetweenSlices": 2,
  "StationName": "MRC35450",
  "TaskName": "cpro",
  "TotalReadoutTime": 0.0710717,
  "TxRefAmp": 328.615,
  "dcmmeta_affine": [
    [-2.0, 0.0, 0.0, 104.67796325683594],
    [0.0, 1.9935578107833862, -0.16039785742759705, -81.35556030273438],
    [0.0, 0.16039784252643585, 1.9935578107833862, -114.36184692382812],
    [0.0, 0.0, 0.0, 1.0]
],
  "dcmmeta_reorient_transform": [
    [0.0, -1.0, 0.0, 103.0],
    [1.0, 0.0, 0.0, 0.0],
    [0.0, 0.0, 1.0, 0.0],
    [0.0, 0.0, 0.0, 1.0]
],
  "dcmmeta_shape": [104, 104, 72, 581],
  "dcmmeta_slice_dim": 2,
  "dcmmeta_version": 0.6,
  "global": {
    "const": {
      "AcquisitionMatrix": [104, 0, 0, 104],
      "AngioFlag": "N",
      "BitsAllocated": 16,
      "BitsStored": 12,
      "Columns": 936,
      "EchoNumbers": 1,
      "EchoTime": 34.8,
      "EchoTrainLength": 1,
      "FlipAngle": 55.0,
      "HighBit": 11,
      "ImageOrientationPatient": [1.0, 0.0, 0.0, 0.0, 0.99677887851542, -0.0801989235934],
      "ImagePositionPatient": [-936.67796611786, -953.30091583426, -31.115364218265],
      "ImageType": [
        "ORIGINAL",
        "PRIMARY",
        "M",
        "MB",
        "ND",
        "MOSAIC"
],
      "ImagedNucleus": "1H",
      "ImagingFrequency": 123.23454,
      "InPlanePhaseEncodingDirection": "COL",
      "MRAcquisitionType": "2D",
      "MagneticFieldStrength": 3.0,
      "Manufacturer": "SIEMENS",
      "ManufacturerModelName": "TrioTim",
      "Modality": "MR",
      "NumberOfAverages": 1.0,
      "NumberOfPhaseEncodingSteps": 91,
      "PercentPhaseFieldOfView": 100.0,
      "PercentSampling": 100.0,
      "PerformedProcedureStepStartTime": "135001.843000",
      "PhotometricInterpretation": "MONOCHROME2",
      "PixelBandwidth": 1923.0,
      "PixelRepresentation": 0,
      "PixelSpacing": [2.0, 2.0],
      "ProtocolName": "cmrr_mbep2d_bold_2mm_MB8_Task_8x",
      "RepetitionTime": 785.0,
      "Rows": 936,
      "SAR": 0.13205100171924,
      "SamplesPerPixel": 1,
      "ScanOptions": [
        "PFP",
        "FS"
],
      "ScanningSequence": "EP",
      "SequenceName": "epfid2d1_104",
      "SequenceVariant": [
        "SK",
        "SS"
],
      "SeriesDescription": "cmrr_mbep2d_bold_2mm_MB8_Task_8x",
      "SeriesNumber": 27,
      "SeriesTime": "154945.437000",
      "SliceLocation": -107.46884516056,
      "SliceThickness": 2.0,
      "SmallestImagePixelValue": 0,
      "SoftwareVersions": "syngo MR B19",
      "SpacingBetweenSlices": 2.0000000779898,
      "SpecificCharacterSet": "ISO_IR 100",
      "StudyID": "1",
      "StudyTime": "135001.812000",
      "TransmitCoilName": "Body",
      "VariableFlipAngleFlag": "N",
      "WindowCenterWidthExplanation": "Algo1",
      "dBdt": 0.0},
    "slices": {}
  },
  "time": {
    "samples": {
      "AcquisitionNumber": [1, 2, 3, 4, 5, 6, 7, 8, 9, 10, 11, 12, 13, 14, 15, 16, 17, 18, 19, 20, 21, 22, 23, 24, 25, 26, 27, 28, 29, 30, 31, 32, 33, 34, 35, 36, 37, 38, 39, 40, 41, 42, 43, 44, 45, 46, 47, 48, 49, 50, 51, 52, 53, 54, 55, 56, 57, 58, 59, 60, 61, 62, 63, 64, 65, 66, 67, 68, 69, 70, 71, 72, 73, 74, 75, 76, 77, 78, 79, 80, 81, 82, 83, 84, 85, 86, 87, 88, 89, 90, 91, 92, 93, 94, 95, 96, 97, 98, 99, 100, 101, 102, 103, 104, 105, 106, 107, 108, 109, 110, 111, 112, 113, 114, 115, 116, 117, 118, 119, 120, 121, 122, 123, 124, 125, 126, 127, 128, 129, 130, 131, 132, 133, 134, 135, 136, 137, 138, 139, 140, 141, 142, 143, 144, 145, 146, 147, 148, 149, 150, 151, 152, 153, 154, 155, 156, 157, 158, 159, 160, 161, 162, 163, 164, 165, 166, 167, 168, 169, 170, 171, 172, 173, 174, 175, 176, 177, 178, 179, 180, 181, 182, 183, 184, 185, 186, 187, 188, 189, 190, 191, 192, 193, 194, 195, 196, 197, 198, 199, 200, 201, 202, 203, 204, 205, 206, 207, 208, 209, 210, 211, 212, 213, 214, 215, 216, 217, 218, 219, 220, 221, 222, 223, 224, 225, 226, 227, 228, 229, 230, 231, 232, 233, 234, 235, 236, 237, 238, 239, 240, 241, 242, 243, 244, 245, 246, 247, 248, 249, 250, 251, 252, 253, 254, 255, 256, 257, 258, 259, 260, 261, 262, 263, 264, 265, 266, 267, 268, 269, 270, 271, 272, 273, 274, 275, 276, 277, 278, 279, 280, 281, 282, 283, 284, 285, 286, 287, 288, 289, 290, 291, 292, 293, 294, 295, 296, 297, 298, 299, 300, 301, 302, 303, 304, 305, 306, 307, 308, 309, 310, 311, 312, 313, 314, 315, 316, 317, 318, 319, 320, 321, 322, 323, 324, 325, 326, 327, 328, 329, 330, 331, 332, 333, 334, 335, 336, 337, 338, 339, 340, 341, 342, 343, 344, 345, 346, 347, 348, 349, 350, 351, 352, 353, 354, 355, 356, 357, 358, 359, 360, 361, 362, 363, 364, 365, 366, 367, 368, 369, 370, 371, 372, 373, 374, 375, 376, 377, 378, 379, 380, 381, 382, 383, 384, 385, 386, 387, 388, 389, 390, 391, 392, 393, 394, 395, 396, 397, 398, 399, 400, 401, 402, 403, 404, 405, 406, 407, 408, 409, 410, 411, 412, 413, 414, 415, 416, 417, 418, 419, 420, 421, 422, 423, 424, 425, 426, 427, 428, 429, 430, 431, 432, 433, 434, 435, 436, 437, 438, 439, 440, 441, 442, 443, 444, 445, 446, 447, 448, 449, 450, 451, 452, 453, 454, 455, 456, 457, 458, 459, 460, 461, 462, 463, 464, 465, 466, 467, 468, 469, 470, 471, 472, 473, 474, 475, 476, 477, 478, 479, 480, 481, 482, 483, 484, 485, 486, 487, 488, 489, 490, 491, 492, 493, 494, 495, 496, 497, 498, 499, 500, 501, 502, 503, 504, 505, 506, 507, 508, 509, 510, 511, 512, 513, 514, 515, 516, 517, 518, 519, 520, 521, 522, 523, 524, 525, 526, 527, 528, 529, 530, 531, 532, 533, 534, 535, 536, 537, 538, 539, 540, 541, 542, 543, 544, 545, 546, 547, 548, 549, 550, 551, 552, 553, 554, 555, 556, 557, 558, 559, 560, 561, 562, 563, 564, 565, 566, 567, 568, 569, 570, 571, 572, 573, 574, 575, 576, 577, 578, 579, 580, 581],
      "AcquisitionTime": ["154925.740000", "154926.530000", "154927.317500", "154928.105000", "154928.892500", "154929.682500", "154930.470000", "154931.257500", "154932.045000", "154932.835000", "154933.622500", "154934.410000", "154935.197500", "154935.987500", "154936.775000", "154937.562500", "154938.350000", "154939.140000", "154939.927500", "154940.715000", "154941.502500", "154942.292500", "154943.080000", "154943.867500", "154944.657500", "154945.445000", "154946.232500", "154947.020000", "154947.810000", "154948.597500", "154949.385000", "154950.172500", "154950.962500", "154951.750000", "154952.537500", "154953.325000", "154954.115000", "154954.902500", "154955.690000", "154956.477500", "154957.267500", "154958.055000", "154958.842500", "154959.630000", "155000.420000", "155001.207500", "155001.995000", "155002.785000", "155003.572500", "155004.360000", "155005.147500", "155005.937500", "155006.725000", "155007.512500", "155008.300000", "155009.090000", "155009.877500", "155010.665000", "155011.452500", "155012.242500", "155013.030000", "155013.817500", "155014.605000", "155015.395000", "155016.182500", "155016.970000", "155017.760000", "155018.547500", "155019.335000", "155020.122500", "155020.912500", "155021.700000", "155022.487500", "155023.275000", "155024.065000", "155024.852500", "155025.640000", "155026.427500", "155027.217500", "155028.005000", "155028.792500", "155029.580000", "155030.370000", "155031.157500", "155031.945000", "155032.732500", "155033.522500", "155034.310000", "155035.097500", "155035.887500", "155036.675000", "155037.462500", "155038.250000", "155039.040000", "155039.827500", "155040.615000", "155041.402500", "155042.192500", "155042.980000", "155043.767500", "155044.555000", "155045.345000", "155046.132500", "155046.920000", "155047.707500", "155048.497500", "155049.285000", "155050.072500", "155050.860000", "155051.650000", "155052.437500", "155053.225000", "155054.015000", "155054.802500", "155055.590000", "155056.377500", "155057.167500", "155057.955000", "155058.742500", "155059.530000", "155100.320000", "155101.107500", "155101.895000", "155102.682500", "155103.472500", "155104.260000", "155105.047500", "155105.835000", "155106.625000", "155107.412500", "155108.200000", "155108.987500", "155109.777500", "155110.565000", "155111.352500", "155112.142500", "155112.930000", "155113.717500", "155114.505000", "155115.295000", "155116.082500", "155116.870000", "155117.657500", "155118.447500", "155119.235000", "155120.022500", "155120.810000", "155121.600000", "155122.387500", "155123.175000", "155123.962500", "155124.752500", "155125.540000", "155126.327500", "155127.115000", "155127.905000", "155128.692500", "155129.480000", "155130.270000", "155131.057500", "155131.845000", "155132.632500", "155133.422500", "155134.210000", "155134.997500", "155135.785000", "155136.575000", "155137.362500", "155138.150000", "155138.937500", "155139.727500", "155140.515000", "155141.302500", "155142.090000", "155142.880000", "155143.667500", "155144.455000", "155145.242500", "155146.032500", "155146.820000", "155147.607500", "155148.397500", "155149.185000", "155149.972500", "155150.760000", "155151.550000", "155152.337500", "155153.125000", "155153.912500", "155154.702500", "155155.490000", "155156.277500", "155157.065000", "155157.855000", "155158.642500", "155159.430000", "155200.217500", "155201.007500", "155201.795000", "155202.582500", "155203.370000", "155204.160000", "155204.947500", "155205.735000", "155206.525000", "155207.312500", "155208.100000", "155208.887500", "155209.677500", "155210.465000", "155211.252500", "155212.040000", "155212.830000", "155213.617500", "155214.405000", "155215.192500", "155215.982500", "155216.770000", "155217.557500", "155218.345000", "155219.135000", "155219.922500", "155220.710000", "155221.497500", "155222.287500", "155223.075000", "155223.862500", "155224.652500", "155225.440000", "155226.227500", "155227.015000", "155227.805000", "155228.592500", "155229.380000", "155230.167500", "155230.957500", "155231.745000", "155232.532500", "155233.320000", "155234.110000", "155234.897500", "155235.685000", "155236.472500", "155237.262500", "155238.050000", "155238.837500", "155239.625000", "155240.415000", "155241.202500", "155241.990000", "155242.780000", "155243.567500", "155244.355000", "155245.142500", "155245.932500", "155246.720000", "155247.507500", "155248.295000", "155249.085000", "155249.872500", "155250.660000", "155251.447500", "155252.237500", "155253.025000", "155253.812500", "155254.600000", "155255.390000", "155256.177500", "155256.965000", "155257.752500", "155258.542500", "155259.330000", "155300.117500", "155300.907500", "155301.695000", "155302.482500", "155303.270000", "155304.060000", "155304.847500", "155305.635000", "155306.422500", "155307.212500", "155308.000000", "155308.787500", "155309.575000", "155310.365000", "155311.152500", "155311.940000", "155312.727500", "155313.517500", "155314.305000", "155315.092500", "155315.880000", "155316.670000", "155317.457500", "155318.245000", "155319.035000", "155319.822500", "155320.610000", "155321.397500", "155322.187500", "155322.975000", "155323.762500", "155324.550000", "155325.340000", "155326.127500", "155326.915000", "155327.702500", "155328.492500", "155329.280000", "155330.067500", "155330.855000", "155331.645000", "155332.432500", "155333.220000", "155334.010000", "155334.797500", "155335.585000", "155336.372500", "155337.162500", "155337.950000", "155338.737500", "155339.525000", "155340.315000", "155341.102500", "155341.890000", "155342.677500", "155343.467500", "155344.255000", "155345.042500", "155345.830000", "155346.620000", "155347.407500", "155348.195000", "155348.982500", "155349.772500", "155350.560000", "155351.347500", "155352.137500", "155352.925000", "155353.712500", "155354.500000", "155355.290000", "155356.077500", "155356.865000", "155357.652500", "155358.442500", "155359.230000", "155400.017500", "155400.805000", "155401.595000", "155402.382500", "155403.170000", "155403.957500", "155404.747500", "155405.535000", "155406.322500", "155407.110000", "155407.900000", "155408.687500", "155409.475000", "155410.265000", "155411.052500", "155411.840000", "155412.627500", "155413.417500", "155414.205000", "155414.992500", "155415.780000", "155416.570000", "155417.357500", "155418.145000", "155418.932500", "155419.722500", "155420.510000", "155421.297500", "155422.085000", "155422.875000", "155423.662500", "155424.450000", "155425.237500", "155426.027500", "155426.815000", "155427.602500", "155428.392500", "155429.180000", "155429.967500", "155430.755000", "155431.545000", "155432.332500", "155433.120000", "155433.907500", "155434.697500", "155435.485000", "155436.272500", "155437.060000", "155437.850000", "155438.637500", "155439.425000", "155440.212500", "155441.002500", "155441.790000", "155442.577500", "155443.365000", "155444.155000", "155444.942500", "155445.730000", "155446.520000", "155447.307500", "155448.095000", "155448.882500", "155449.672500", "155450.460000", "155451.247500", "155452.035000", "155452.825000", "155453.612500", "155454.400000", "155455.187500", "155455.977500", "155456.765000", "155457.552500", "155458.340000", "155459.130000", "155459.917500", "155500.705000", "155501.492500", "155502.282500", "155503.070000", "155503.857500", "155504.647500", "155505.435000", "155506.222500", "155507.010000", "155507.800000", "155508.587500", "155509.375000", "155510.162500", "155510.952500", "155511.740000", "155512.527500", "155513.315000", "155514.105000", "155514.892500", "155515.680000", "155516.467500", "155517.257500", "155518.045000", "155518.832500", "155519.620000", "155520.410000", "155521.197500", "155521.985000", "155522.775000", "155523.562500", "155524.350000", "155525.137500", "155525.927500", "155526.715000", "155527.502500", "155528.290000", "155529.080000", "155529.867500", "155530.655000", "155531.442500", "155532.232500", "155533.020000", "155533.807500", "155534.595000", "155535.385000", "155536.172500", "155536.960000", "155537.747500", "155538.537500", "155539.325000", "155540.112500", "155540.902500", "155541.690000", "155542.477500", "155543.265000", "155544.055000", "155544.842500", "155545.630000", "155546.417500", "155547.207500", "155547.995000", "155548.782500", "155549.570000", "155550.360000", "155551.147500", "155551.935000", "155552.722500", "155553.512500", "155554.300000", "155555.087500", "155555.875000", "155556.665000", "155557.452500", "155558.240000", "155559.030000", "155559.817500", "155600.605000", "155601.392500", "155602.182500", "155602.970000", "155603.757500", "155604.545000", "155605.335000", "155606.122500", "155606.910000", "155607.697500", "155608.487500", "155609.275000", "155610.062500", "155610.850000", "155611.640000", "155612.427500", "155613.215000", "155614.002500", "155614.792500", "155615.580000", "155616.367500", "155617.157500", "155617.945000", "155618.732500", "155619.520000", "155620.310000", "155621.097500", "155621.885000", "155622.672500", "155623.462500", "155624.250000", "155625.037500", "155625.825000", "155626.615000", "155627.402500", "155628.190000", "155628.977500", "155629.767500", "155630.555000", "155631.342500", "155632.130000", "155632.920000", "155633.707500", "155634.495000", "155635.285000", "155636.072500", "155636.860000", "155637.647500", "155638.437500", "155639.225000", "155640.012500", "155640.800000", "155641.590000", "155642.377500", "155643.165000", "155643.952500", "155644.742500", "155645.530000", "155646.317500", "155647.105000", "155647.895000", "155648.682500", "155649.470000", "155650.260000", "155651.047500", "155651.835000", "155652.622500", "155653.412500", "155654.200000", "155654.987500", "155655.775000", "155656.565000", "155657.352500", "155658.140000", "155658.927500", "155659.717500", "155700.505000", "155701.292500", "155702.080000", "155702.870000"],
      "ContentTime": ["154945.437000", "154945.437000", "154945.437000", "154945.437000", "154945.453000", "154945.453000", "154945.453000", "154945.453000", "154945.453000", "154945.453000", "154945.453000", "154945.453000", "154945.468000", "154945.468000", "154945.468000", "154945.468000", "154945.468000", "154945.468000", "154945.468000", "154945.484000", "154945.484000", "154945.484000", "155005.421000", "155005.421000", "155005.421000", "155005.421000", "155005.421000", "155005.421000", "155005.421000", "155005.421000", "155005.437000", "155005.437000", "155005.437000", "155005.437000", "155005.437000", "155005.437000", "155005.437000", "155005.453000", "155005.453000", "155005.453000", "155005.453000", "155005.453000", "155005.453000", "155005.453000", "155005.453000", "155005.468000", "155005.468000", "155025.421000", "155025.421000", "155025.421000", "155025.421000", "155025.421000", "155025.421000", "155025.421000", "155025.437000", "155025.437000", "155025.437000", "155025.437000", "155025.437000", "155025.437000", "155025.437000", "155025.453000", "155025.453000", "155025.453000", "155025.453000", "155025.453000", "155025.453000", "155025.453000", "155025.453000", "155025.468000", "155025.468000", "155025.468000", "155025.468000", "155045.421000", "155045.421000", "155045.421000", "155045.421000", "155045.421000", "155045.421000", "155045.421000", "155045.421000", "155045.437000", "155045.437000", "155045.437000", "155045.437000", "155045.437000", "155045.453000", "155045.453000", "155045.453000", "155045.453000", "155045.453000", "155045.453000", "155045.453000", "155045.453000", "155045.468000", "155045.468000", "155045.468000", "155045.468000", "155105.421000", "155105.421000", "155105.421000", "155105.421000", "155105.421000", "155105.421000", "155105.421000", "155105.421000", "155105.437000", "155105.437000", "155105.437000", "155105.437000", "155105.437000", "155105.437000", "155105.437000", "155105.453000", "155105.453000", "155105.453000", "155105.453000", "155105.453000", "155105.453000", "155105.468000", "155105.468000", "155105.468000", "155105.468000", "155105.468000", "155125.421000", "155125.421000", "155125.421000", "155125.421000", "155125.421000", "155125.421000", "155125.421000", "155125.421000", "155125.437000", "155125.437000", "155125.437000", "155125.437000", "155125.437000", "155125.437000", "155125.437000", "155125.453000", "155125.453000", "155125.453000", "155125.453000", "155125.453000", "155125.453000", "155125.453000", "155125.453000", "155125.468000", "155125.468000", "155145.421000", "155145.421000", "155145.421000", "155145.421000", "155145.421000", "155145.421000", "155145.421000", "155145.437000", "155145.437000", "155145.437000", "155145.437000", "155145.437000", "155145.437000", "155145.437000", "155145.437000", "155145.453000", "155145.453000", "155145.453000", "155145.453000", "155145.453000", "155145.453000", "155145.453000", "155145.468000", "155145.468000", "155145.468000", "155145.468000", "155205.421000", "155205.421000", "155205.421000", "155205.421000", "155205.421000", "155205.421000", "155205.421000", "155205.421000", "155205.437000", "155205.437000", "155205.437000", "155205.437000", "155205.437000", "155205.437000", "155205.437000", "155205.453000", "155205.453000", "155205.453000", "155205.453000", "155205.453000", "155205.453000", "155205.453000", "155205.468000", "155205.468000", "155205.468000", "155225.421000", "155225.421000", "155225.421000", "155225.421000", "155225.421000", "155225.421000", "155225.421000", "155225.421000", "155225.437000", "155225.437000", "155225.437000", "155225.437000", "155225.437000", "155225.437000", "155225.437000", "155225.453000", "155225.453000", "155225.453000", "155225.453000", "155225.453000", "155225.453000", "155225.453000", "155225.453000", "155225.468000", "155225.468000", "155225.468000", "155245.421000", "155245.421000", "155245.421000", "155245.421000", "155245.421000", "155245.421000", "155245.421000", "155245.421000", "155245.437000", "155245.437000", "155245.437000", "155245.437000", "155245.437000", "155245.437000", "155245.437000", "155245.437000", "155245.453000", "155245.453000", "155245.453000", "155245.453000", "155245.453000", "155245.453000", "155245.453000", "155245.468000", "155245.468000", "155305.421000", "155305.421000", "155305.421000", "155305.421000", "155305.421000", "155305.421000", "155305.421000", "155305.421000", "155305.437000", "155305.437000", "155305.437000", "155305.437000", "155305.437000", "155305.437000", "155305.437000", "155305.453000", "155305.453000", "155305.453000", "155305.453000", "155305.453000", "155305.453000", "155305.468000", "155305.468000", "155305.468000", "155305.468000", "155305.468000", "155325.421000", "155325.421000", "155325.421000", "155325.421000", "155325.421000", "155325.421000", "155325.421000", "155325.437000", "155325.437000", "155325.437000", "155325.437000", "155325.437000", "155325.437000", "155325.437000", "155325.437000", "155325.453000", "155325.453000", "155325.453000", "155325.453000", "155325.453000", "155325.453000", "155325.453000", "155325.468000", "155325.468000", "155325.468000", "155345.421000", "155345.421000", "155345.421000", "155345.421000", "155345.421000", "155345.421000", "155345.421000", "155345.421000", "155345.437000", "155345.437000", "155345.437000", "155345.437000", "155345.437000", "155345.437000", "155345.437000", "155345.453000", "155345.453000", "155345.453000", "155345.453000", "155345.453000", "155345.453000", "155345.468000", "155345.468000", "155345.468000", "155345.468000", "155345.468000", "155405.421000", "155405.421000", "155405.421000", "155405.421000", "155405.421000", "155405.421000", "155405.421000", "155405.421000", "155405.437000", "155405.437000", "155405.437000", "155405.437000", "155405.437000", "155405.437000", "155405.437000", "155405.453000", "155405.453000", "155405.453000", "155405.453000", "155405.453000", "155405.453000", "155405.453000", "155405.453000", "155405.468000", "155405.468000", "155425.421000", "155425.421000", "155425.421000", "155425.421000", "155425.421000", "155425.421000", "155425.421000", "155425.421000", "155425.437000", "155425.437000", "155425.437000", "155425.437000", "155425.437000", "155425.437000", "155425.453000", "155425.453000", "155425.453000", "155425.453000", "155425.453000", "155425.453000", "155425.453000", "155425.468000", "155425.468000", "155425.468000", "155425.468000", "155425.468000", "155445.421000", "155445.421000", "155445.421000", "155445.421000", "155445.421000", "155445.421000", "155445.421000", "155445.421000", "155445.437000", "155445.437000", "155445.437000", "155445.437000", "155445.437000", "155445.437000", "155445.437000", "155445.453000", "155445.453000", "155445.453000", "155445.453000", "155445.453000", "155445.453000", "155445.453000", "155445.453000", "155445.468000", "155445.468000", "155505.421000", "155505.421000", "155505.421000", "155505.421000", "155505.421000", "155505.421000", "155505.421000", "155505.421000", "155505.437000", "155505.437000", "155505.437000", "155505.437000", "155505.437000", "155505.437000", "155505.437000", "155505.453000", "155505.453000", "155505.453000", "155505.453000", "155505.453000", "155505.453000", "155505.453000", "155505.468000", "155505.468000", "155505.468000", "155505.468000", "155525.421000", "155525.421000", "155525.421000", "155525.421000", "155525.421000", "155525.421000", "155525.421000", "155525.421000", "155525.437000", "155525.437000", "155525.437000", "155525.437000", "155525.437000", "155525.437000", "155525.437000", "155525.453000", "155525.453000", "155525.453000", "155525.453000", "155525.453000", "155525.453000", "155525.453000", "155525.468000", "155525.468000", "155525.468000", "155545.421000", "155545.421000", "155545.421000", "155545.421000", "155545.421000", "155545.421000", "155545.421000", "155545.437000", "155545.437000", "155545.437000", "155545.437000", "155545.437000", "155545.437000", "155545.437000", "155545.453000", "155545.453000", "155545.453000", "155545.453000", "155545.453000", "155545.453000", "155545.468000", "155545.468000", "155545.468000", "155545.468000", "155545.468000", "155605.421000", "155605.421000", "155605.421000", "155605.421000", "155605.421000", "155605.421000", "155605.421000", "155605.421000", "155605.437000", "155605.437000", "155605.437000", "155605.437000", "155605.437000", "155605.437000", "155605.437000", "155605.453000", "155605.453000", "155605.453000", "155605.453000", "155605.453000", "155605.453000", "155605.453000", "155605.468000", "155605.468000", "155605.468000", "155605.468000", "155625.421000", "155625.421000", "155625.421000", "155625.437000", "155625.437000", "155625.437000", "155625.437000", "155625.437000", "155625.453000", "155625.453000", "155625.453000", "155625.453000", "155625.453000", "155625.453000", "155625.453000", "155625.453000", "155625.468000", "155625.468000", "155625.468000", "155625.468000", "155625.468000", "155625.468000", "155625.468000", "155625.484000", "155625.484000", "155645.421000", "155645.421000", "155645.421000", "155645.421000", "155645.421000", "155645.421000", "155645.421000", "155645.421000", "155645.437000", "155645.437000", "155645.437000", "155645.437000", "155645.437000", "155645.437000", "155645.437000", "155645.453000", "155645.453000", "155645.453000", "155645.453000", "155645.453000", "155645.453000", "155645.453000", "155645.468000", "155645.468000", "155645.468000", "155645.468000", "155704.062000", "155704.062000", "155704.062000", "155704.078000", "155704.078000", "155704.078000", "155704.078000", "155704.078000", "155704.078000", "155704.078000", "155704.078000", "155704.093000", "155704.093000", "155704.093000", "155704.093000", "155704.093000", "155704.093000", "155704.109000", "155704.109000", "155704.109000", "155704.109000", "155704.109000", "155704.109000", "155704.109000"],
