{
  "AcquisitionMatrixPE": 104,
  "AcquisitionNumber": 1,
  "AcquisitionTime": "15:33:31.692500",
  "BandwidthPerPixelPhaseEncode": 13.935,
  "BaseResolution": 104,
  "CoilString": "C:HEA;HEP",
  "ConversionSoftware": "dcm2niix",
  "ConversionSoftwareVersion": "v1.0.20210317",
  "DerivedVendorReportedEchoSpacing": 0.000690017,
  "DeviceSerialNumber": "35450",
  "DwellTime": 2.5e-06,
  "EchoTime": 0.0348,
  "EffectiveEchoSpacing": 0.000690017,
  "FlipAngle": 55,
  "ImageComments": "Unaliased MB8/PE3 (remote)",
  "ImageOrientationPatientDICOM": [1, 0, 0, 0, 0.996779, -0.0801989],
  "ImageType": [
    "ORIGINAL",
    "PRIMARY",
    "M",
    "MB",
    "ND",
    "MOSAIC"
],
  "ImagingFrequency": 123.235,
  "InPlanePhaseEncodingDirectionDICOM": "COL",
  "InstitutionAddress": "Univeristy Ave. 197,Newark,North East,US,07102-1814",
  "InstitutionName": "RUBIC",
  "InstitutionalDepartmentName": "Department",
  "MRAcquisitionType": "2D",
  "MagneticFieldStrength": 3,
  "Manufacturer": "Siemens",
  "ManufacturersModelName": "TrioTim",
  "Modality": "MR",
  "MultibandAccelerationFactor": 8,
  "PartialFourier": 0.875,
  "PatientPosition": "HFS",
  "PercentPhaseFOV": 100,
  "PercentSampling": 100,
  "PhaseEncodingDirection": "j-",
  "PhaseEncodingSteps": 91,
  "PhaseResolution": 1,
  "PixelBandwidth": 1923,
  "ProcedureStepDescription": "Cole^Michael",
  "ProtocolName": "cmrr_mbep2d_bold_2mm_MB8_Task_8x",
  "PulseSequenceDetails": "%CustomerSeq%\\cmrr_mbep2d_bold",
  "ReceiveCoilName": "32Ch_Head",
  "ReconMatrixPE": 104,
  "RepetitionTime": 0.785,
  "SAR": 0.132051,
  "ScanOptions": "PFP\\FS",
  "ScanningSequence": "EP",
  "SequenceName": "epfid2d1_104",
  "SequenceVariant": "SK\\SS",
  "SeriesDescription": "cmrr_mbep2d_bold_2mm_MB8_Task_8x",
  "SeriesNumber": 23,
  "ShimSetting": [2101, -452, -7325, 572, 33, 56, 301, 36],
  "SliceThickness": 2,
  "SliceTiming": [0, 0.4375, 0.0875, 0.525, 0.175, 0.6125, 0.2625, 0.7, 0.35, 0, 0.4375, 0.0875, 0.525, 0.175, 0.6125, 0.2625, 0.7, 0.35, 0, 0.4375, 0.0875, 0.525, 0.175, 0.6125, 0.2625, 0.7, 0.35, 0, 0.4375, 0.0875, 0.525, 0.175, 0.6125, 0.2625, 0.7, 0.35, 0, 0.4375, 0.0875, 0.525, 0.175, 0.6125, 0.2625, 0.7, 0.35, 0, 0.4375, 0.0875, 0.525, 0.175, 0.6125, 0.2625, 0.7, 0.35, 0, 0.4375, 0.0875, 0.525, 0.175, 0.6125, 0.2625, 0.7, 0.35, 0, 0.4375, 0.0875, 0.525, 0.175, 0.6125, 0.2625, 0.7, 0.35],
  "SoftwareVersions": "syngo MR B19",
  "SpacingBetweenSlices": 2,
  "StationName": "MRC35450",
  "TaskName": "cpro",
  "TotalReadoutTime": 0.0710717,
  "TxRefAmp": 328.615,
  "dcmmeta_affine": [
    [-2.0, 0.0, 0.0, 104.67796325683594],
    [0.0, 1.9935578107833862, -0.16039785742759705, -81.35556030273438],
    [0.0, 0.16039784252643585, 1.9935578107833862, -114.36184692382812],
    [0.0, 0.0, 0.0, 1.0]
],
  "dcmmeta_reorient_transform": [
    [0.0, -1.0, 0.0, 103.0],
    [1.0, 0.0, 0.0, 0.0],
    [0.0, 0.0, 1.0, 0.0],
    [0.0, 0.0, 0.0, 1.0]
],
  "dcmmeta_shape": [104, 104, 72, 581],
  "dcmmeta_slice_dim": 2,
  "dcmmeta_version": 0.6,
  "global": {
    "const": {
      "AcquisitionMatrix": [104, 0, 0, 104],
      "AngioFlag": "N",
      "BitsAllocated": 16,
      "BitsStored": 12,
      "Columns": 936,
      "EchoNumbers": 1,
      "EchoTime": 34.8,
      "EchoTrainLength": 1,
      "FlipAngle": 55.0,
      "HighBit": 11,
      "ImageOrientationPatient": [1.0, 0.0, 0.0, 0.0, 0.99677887851542, -0.0801989235934],
      "ImagePositionPatient": [-936.67796611786, -953.30091583426, -31.115364218265],
      "ImageType": [
        "ORIGINAL",
        "PRIMARY",
        "M",
        "MB",
        "ND",
        "MOSAIC"
],
      "ImagedNucleus": "1H",
      "ImagingFrequency": 123.23454,
      "InPlanePhaseEncodingDirection": "COL",
      "MRAcquisitionType": "2D",
      "MagneticFieldStrength": 3.0,
      "Manufacturer": "SIEMENS",
      "ManufacturerModelName": "TrioTim",
      "Modality": "MR",
      "NumberOfAverages": 1.0,
      "NumberOfPhaseEncodingSteps": 91,
      "PercentPhaseFieldOfView": 100.0,
      "PercentSampling": 100.0,
      "PerformedProcedureStepStartTime": "135001.843000",
      "PhotometricInterpretation": "MONOCHROME2",
      "PixelBandwidth": 1923.0,
      "PixelRepresentation": 0,
      "PixelSpacing": [2.0, 2.0],
      "ProtocolName": "cmrr_mbep2d_bold_2mm_MB8_Task_8x",
      "RepetitionTime": 785.0,
      "Rows": 936,
      "SAR": 0.13205100171924,
      "SamplesPerPixel": 1,
      "ScanOptions": [
        "PFP",
        "FS"
],
      "ScanningSequence": "EP",
      "SequenceName": "epfid2d1_104",
      "SequenceVariant": [
        "SK",
        "SS"
],
      "SeriesDescription": "cmrr_mbep2d_bold_2mm_MB8_Task_8x",
      "SeriesNumber": 23,
      "SeriesTime": "153349.796000",
      "SliceLocation": -107.46884516056,
      "SliceThickness": 2.0,
      "SmallestImagePixelValue": 0,
      "SoftwareVersions": "syngo MR B19",
      "SpacingBetweenSlices": 2.0000000779898,
      "SpecificCharacterSet": "ISO_IR 100",
      "StudyID": "1",
      "StudyTime": "135001.812000",
      "TransmitCoilName": "Body",
      "VariableFlipAngleFlag": "N",
      "WindowCenterWidthExplanation": "Algo1",
      "dBdt": 0.0},
    "slices": {}
  },
  "time": {
    "samples": {
      "AcquisitionNumber": [1, 2, 3, 4, 5, 6, 7, 8, 9, 10, 11, 12, 13, 14, 15, 16, 17, 18, 19, 20, 21, 22, 23, 24, 25, 26, 27, 28, 29, 30, 31, 32, 33, 34, 35, 36, 37, 38, 39, 40, 41, 42, 43, 44, 45, 46, 47, 48, 49, 50, 51, 52, 53, 54, 55, 56, 57, 58, 59, 60, 61, 62, 63, 64, 65, 66, 67, 68, 69, 70, 71, 72, 73, 74, 75, 76, 77, 78, 79, 80, 81, 82, 83, 84, 85, 86, 87, 88, 89, 90, 91, 92, 93, 94, 95, 96, 97, 98, 99, 100, 101, 102, 103, 104, 105, 106, 107, 108, 109, 110, 111, 112, 113, 114, 115, 116, 117, 118, 119, 120, 121, 122, 123, 124, 125, 126, 127, 128, 129, 130, 131, 132, 133, 134, 135, 136, 137, 138, 139, 140, 141, 142, 143, 144, 145, 146, 147, 148, 149, 150, 151, 152, 153, 154, 155, 156, 157, 158, 159, 160, 161, 162, 163, 164, 165, 166, 167, 168, 169, 170, 171, 172, 173, 174, 175, 176, 177, 178, 179, 180, 181, 182, 183, 184, 185, 186, 187, 188, 189, 190, 191, 192, 193, 194, 195, 196, 197, 198, 199, 200, 201, 202, 203, 204, 205, 206, 207, 208, 209, 210, 211, 212, 213, 214, 215, 216, 217, 218, 219, 220, 221, 222, 223, 224, 225, 226, 227, 228, 229, 230, 231, 232, 233, 234, 235, 236, 237, 238, 239, 240, 241, 242, 243, 244, 245, 246, 247, 248, 249, 250, 251, 252, 253, 254, 255, 256, 257, 258, 259, 260, 261, 262, 263, 264, 265, 266, 267, 268, 269, 270, 271, 272, 273, 274, 275, 276, 277, 278, 279, 280, 281, 282, 283, 284, 285, 286, 287, 288, 289, 290, 291, 292, 293, 294, 295, 296, 297, 298, 299, 300, 301, 302, 303, 304, 305, 306, 307, 308, 309, 310, 311, 312, 313, 314, 315, 316, 317, 318, 319, 320, 321, 322, 323, 324, 325, 326, 327, 328, 329, 330, 331, 332, 333, 334, 335, 336, 337, 338, 339, 340, 341, 342, 343, 344, 345, 346, 347, 348, 349, 350, 351, 352, 353, 354, 355, 356, 357, 358, 359, 360, 361, 362, 363, 364, 365, 366, 367, 368, 369, 370, 371, 372, 373, 374, 375, 376, 377, 378, 379, 380, 381, 382, 383, 384, 385, 386, 387, 388, 389, 390, 391, 392, 393, 394, 395, 396, 397, 398, 399, 400, 401, 402, 403, 404, 405, 406, 407, 408, 409, 410, 411, 412, 413, 414, 415, 416, 417, 418, 419, 420, 421, 422, 423, 424, 425, 426, 427, 428, 429, 430, 431, 432, 433, 434, 435, 436, 437, 438, 439, 440, 441, 442, 443, 444, 445, 446, 447, 448, 449, 450, 451, 452, 453, 454, 455, 456, 457, 458, 459, 460, 461, 462, 463, 464, 465, 466, 467, 468, 469, 470, 471, 472, 473, 474, 475, 476, 477, 478, 479, 480, 481, 482, 483, 484, 485, 486, 487, 488, 489, 490, 491, 492, 493, 494, 495, 496, 497, 498, 499, 500, 501, 502, 503, 504, 505, 506, 507, 508, 509, 510, 511, 512, 513, 514, 515, 516, 517, 518, 519, 520, 521, 522, 523, 524, 525, 526, 527, 528, 529, 530, 531, 532, 533, 534, 535, 536, 537, 538, 539, 540, 541, 542, 543, 544, 545, 546, 547, 548, 549, 550, 551, 552, 553, 554, 555, 556, 557, 558, 559, 560, 561, 562, 563, 564, 565, 566, 567, 568, 569, 570, 571, 572, 573, 574, 575, 576, 577, 578, 579, 580, 581],
      "AcquisitionTime": ["153331.692500", "153332.480000", "153333.267500", "153334.055000", "153334.845000", "153335.632500", "153336.420000", "153337.207500", "153337.997500", "153338.785000", "153339.572500", "153340.360000", "153341.150000", "153341.937500", "153342.725000", "153343.512500", "153344.302500", "153345.090000", "153345.877500", "153346.667500", "153347.455000", "153348.242500", "153349.030000", "153349.820000", "153350.607500", "153351.395000", "153352.182500", "153352.972500", "153353.760000", "153354.547500", "153355.335000", "153356.125000", "153356.912500", "153357.700000", "153358.487500", "153359.277500", "153400.065000", "153400.852500", "153401.640000", "153402.430000", "153403.217500", "153404.005000", "153404.795000", "153405.582500", "153406.370000", "153407.157500", "153407.947500", "153408.735000", "153409.522500", "153410.310000", "153411.100000", "153411.887500", "153412.675000", "153413.462500", "153414.252500", "153415.040000", "153415.827500", "153416.615000", "153417.405000", "153418.192500", "153418.980000", "153419.767500", "153420.557500", "153421.345000", "153422.132500", "153422.922500", "153423.710000", "153424.497500", "153425.285000", "153426.075000", "153426.862500", "153427.650000", "153428.437500", "153429.227500", "153430.015000", "153430.802500", "153431.590000", "153432.380000", "153433.167500", "153433.955000", "153434.742500", "153435.532500", "153436.320000", "153437.107500", "153437.897500", "153438.685000", "153439.472500", "153440.260000", "153441.050000", "153441.837500", "153442.625000", "153443.412500", "153444.202500", "153444.990000", "153445.777500", "153446.565000", "153447.355000", "153448.142500", "153448.930000", "153449.717500", "153450.507500", "153451.295000", "153452.082500", "153452.870000", "153453.660000", "153454.447500", "153455.235000", "153456.025000", "153456.812500", "153457.600000", "153458.387500", "153459.177500", "153459.965000", "153500.752500", "153501.540000", "153502.330000", "153503.117500", "153503.905000", "153504.692500", "153505.482500", "153506.270000", "153507.057500", "153507.845000", "153508.635000", "153509.422500", "153510.210000", "153510.997500", "153511.787500", "153512.575000", "153513.362500", "153514.152500", "153514.940000", "153515.727500", "153516.515000", "153517.305000", "153518.092500", "153518.880000", "153519.667500", "153520.457500", "153521.245000", "153522.032500", "153522.820000", "153523.610000", "153524.397500", "153525.185000", "153525.972500", "153526.762500", "153527.550000", "153528.337500", "153529.125000", "153529.915000", "153530.702500", "153531.490000", "153532.280000", "153533.067500", "153533.855000", "153534.642500", "153535.432500", "153536.220000", "153537.007500", "153537.795000", "153538.585000", "153539.372500", "153540.160000", "153540.947500", "153541.737500", "153542.525000", "153543.312500", "153544.100000", "153544.890000", "153545.677500", "153546.465000", "153547.252500", "153548.042500", "153548.830000", "153549.617500", "153550.407500", "153551.195000", "153551.982500", "153552.770000", "153553.560000", "153554.347500", "153555.135000", "153555.922500", "153556.712500", "153557.500000", "153558.287500", "153559.075000", "153559.865000", "153600.652500", "153601.440000", "153602.227500", "153603.017500", "153603.805000", "153604.592500", "153605.380000", "153606.170000", "153606.957500", "153607.745000", "153608.535000", "153609.322500", "153610.110000", "153610.897500", "153611.687500", "153612.475000", "153613.262500", "153614.050000", "153614.840000", "153615.627500", "153616.415000", "153617.202500", "153617.992500", "153618.780000", "153619.567500", "153620.355000", "153621.145000", "153621.932500", "153622.720000", "153623.507500", "153624.297500", "153625.085000", "153625.872500", "153626.662500", "153627.450000", "153628.237500", "153629.025000", "153629.815000", "153630.602500", "153631.390000", "153632.177500", "153632.967500", "153633.755000", "153634.542500", "153635.330000", "153636.120000", "153636.907500", "153637.695000", "153638.482500", "153639.272500", "153640.060000", "153640.847500", "153641.635000", "153642.425000", "153643.212500", "153644.000000", "153644.790000", "153645.577500", "153646.365000", "153647.152500", "153647.942500", "153648.730000", "153649.517500", "153650.305000", "153651.095000", "153651.882500", "153652.670000", "153653.457500", "153654.247500", "153655.035000", "153655.822500", "153656.610000", "153657.400000", "153658.187500", "153658.975000", "153659.762500", "153700.552500", "153701.340000", "153702.127500", "153702.917500", "153703.705000", "153704.492500", "153705.280000", "153706.070000", "153706.857500", "153707.645000", "153708.432500", "153709.222500", "153710.010000", "153710.797500", "153711.585000", "153712.375000", "153713.162500", "153713.950000", "153714.737500", "153715.527500", "153716.315000", "153717.102500", "153717.890000", "153718.680000", "153719.467500", "153720.255000", "153721.045000", "153721.832500", "153722.620000", "153723.407500", "153724.197500", "153724.985000", "153725.772500", "153726.560000", "153727.350000", "153728.137500", "153728.925000", "153729.712500", "153730.502500", "153731.290000", "153732.077500", "153732.865000", "153733.655000", "153734.442500", "153735.230000", "153736.017500", "153736.807500", "153737.595000", "153738.382500", "153739.172500", "153739.960000", "153740.747500", "153741.535000", "153742.325000", "153743.112500", "153743.900000", "153744.687500", "153745.477500", "153746.265000", "153747.052500", "153747.840000", "153748.630000", "153749.417500", "153750.205000", "153750.992500", "153751.782500", "153752.570000", "153753.357500", "153754.147500", "153754.935000", "153755.722500", "153756.510000", "153757.300000", "153758.087500", "153758.875000", "153759.662500", "153800.452500", "153801.240000", "153802.027500", "153802.815000", "153803.605000", "153804.392500", "153805.180000", "153805.967500", "153806.757500", "153807.545000", "153808.332500", "153809.120000", "153809.910000", "153810.697500", "153811.485000", "153812.275000", "153813.062500", "153813.850000", "153814.637500", "153815.427500", "153816.215000", "153817.002500", "153817.790000", "153818.580000", "153819.367500", "153820.155000", "153820.942500", "153821.732500", "153822.520000", "153823.307500", "153824.095000", "153824.885000", "153825.672500", "153826.460000", "153827.247500", "153828.037500", "153828.825000", "153829.612500", "153830.402500", "153831.190000", "153831.977500", "153832.765000", "153833.555000", "153834.342500", "153835.130000", "153835.917500", "153836.707500", "153837.495000", "153838.282500", "153839.070000", "153839.860000", "153840.647500", "153841.435000", "153842.222500", "153843.012500", "153843.800000", "153844.587500", "153845.375000", "153846.165000", "153846.952500", "153847.740000", "153848.530000", "153849.317500", "153850.105000", "153850.892500", "153851.682500", "153852.470000", "153853.257500", "153854.045000", "153854.835000", "153855.622500", "153856.410000", "153857.197500", "153857.987500", "153858.775000", "153859.562500", "153900.350000", "153901.140000", "153901.927500", "153902.715000", "153903.502500", "153904.292500", "153905.080000", "153905.867500", "153906.657500", "153907.445000", "153908.232500", "153909.020000", "153909.810000", "153910.597500", "153911.385000", "153912.172500", "153912.962500", "153913.750000", "153914.537500", "153915.325000", "153916.115000", "153916.902500", "153917.690000", "153918.477500", "153919.267500", "153920.055000", "153920.842500", "153921.630000", "153922.420000", "153923.207500", "153923.995000", "153924.785000", "153925.572500", "153926.360000", "153927.147500", "153927.937500", "153928.725000", "153929.512500", "153930.300000", "153931.090000", "153931.877500", "153932.665000", "153933.452500", "153934.242500", "153935.030000", "153935.817500", "153936.605000", "153937.395000", "153938.182500", "153938.970000", "153939.757500", "153940.547500", "153941.335000", "153942.122500", "153942.912500", "153943.700000", "153944.487500", "153945.275000", "153946.065000", "153946.852500", "153947.640000", "153948.427500", "153949.217500", "153950.005000", "153950.792500", "153951.580000", "153952.370000", "153953.157500", "153953.945000", "153954.732500", "153955.522500", "153956.310000", "153957.097500", "153957.885000", "153958.675000", "153959.462500", "154000.250000", "154001.040000", "154001.827500", "154002.615000", "154003.402500", "154004.192500", "154004.980000", "154005.767500", "154006.555000", "154007.345000", "154008.132500", "154008.920000", "154009.707500", "154010.497500", "154011.285000", "154012.072500", "154012.860000", "154013.650000", "154014.437500", "154015.225000", "154016.012500", "154016.802500", "154017.590000", "154018.377500", "154019.167500", "154019.955000", "154020.742500", "154021.530000", "154022.320000", "154023.107500", "154023.895000", "154024.682500", "154025.472500", "154026.260000", "154027.047500", "154027.835000", "154028.625000", "154029.412500", "154030.200000", "154030.987500", "154031.777500", "154032.565000", "154033.352500", "154034.140000", "154034.930000", "154035.717500", "154036.505000", "154037.295000", "154038.082500", "154038.870000", "154039.657500", "154040.447500", "154041.235000", "154042.022500", "154042.810000", "154043.600000", "154044.387500", "154045.175000", "154045.962500", "154046.752500", "154047.540000", "154048.327500", "154049.115000", "154049.905000", "154050.692500", "154051.480000", "154052.267500", "154053.057500", "154053.845000", "154054.632500", "154055.422500", "154056.210000", "154056.997500", "154057.785000", "154058.575000", "154059.362500", "154100.150000", "154100.937500", "154101.727500", "154102.515000", "154103.302500", "154104.090000", "154104.880000", "154105.667500", "154106.455000", "154107.242500", "154108.032500", "154108.820000"],
      "ContentTime": ["153349.796000", "153349.796000", "153349.796000", "153349.812000", "153349.812000", "153349.812000", "153349.812000", "153349.812000", "153349.828000", "153349.828000", "153349.828000", "153349.828000", "153349.828000", "153349.828000", "153349.828000", "153349.843000", "153349.843000", "153349.843000", "153349.843000", "153349.843000", "153409.781000", "153409.781000", "153409.781000", "153409.781000", "153409.781000", "153409.781000", "153409.781000", "153409.781000", "153409.796000", "153409.796000", "153409.796000", "153409.796000", "153409.796000", "153409.796000", "153409.796000", "153409.812000", "153409.812000", "153409.812000", "153409.812000", "153409.812000", "153409.828000", "153409.828000", "153409.828000", "153409.828000", "153409.828000", "153429.781000", "153429.781000", "153429.781000", "153429.781000", "153429.781000", "153429.781000", "153429.781000", "153429.781000", "153429.796000", "153429.796000", "153429.796000", "153429.796000", "153429.796000", "153429.796000", "153429.796000", "153429.812000", "153429.812000", "153429.812000", "153429.812000", "153429.812000", "153429.812000", "153429.812000", "153429.812000", "153429.828000", "153429.828000", "153429.828000", "153449.781000", "153449.781000", "153449.781000", "153449.781000", "153449.781000", "153449.781000", "153449.781000", "153449.781000", "153449.796000", "153449.796000", "153449.796000", "153449.796000", "153449.796000", "153449.796000", "153449.796000", "153449.812000", "153449.812000", "153449.812000", "153449.812000", "153449.812000", "153449.828000", "153449.828000", "153449.828000", "153449.828000", "153449.828000", "153509.781000", "153509.781000", "153509.781000", "153509.781000", "153509.781000", "153509.781000", "153509.781000", "153509.781000", "153509.796000", "153509.796000", "153509.796000", "153509.796000", "153509.796000", "153509.796000", "153509.796000", "153509.812000", "153509.812000", "153509.812000", "153509.812000", "153509.812000", "153509.812000", "153509.812000", "153509.828000", "153509.828000", "153509.828000", "153509.828000", "153529.781000", "153529.781000", "153529.781000", "153529.781000", "153529.781000", "153529.781000", "153529.781000", "153529.781000", "153529.796000", "153529.796000", "153529.796000", "153529.796000", "153529.796000", "153529.796000", "153529.796000", "153529.796000", "153529.812000", "153529.812000", "153529.812000", "153529.812000", "153529.812000", "153529.812000", "153529.812000", "153529.828000", "153529.828000", "153549.781000", "153549.781000", "153549.781000", "153549.781000", "153549.781000", "153549.781000", "153549.781000", "153549.796000", "153549.796000", "153549.796000", "153549.796000", "153549.796000", "153549.796000", "153549.796000", "153549.812000", "153549.812000", "153549.812000", "153549.812000", "153549.812000", "153549.812000", "153549.828000", "153549.828000", "153549.828000", "153549.828000", "153549.828000", "153609.781000", "153609.781000", "153609.781000", "153609.781000", "153609.781000", "153609.781000", "153609.781000", "153609.781000", "153609.796000", "153609.796000", "153609.796000", "153609.796000", "153609.796000", "153609.796000", "153609.796000", "153609.812000", "153609.812000", "153609.812000", "153609.812000", "153609.812000", "153609.812000", "153609.812000", "153609.828000", "153609.828000", "153609.828000", "153609.828000", "153629.781000", "153629.781000", "153629.781000", "153629.781000", "153629.781000", "153629.781000", "153629.796000", "153629.796000", "153629.796000", "153629.796000", "153629.796000", "153629.796000", "153629.796000", "153629.796000", "153629.812000", "153629.812000", "153629.812000", "153629.812000", "153629.812000", "153629.812000", "153629.812000", "153629.828000", "153629.828000", "153629.828000", "153629.828000", "153649.781000", "153649.781000", "153649.781000", "153649.781000", "153649.781000", "153649.796000", "153649.796000", "153649.796000", "153649.796000", "153649.796000", "153649.796000", "153649.796000", "153649.796000", "153649.812000", "153649.812000", "153649.812000", "153649.812000", "153649.812000", "153649.812000", "153649.812000", "153649.812000", "153649.828000", "153649.828000", "153649.828000", "153649.828000", "153649.828000", "153709.781000", "153709.781000", "153709.781000", "153709.781000", "153709.781000", "153709.781000", "153709.781000", "153709.781000", "153709.796000", "153709.796000", "153709.796000", "153709.796000", "153709.796000", "153709.796000", "153709.796000", "153709.812000", "153709.812000", "153709.812000", "153709.812000", "153709.812000", "153709.812000", "153709.812000", "153709.828000", "153709.828000", "153709.828000", "153729.781000", "153729.781000", "153729.781000", "153729.781000", "153729.781000", "153729.781000", "153729.781000", "153729.781000", "153729.796000", "153729.796000", "153729.796000", "153729.796000", "153729.796000", "153729.796000", "153729.796000", "153729.812000", "153729.812000", "153729.812000", "153729.812000", "153729.812000", "153729.812000", "153729.812000", "153729.812000", "153729.828000", "153729.828000", "153729.828000", "153749.781000", "153749.781000", "153749.781000", "153749.781000", "153749.781000", "153749.781000", "153749.781000", "153749.781000", "153749.796000", "153749.796000", "153749.796000", "153749.796000", "153749.796000", "153749.796000", "153749.796000", "153749.812000", "153749.812000", "153749.812000", "153749.812000", "153749.812000", "153749.812000", "153749.828000", "153749.828000", "153749.828000", "153749.828000", "153809.781000", "153809.781000", "153809.781000", "153809.781000", "153809.781000", "153809.781000", "153809.796000", "153809.796000", "153809.796000", "153809.796000", "153809.796000", "153809.796000", "153809.796000", "153809.812000", "153809.812000", "153809.812000", "153809.812000", "153809.812000", "153809.812000", "153809.828000", "153809.828000", "153809.828000", "153809.828000", "153809.828000", "153809.828000", "153809.828000", "153829.781000", "153829.781000", "153829.781000", "153829.781000", "153829.781000", "153829.781000", "153829.781000", "153829.781000", "153829.796000", "153829.796000", "153829.796000", "153829.796000", "153829.796000", "153829.796000", "153829.796000", "153829.812000", "153829.812000", "153829.812000", "153829.812000", "153829.812000", "153829.812000", "153829.812000", "153829.828000", "153829.828000", "153829.828000", "153849.781000", "153849.781000", "153849.781000", "153849.781000", "153849.781000", "153849.781000", "153849.781000", "153849.796000", "153849.796000", "153849.796000", "153849.796000", "153849.796000", "153849.796000", "153849.796000", "153849.796000", "153849.812000", "153849.812000", "153849.812000", "153849.812000", "153849.812000", "153849.812000", "153849.812000", "153849.828000", "153849.828000", "153849.828000", "153849.828000", "153909.781000", "153909.781000", "153909.781000", "153909.781000", "153909.781000", "153909.781000", "153909.781000", "153909.781000", "153909.796000", "153909.796000", "153909.796000", "153909.796000", "153909.796000", "153909.796000", "153909.796000", "153909.812000", "153909.812000", "153909.812000", "153909.812000", "153909.812000", "153909.812000", "153909.812000", "153909.812000", "153909.828000", "153909.828000", "153929.781000", "153929.781000", "153929.781000", "153929.781000", "153929.781000", "153929.781000", "153929.781000", "153929.781000", "153929.796000", "153929.796000", "153929.796000", "153929.796000", "153929.796000", "153929.812000", "153929.812000", "153929.812000", "153929.812000", "153929.812000", "153929.812000", "153929.828000", "153929.828000", "153929.828000", "153929.828000", "153929.828000", "153929.828000", "153929.828000", "153949.781000", "153949.781000", "153949.781000", "153949.781000", "153949.781000", "153949.781000", "153949.781000", "153949.781000", "153949.796000", "153949.796000", "153949.796000", "153949.796000", "153949.796000", "153949.796000", "153949.796000", "153949.812000", "153949.812000", "153949.812000", "153949.812000", "153949.812000", "153949.812000", "153949.812000", "153949.812000", "153949.828000", "153949.828000", "154009.781000", "154009.781000", "154009.781000", "154009.781000", "154009.781000", "154009.781000", "154009.781000", "154009.781000", "154009.796000", "154009.796000", "154009.796000", "154009.796000", "154009.796000", "154009.796000", "154009.796000", "154009.812000", "154009.812000", "154009.812000", "154009.812000", "154009.812000", "154009.812000", "154009.812000", "154009.828000", "154009.828000", "154009.828000", "154009.828000", "154029.781000", "154029.781000", "154029.781000", "154029.781000", "154029.781000", "154029.781000", "154029.781000", "154029.781000", "154029.796000", "154029.796000", "154029.796000", "154029.796000", "154029.796000", "154029.796000", "154029.796000", "154029.812000", "154029.812000", "154029.812000", "154029.812000", "154029.812000", "154029.812000", "154029.812000", "154029.812000", "154029.828000", "154029.828000", "154049.781000", "154049.781000", "154049.781000", "154049.781000", "154049.781000", "154049.781000", "154049.781000", "154049.781000", "154049.796000", "154049.796000", "154049.796000", "154049.796000", "154049.796000", "154049.796000", "154049.796000", "154049.812000", "154049.812000", "154049.812000", "154049.812000", "154049.812000", "154049.812000", "154049.812000", "154049.812000", "154049.828000", "154049.828000", "154049.828000", "154109.781000", "154109.781000", "154109.781000", "154109.781000", "154109.781000", "154109.781000", "154109.781000", "154109.796000", "154109.796000", "154109.796000", "154109.796000", "154109.796000", "154109.796000", "154109.796000", "154109.812000", "154109.812000", "154109.812000", "154109.812000", "154109.812000", "154109.828000", "154109.828000", "154109.828000", "154109.828000", "154109.828000", "154109.828000", "154110.156000"],
