{
  "AcquisitionMatrixPE": 104,
  "AcquisitionNumber": 1,
  "AcquisitionTime": "14:53:29.165000",
  "BandwidthPerPixelPhaseEncode": 13.935,
  "BaseResolution": 104,
  "CoilString": "C:HEA;HEP",
  "ConversionSoftware": "dcm2niix",
  "ConversionSoftwareVersion": "v1.0.20210317",
  "DerivedVendorReportedEchoSpacing": 0.000690017,
  "DeviceSerialNumber": "35450",
  "DwellTime": 2.5e-06,
  "EchoTime": 0.0348,
  "EffectiveEchoSpacing": 0.000690017,
  "FlipAngle": 55,
  "ImageComments": "Unaliased MB8/PE3 (remote)",
  "ImageOrientationPatientDICOM": [1, 0, 0, 0, 0.996779, -0.0801989],
  "ImageType": [
    "ORIGINAL",
    "PRIMARY",
    "M",
    "MB",
    "ND",
    "MOSAIC"
],
  "ImagingFrequency": 123.235,
  "InPlanePhaseEncodingDirectionDICOM": "COL",
  "InstitutionAddress": "Univeristy Ave. 197,Newark,North East,US,07102-1814",
  "InstitutionName": "RUBIC",
  "InstitutionalDepartmentName": "Department",
  "MRAcquisitionType": "2D",
  "MagneticFieldStrength": 3,
  "Manufacturer": "Siemens",
  "ManufacturersModelName": "TrioTim",
  "Modality": "MR",
  "MultibandAccelerationFactor": 8,
  "PartialFourier": 0.875,
  "PatientPosition": "HFS",
  "PercentPhaseFOV": 100,
  "PercentSampling": 100,
  "PhaseEncodingDirection": "j-",
  "PhaseEncodingSteps": 91,
  "PhaseResolution": 1,
  "PixelBandwidth": 1923,
  "ProcedureStepDescription": "Cole^Michael",
  "ProtocolName": "cmrr_mbep2d_bold_2mm_MB8_Task_8x",
  "PulseSequenceDetails": "%CustomerSeq%\\cmrr_mbep2d_bold",
  "ReceiveCoilName": "32Ch_Head",
  "ReconMatrixPE": 104,
  "RepetitionTime": 0.785,
  "SAR": 0.134949,
  "ScanOptions": "PFP\\FS",
  "ScanningSequence": "EP",
  "SequenceName": "epfid2d1_104",
  "SequenceVariant": "SK\\SS",
  "SeriesDescription": "cmrr_mbep2d_bold_2mm_MB8_Task_8x",
  "SeriesNumber": 13,
  "ShimSetting": [2101, -452, -7325, 572, 33, 56, 301, 36],
  "SliceThickness": 2,
  "SliceTiming": [0, 0.4375, 0.0875, 0.525, 0.175, 0.6125, 0.2625, 0.7, 0.35, 0, 0.4375, 0.0875, 0.525, 0.175, 0.6125, 0.2625, 0.7, 0.35, 0, 0.4375, 0.0875, 0.525, 0.175, 0.6125, 0.2625, 0.7, 0.35, 0, 0.4375, 0.0875, 0.525, 0.175, 0.6125, 0.2625, 0.7, 0.35, 0, 0.4375, 0.0875, 0.525, 0.175, 0.6125, 0.2625, 0.7, 0.35, 0, 0.4375, 0.0875, 0.525, 0.175, 0.6125, 0.2625, 0.7, 0.35, 0, 0.4375, 0.0875, 0.525, 0.175, 0.6125, 0.2625, 0.7, 0.35, 0, 0.4375, 0.0875, 0.525, 0.175, 0.6125, 0.2625, 0.7, 0.35],
  "SoftwareVersions": "syngo MR B19",
  "SpacingBetweenSlices": 2,
  "StationName": "MRC35450",
  "TaskName": "cpro",
  "TotalReadoutTime": 0.0710717,
  "TxRefAmp": 328.615,
  "dcmmeta_affine": [
    [-2.0, 0.0, 0.0, 104.67796325683594],
    [0.0, 1.9935578107833862, -0.16039785742759705, -81.35556030273438],
    [0.0, 0.16039784252643585, 1.9935578107833862, -114.36184692382812],
    [0.0, 0.0, 0.0, 1.0]
],
  "dcmmeta_reorient_transform": [
    [0.0, -1.0, 0.0, 103.0],
    [1.0, 0.0, 0.0, 0.0],
    [0.0, 0.0, 1.0, 0.0],
    [0.0, 0.0, 0.0, 1.0]
],
  "dcmmeta_shape": [104, 104, 72, 581],
  "dcmmeta_slice_dim": 2,
  "dcmmeta_version": 0.6,
  "global": {
    "const": {
      "AcquisitionMatrix": [104, 0, 0, 104],
      "AngioFlag": "N",
      "BitsAllocated": 16,
      "BitsStored": 12,
      "Columns": 936,
      "EchoNumbers": 1,
      "EchoTime": 34.8,
      "EchoTrainLength": 1,
      "FlipAngle": 55.0,
      "HighBit": 11,
      "ImageOrientationPatient": [1.0, 0.0, 0.0, 0.0, 0.99677887851542, -0.0801989235934],
      "ImagePositionPatient": [-936.67796611786, -953.30091583426, -31.115364218265],
      "ImageType": [
        "ORIGINAL",
        "PRIMARY",
        "M",
        "MB",
        "ND",
        "MOSAIC"
],
      "ImagedNucleus": "1H",
      "ImagingFrequency": 123.23454,
      "InPlanePhaseEncodingDirection": "COL",
      "MRAcquisitionType": "2D",
      "MagneticFieldStrength": 3.0,
      "Manufacturer": "SIEMENS",
      "ManufacturerModelName": "TrioTim",
      "Modality": "MR",
      "NumberOfAverages": 1.0,
      "NumberOfPhaseEncodingSteps": 91,
      "PercentPhaseFieldOfView": 100.0,
      "PercentSampling": 100.0,
      "PerformedProcedureStepStartTime": "135001.843000",
      "PhotometricInterpretation": "MONOCHROME2",
      "PixelBandwidth": 1923.0,
      "PixelRepresentation": 0,
      "PixelSpacing": [2.0, 2.0],
      "ProtocolName": "cmrr_mbep2d_bold_2mm_MB8_Task_8x",
      "RepetitionTime": 785.0,
      "Rows": 936,
      "SAR": 0.1349493890243,
      "SamplesPerPixel": 1,
      "ScanOptions": [
        "PFP",
        "FS"
],
      "ScanningSequence": "EP",
      "SequenceName": "epfid2d1_104",
      "SequenceVariant": [
        "SK",
        "SS"
],
      "SeriesDescription": "cmrr_mbep2d_bold_2mm_MB8_Task_8x",
      "SeriesNumber": 13,
      "SeriesTime": "145348.859000",
      "SliceLocation": -107.46884516056,
      "SliceThickness": 2.0,
      "SmallestImagePixelValue": 0,
      "SoftwareVersions": "syngo MR B19",
      "SpacingBetweenSlices": 2.0000000779898,
      "SpecificCharacterSet": "ISO_IR 100",
      "StudyID": "1",
      "StudyTime": "135001.812000",
      "TransmitCoilName": "Body",
      "VariableFlipAngleFlag": "N",
      "WindowCenterWidthExplanation": "Algo1",
      "dBdt": 0.0},
    "slices": {}
  },
  "time": {
    "samples": {
      "AcquisitionNumber": [1, 2, 3, 4, 5, 6, 7, 8, 9, 10, 11, 12, 13, 14, 15, 16, 17, 18, 19, 20, 21, 22, 23, 24, 25, 26, 27, 28, 29, 30, 31, 32, 33, 34, 35, 36, 37, 38, 39, 40, 41, 42, 43, 44, 45, 46, 47, 48, 49, 50, 51, 52, 53, 54, 55, 56, 57, 58, 59, 60, 61, 62, 63, 64, 65, 66, 67, 68, 69, 70, 71, 72, 73, 74, 75, 76, 77, 78, 79, 80, 81, 82, 83, 84, 85, 86, 87, 88, 89, 90, 91, 92, 93, 94, 95, 96, 97, 98, 99, 100, 101, 102, 103, 104, 105, 106, 107, 108, 109, 110, 111, 112, 113, 114, 115, 116, 117, 118, 119, 120, 121, 122, 123, 124, 125, 126, 127, 128, 129, 130, 131, 132, 133, 134, 135, 136, 137, 138, 139, 140, 141, 142, 143, 144, 145, 146, 147, 148, 149, 150, 151, 152, 153, 154, 155, 156, 157, 158, 159, 160, 161, 162, 163, 164, 165, 166, 167, 168, 169, 170, 171, 172, 173, 174, 175, 176, 177, 178, 179, 180, 181, 182, 183, 184, 185, 186, 187, 188, 189, 190, 191, 192, 193, 194, 195, 196, 197, 198, 199, 200, 201, 202, 203, 204, 205, 206, 207, 208, 209, 210, 211, 212, 213, 214, 215, 216, 217, 218, 219, 220, 221, 222, 223, 224, 225, 226, 227, 228, 229, 230, 231, 232, 233, 234, 235, 236, 237, 238, 239, 240, 241, 242, 243, 244, 245, 246, 247, 248, 249, 250, 251, 252, 253, 254, 255, 256, 257, 258, 259, 260, 261, 262, 263, 264, 265, 266, 267, 268, 269, 270, 271, 272, 273, 274, 275, 276, 277, 278, 279, 280, 281, 282, 283, 284, 285, 286, 287, 288, 289, 290, 291, 292, 293, 294, 295, 296, 297, 298, 299, 300, 301, 302, 303, 304, 305, 306, 307, 308, 309, 310, 311, 312, 313, 314, 315, 316, 317, 318, 319, 320, 321, 322, 323, 324, 325, 326, 327, 328, 329, 330, 331, 332, 333, 334, 335, 336, 337, 338, 339, 340, 341, 342, 343, 344, 345, 346, 347, 348, 349, 350, 351, 352, 353, 354, 355, 356, 357, 358, 359, 360, 361, 362, 363, 364, 365, 366, 367, 368, 369, 370, 371, 372, 373, 374, 375, 376, 377, 378, 379, 380, 381, 382, 383, 384, 385, 386, 387, 388, 389, 390, 391, 392, 393, 394, 395, 396, 397, 398, 399, 400, 401, 402, 403, 404, 405, 406, 407, 408, 409, 410, 411, 412, 413, 414, 415, 416, 417, 418, 419, 420, 421, 422, 423, 424, 425, 426, 427, 428, 429, 430, 431, 432, 433, 434, 435, 436, 437, 438, 439, 440, 441, 442, 443, 444, 445, 446, 447, 448, 449, 450, 451, 452, 453, 454, 455, 456, 457, 458, 459, 460, 461, 462, 463, 464, 465, 466, 467, 468, 469, 470, 471, 472, 473, 474, 475, 476, 477, 478, 479, 480, 481, 482, 483, 484, 485, 486, 487, 488, 489, 490, 491, 492, 493, 494, 495, 496, 497, 498, 499, 500, 501, 502, 503, 504, 505, 506, 507, 508, 509, 510, 511, 512, 513, 514, 515, 516, 517, 518, 519, 520, 521, 522, 523, 524, 525, 526, 527, 528, 529, 530, 531, 532, 533, 534, 535, 536, 537, 538, 539, 540, 541, 542, 543, 544, 545, 546, 547, 548, 549, 550, 551, 552, 553, 554, 555, 556, 557, 558, 559, 560, 561, 562, 563, 564, 565, 566, 567, 568, 569, 570, 571, 572, 573, 574, 575, 576, 577, 578, 579, 580, 581],
      "AcquisitionTime": ["145329.165000", "145329.952500", "145330.742500", "145331.530000", "145332.317500", "145333.105000", "145333.895000", "145334.682500", "145335.470000", "145336.257500", "145337.047500", "145337.835000", "145338.622500", "145339.412500", "145340.200000", "145340.987500", "145341.775000", "145342.565000", "145343.352500", "145344.140000", "145344.927500", "145345.717500", "145346.505000", "145347.292500", "145348.080000", "145348.870000", "145349.657500", "145350.445000", "145351.232500", "145352.022500", "145352.810000", "145353.597500", "145354.385000", "145355.175000", "145355.962500", "145356.750000", "145357.540000", "145358.327500", "145359.115000", "145359.902500", "145400.692500", "145401.480000", "145402.267500", "145403.055000", "145403.845000", "145404.632500", "145405.420000", "145406.207500", "145406.997500", "145407.785000", "145408.572500", "145409.360000", "145410.150000", "145410.937500", "145411.725000", "145412.512500", "145413.302500", "145414.090000", "145414.877500", "145415.667500", "145416.455000", "145417.242500", "145418.030000", "145418.820000", "145419.607500", "145420.395000", "145421.182500", "145421.972500", "145422.760000", "145423.547500", "145424.335000", "145425.125000", "145425.912500", "145426.700000", "145427.487500", "145428.277500", "145429.065000", "145429.852500", "145430.640000", "145431.430000", "145432.217500", "145433.005000", "145433.795000", "145434.582500", "145435.370000", "145436.157500", "145436.947500", "145437.735000", "145438.522500", "145439.310000", "145440.100000", "145440.887500", "145441.675000", "145442.462500", "145443.252500", "145444.040000", "145444.827500", "145445.615000", "145446.405000", "145447.192500", "145447.980000", "145448.767500", "145449.557500", "145450.345000", "145451.132500", "145451.922500", "145452.710000", "145453.497500", "145454.285000", "145455.075000", "145455.862500", "145456.650000", "145457.437500", "145458.227500", "145459.015000", "145459.802500", "145500.590000", "145501.380000", "145502.167500", "145502.955000", "145503.742500", "145504.532500", "145505.320000", "145506.107500", "145506.895000", "145507.685000", "145508.472500", "145509.260000", "145510.050000", "145510.837500", "145511.625000", "145512.412500", "145513.202500", "145513.990000", "145514.777500", "145515.565000", "145516.355000", "145517.142500", "145517.930000", "145518.717500", "145519.507500", "145520.295000", "145521.082500", "145521.870000", "145522.660000", "145523.447500", "145524.235000", "145525.022500", "145525.812500", "145526.600000", "145527.387500", "145528.177500", "145528.965000", "145529.752500", "145530.540000", "145531.330000", "145532.117500", "145532.905000", "145533.692500", "145534.482500", "145535.270000", "145536.057500", "145536.845000", "145537.635000", "145538.422500", "145539.210000", "145539.997500", "145540.787500", "145541.575000", "145542.362500", "145543.150000", "145543.940000", "145544.727500", "145545.515000", "145546.305000", "145547.092500", "145547.880000", "145548.667500", "145549.457500", "145550.245000", "145551.032500", "145551.820000", "145552.610000", "145553.397500", "145554.185000", "145554.972500", "145555.762500", "145556.550000", "145557.337500", "145558.125000", "145558.915000", "145559.702500", "145600.490000", "145601.277500", "145602.067500", "145602.855000", "145603.642500", "145604.432500", "145605.220000", "145606.007500", "145606.795000", "145607.585000", "145608.372500", "145609.160000", "145609.947500", "145610.737500", "145611.525000", "145612.312500", "145613.100000", "145613.890000", "145614.677500", "145615.465000", "145616.252500", "145617.042500", "145617.830000", "145618.617500", "145619.407500", "145620.195000", "145620.982500", "145621.770000", "145622.560000", "145623.347500", "145624.135000", "145624.922500", "145625.712500", "145626.500000", "145627.287500", "145628.075000", "145628.865000", "145629.652500", "145630.440000", "145631.227500", "145632.017500", "145632.805000", "145633.592500", "145634.380000", "145635.170000", "145635.957500", "145636.745000", "145637.535000", "145638.322500", "145639.110000", "145639.897500", "145640.687500", "145641.475000", "145642.262500", "145643.050000", "145643.840000", "145644.627500", "145645.415000", "145646.202500", "145646.992500", "145647.780000", "145648.567500", "145649.355000", "145650.145000", "145650.932500", "145651.720000", "145652.507500", "145653.297500", "145654.085000", "145654.872500", "145655.662500", "145656.450000", "145657.237500", "145658.025000", "145658.815000", "145659.602500", "145700.390000", "145701.177500", "145701.967500", "145702.755000", "145703.542500", "145704.330000", "145705.120000", "145705.907500", "145706.695000", "145707.482500", "145708.272500", "145709.060000", "145709.847500", "145710.635000", "145711.425000", "145712.212500", "145713.000000", "145713.790000", "145714.577500", "145715.365000", "145716.152500", "145716.942500", "145717.730000", "145718.517500", "145719.305000", "145720.095000", "145720.882500", "145721.670000", "145722.457500", "145723.247500", "145724.035000", "145724.822500", "145725.610000", "145726.400000", "145727.187500", "145727.975000", "145728.762500", "145729.552500", "145730.340000", "145731.127500", "145731.917500", "145732.705000", "145733.492500", "145734.280000", "145735.070000", "145735.857500", "145736.645000", "145737.432500", "145738.222500", "145739.010000", "145739.797500", "145740.585000", "145741.375000", "145742.162500", "145742.950000", "145743.737500", "145744.527500", "145745.315000", "145746.102500", "145746.890000", "145747.680000", "145748.467500", "145749.255000", "145750.045000", "145750.832500", "145751.620000", "145752.407500", "145753.197500", "145753.985000", "145754.772500", "145755.560000", "145756.350000", "145757.137500", "145757.925000", "145758.712500", "145759.502500", "145800.290000", "145801.077500", "145801.865000", "145802.655000", "145803.442500", "145804.230000", "145805.017500", "145805.807500", "145806.595000", "145807.382500", "145808.172500", "145808.960000", "145809.747500", "145810.535000", "145811.325000", "145812.112500", "145812.900000", "145813.687500", "145814.477500", "145815.265000", "145816.052500", "145816.840000", "145817.630000", "145818.417500", "145819.205000", "145819.992500", "145820.782500", "145821.570000", "145822.357500", "145823.145000", "145823.935000", "145824.722500", "145825.510000", "145826.300000", "145827.087500", "145827.875000", "145828.662500", "145829.452500", "145830.240000", "145831.027500", "145831.815000", "145832.605000", "145833.392500", "145834.180000", "145834.967500", "145835.757500", "145836.545000", "145837.332500", "145838.120000", "145838.910000", "145839.697500", "145840.485000", "145841.272500", "145842.062500", "145842.850000", "145843.637500", "145844.427500", "145845.215000", "145846.002500", "145846.790000", "145847.580000", "145848.367500", "145849.155000", "145849.942500", "145850.732500", "145851.520000", "145852.307500", "145853.095000", "145853.885000", "145854.672500", "145855.460000", "145856.247500", "145857.037500", "145857.825000", "145858.612500", "145859.400000", "145900.190000", "145900.977500", "145901.765000", "145902.555000", "145903.342500", "145904.130000", "145904.917500", "145905.707500", "145906.495000", "145907.282500", "145908.070000", "145908.860000", "145909.647500", "145910.435000", "145911.222500", "145912.012500", "145912.800000", "145913.587500", "145914.375000", "145915.165000", "145915.952500", "145916.740000", "145917.527500", "145918.317500", "145919.105000", "145919.892500", "145920.682500", "145921.470000", "145922.257500", "145923.045000", "145923.835000", "145924.622500", "145925.410000", "145926.197500", "145926.987500", "145927.775000", "145928.562500", "145929.350000", "145930.140000", "145930.927500", "145931.715000", "145932.502500", "145933.292500", "145934.080000", "145934.867500", "145935.657500", "145936.445000", "145937.232500", "145938.020000", "145938.810000", "145939.597500", "145940.385000", "145941.172500", "145941.962500", "145942.750000", "145943.537500", "145944.325000", "145945.115000", "145945.902500", "145946.690000", "145947.477500", "145948.267500", "145949.055000", "145949.842500", "145950.630000", "145951.420000", "145952.207500", "145952.995000", "145953.785000", "145954.572500", "145955.360000", "145956.147500", "145956.937500", "145957.725000", "145958.512500", "145959.300000", "150000.090000", "150000.877500", "150001.665000", "150002.452500", "150003.242500", "150004.030000", "150004.817500", "150005.605000", "150006.395000", "150007.182500", "150007.970000", "150008.757500", "150009.547500", "150010.335000", "150011.122500", "150011.912500", "150012.700000", "150013.487500", "150014.275000", "150015.065000", "150015.852500", "150016.640000", "150017.427500", "150018.217500", "150019.005000", "150019.792500", "150020.580000", "150021.370000", "150022.157500", "150022.945000", "150023.732500", "150024.522500", "150025.310000", "150026.097500", "150026.885000", "150027.675000", "150028.462500", "150029.250000", "150030.040000", "150030.827500", "150031.615000", "150032.402500", "150033.192500", "150033.980000", "150034.767500", "150035.555000", "150036.345000", "150037.132500", "150037.920000", "150038.707500", "150039.497500", "150040.285000", "150041.072500", "150041.860000", "150042.650000", "150043.437500", "150044.225000", "150045.012500", "150045.802500", "150046.590000", "150047.377500", "150048.167500", "150048.955000", "150049.742500", "150050.530000", "150051.320000", "150052.107500", "150052.895000", "150053.682500", "150054.472500", "150055.260000", "150056.047500", "150056.835000", "150057.625000", "150058.412500", "150059.200000", "150059.987500", "150100.777500", "150101.565000", "150102.352500", "150103.140000", "150103.930000", "150104.717500", "150105.505000", "150106.295000"],
      "ContentTime": ["145348.859000", "145348.859000", "145348.859000", "145348.875000", "145348.875000", "145348.875000", "145348.875000", "145348.875000", "145348.875000", "145348.875000", "145348.875000", "145348.890000", "145348.890000", "145348.890000", "145348.890000", "145348.890000", "145348.890000", "145348.890000", "145348.906000", "145348.906000", "145348.906000", "145348.906000", "145408.843000", "145408.843000", "145408.843000", "145408.843000", "145408.843000", "145408.843000", "145408.843000", "145408.843000", "145408.859000", "145408.859000", "145408.859000", "145408.859000", "145408.859000", "145408.859000", "145408.859000", "145408.875000", "145408.875000", "145408.875000", "145408.875000", "145408.875000", "145408.875000", "145408.875000", "145408.890000", "145408.890000", "145408.890000", "145408.890000", "145428.843000", "145428.843000", "145428.843000", "145428.843000", "145428.843000", "145428.843000", "145428.843000", "145428.843000", "145428.859000", "145428.859000", "145428.859000", "145428.859000", "145428.859000", "145428.859000", "145428.859000", "145428.875000", "145428.875000", "145428.875000", "145428.875000", "145428.875000", "145428.875000", "145428.875000", "145428.875000", "145428.890000", "145428.890000", "145448.843000", "145448.843000", "145448.843000", "145448.843000", "145448.843000", "145448.843000", "145448.843000", "145448.859000", "145448.859000", "145448.859000", "145448.859000", "145448.859000", "145448.859000", "145448.859000", "145448.875000", "145448.875000", "145448.875000", "145448.875000", "145448.875000", "145448.875000", "145448.875000", "145448.875000", "145448.890000", "145448.890000", "145448.890000", "145448.890000", "145508.843000", "145508.843000", "145508.843000", "145508.843000", "145508.843000", "145508.843000", "145508.843000", "145508.843000", "145508.859000", "145508.859000", "145508.859000", "145508.859000", "145508.859000", "145508.859000", "145508.859000", "145508.875000", "145508.875000", "145508.875000", "145508.875000", "145508.875000", "145508.875000", "145508.875000", "145508.890000", "145508.890000", "145508.890000", "145528.843000", "145528.843000", "145528.843000", "145528.843000", "145528.843000", "145528.843000", "145528.843000", "145528.843000", "145528.859000", "145528.859000", "145528.859000", "145528.859000", "145528.859000", "145528.859000", "145528.859000", "145528.875000", "145528.875000", "145528.875000", "145528.875000", "145528.875000", "145528.875000", "145528.890000", "145528.890000", "145528.890000", "145528.890000", "145528.890000", "145548.843000", "145548.843000", "145548.843000", "145548.843000", "145548.843000", "145548.843000", "145548.843000", "145548.843000", "145548.859000", "145548.859000", "145548.859000", "145548.859000", "145548.859000", "145548.859000", "145548.859000", "145548.875000", "145548.875000", "145548.875000", "145548.875000", "145548.875000", "145548.875000", "145548.890000", "145548.890000", "145548.890000", "145548.890000", "145608.843000", "145608.843000", "145608.843000", "145608.843000", "145608.843000", "145608.843000", "145608.843000", "145608.843000", "145608.859000", "145608.859000", "145608.859000", "145608.859000", "145608.859000", "145608.859000", "145608.875000", "145608.875000", "145608.875000", "145608.875000", "145608.875000", "145608.875000", "145608.875000", "145608.890000", "145608.890000", "145608.890000", "145608.890000", "145608.890000", "145628.843000", "145628.843000", "145628.843000", "145628.843000", "145628.843000", "145628.843000", "145628.843000", "145628.843000", "145628.859000", "145628.859000", "145628.859000", "145628.859000", "145628.859000", "145628.859000", "145628.859000", "145628.875000", "145628.875000", "145628.875000", "145628.875000", "145628.875000", "145628.875000", "145628.875000", "145628.875000", "145628.890000", "145628.890000", "145648.843000", "145648.843000", "145648.843000", "145648.843000", "145648.843000", "145648.843000", "145648.859000", "145648.859000", "145648.859000", "145648.859000", "145648.859000", "145648.859000", "145648.859000", "145648.875000", "145648.875000", "145648.875000", "145648.875000", "145648.875000", "145648.875000", "145648.875000", "145648.890000", "145648.890000", "145648.890000", "145648.890000", "145648.890000", "145708.843000", "145708.843000", "145708.843000", "145708.843000", "145708.843000", "145708.843000", "145708.843000", "145708.859000", "145708.859000", "145708.859000", "145708.859000", "145708.859000", "145708.875000", "145708.875000", "145708.875000", "145708.875000", "145708.875000", "145708.875000", "145708.875000", "145708.875000", "145708.890000", "145708.890000", "145708.890000", "145708.890000", "145708.890000", "145708.890000", "145728.843000", "145728.843000", "145728.843000", "145728.843000", "145728.843000", "145728.859000", "145728.859000", "145728.859000", "145728.859000", "145728.859000", "145728.859000", "145728.859000", "145728.875000", "145728.875000", "145728.875000", "145728.875000", "145728.875000", "145728.875000", "145728.875000", "145728.890000", "145728.890000", "145728.890000", "145728.890000", "145728.890000", "145728.890000", "145748.843000", "145748.843000", "145748.843000", "145748.843000", "145748.843000", "145748.843000", "145748.843000", "145748.843000", "145748.859000", "145748.859000", "145748.859000", "145748.859000", "145748.859000", "145748.859000", "145748.859000", "145748.875000", "145748.875000", "145748.875000", "145748.875000", "145748.875000", "145748.875000", "145748.875000", "145748.890000", "145748.890000", "145748.890000", "145748.890000", "145808.843000", "145808.843000", "145808.843000", "145808.843000", "145808.843000", "145808.843000", "145808.843000", "145808.843000", "145808.859000", "145808.859000", "145808.875000", "145808.875000", "145808.875000", "145808.875000", "145808.875000", "145808.875000", "145808.875000", "145808.875000", "145808.890000", "145808.890000", "145808.890000", "145808.906000", "145808.906000", "145808.906000", "145808.906000", "145828.843000", "145828.843000", "145828.843000", "145828.843000", "145828.843000", "145828.843000", "145828.843000", "145828.843000", "145828.859000", "145828.859000", "145828.859000", "145828.859000", "145828.859000", "145828.875000", "145828.875000", "145828.875000", "145828.875000", "145828.875000", "145828.875000", "145828.890000", "145828.890000", "145828.890000", "145828.890000", "145828.890000", "145828.890000", "145828.890000", "145848.843000", "145848.843000", "145848.843000", "145848.843000", "145848.843000", "145848.843000", "145848.843000", "145848.859000", "145848.859000", "145848.859000", "145848.859000", "145848.859000", "145848.859000", "145848.859000", "145848.859000", "145848.875000", "145848.875000", "145848.875000", "145848.875000", "145848.875000", "145848.875000", "145848.875000", "145848.875000", "145848.890000", "145848.890000", "145908.843000", "145908.843000", "145908.843000", "145908.843000", "145908.843000", "145908.843000", "145908.843000", "145908.859000", "145908.859000", "145908.859000", "145908.859000", "145908.859000", "145908.859000", "145908.859000", "145908.859000", "145908.875000", "145908.875000", "145908.875000", "145908.875000", "145908.875000", "145908.875000", "145908.875000", "145908.890000", "145908.890000", "145908.890000", "145908.890000", "145928.843000", "145928.843000", "145928.843000", "145928.843000", "145928.843000", "145928.843000", "145928.843000", "145928.843000", "145928.859000", "145928.859000", "145928.859000", "145928.859000", "145928.859000", "145928.859000", "145928.859000", "145928.875000", "145928.875000", "145928.875000", "145928.875000", "145928.875000", "145928.875000", "145928.875000", "145928.875000", "145928.890000", "145928.890000", "145948.843000", "145948.843000", "145948.843000", "145948.843000", "145948.843000", "145948.843000", "145948.843000", "145948.843000", "145948.859000", "145948.859000", "145948.859000", "145948.859000", "145948.859000", "145948.859000", "145948.859000", "145948.875000", "145948.875000", "145948.875000", "145948.875000", "145948.875000", "145948.875000", "145948.875000", "145948.875000", "145948.890000", "145948.890000", "145948.890000", "150008.843000", "150008.843000", "150008.843000", "150008.843000", "150008.843000", "150008.843000", "150008.843000", "150008.843000", "150008.859000", "150008.859000", "150008.859000", "150008.859000", "150008.859000", "150008.859000", "150008.859000", "150008.875000", "150008.875000", "150008.875000", "150008.875000", "150008.875000", "150008.875000", "150008.875000", "150008.890000", "150008.890000", "150008.890000", "150028.843000", "150028.843000", "150028.843000", "150028.843000", "150028.843000", "150028.843000", "150028.843000", "150028.843000", "150028.859000", "150028.859000", "150028.859000", "150028.859000", "150028.859000", "150028.859000", "150028.859000", "150028.875000", "150028.875000", "150028.875000", "150028.875000", "150028.875000", "150028.875000", "150028.875000", "150028.890000", "150028.890000", "150028.890000", "150028.890000", "150048.843000", "150048.843000", "150048.843000", "150048.843000", "150048.843000", "150048.843000", "150048.843000", "150048.843000", "150048.859000", "150048.859000", "150048.859000", "150048.859000", "150048.859000", "150048.859000", "150048.859000", "150048.875000", "150048.875000", "150048.875000", "150048.875000", "150048.875000", "150048.875000", "150048.875000", "150048.875000", "150048.890000", "150048.890000", "150107.234000", "150107.234000", "150107.234000", "150107.250000", "150107.250000", "150107.250000", "150107.250000", "150107.250000", "150107.250000", "150107.250000", "150107.250000", "150107.265000", "150107.265000", "150107.265000", "150107.265000", "150107.265000", "150107.281000", "150107.281000", "150107.281000", "150107.281000", "150107.281000", "150107.281000", "150107.296000", "150107.296000"],
