{
  "AcquisitionMatrixPE": 104,
  "AcquisitionNumber": 1,
  "AcquisitionTime": "15:01:28.722500",
  "BandwidthPerPixelPhaseEncode": 13.935,
  "BaseResolution": 104,
  "CoilString": "C:HEA;HEP",
  "ConversionSoftware": "dcm2niix",
  "ConversionSoftwareVersion": "v1.0.20210317",
  "DerivedVendorReportedEchoSpacing": 0.000690017,
  "DeviceSerialNumber": "35450",
  "DwellTime": 2.5e-06,
  "EchoTime": 0.0348,
  "EffectiveEchoSpacing": 0.000690017,
  "FlipAngle": 55,
  "ImageComments": "Unaliased MB8/PE3 (remote)",
  "ImageOrientationPatientDICOM": [1, 0, 0, 0, 0.996779, -0.0801989],
  "ImageType": [
    "ORIGINAL",
    "PRIMARY",
    "M",
    "MB",
    "ND",
    "MOSAIC"
],
  "ImagingFrequency": 123.235,
  "InPlanePhaseEncodingDirectionDICOM": "COL",
  "InstitutionAddress": "Univeristy Ave. 197,Newark,North East,US,07102-1814",
  "InstitutionName": "RUBIC",
  "InstitutionalDepartmentName": "Department",
  "MRAcquisitionType": "2D",
  "MagneticFieldStrength": 3,
  "Manufacturer": "Siemens",
  "ManufacturersModelName": "TrioTim",
  "Modality": "MR",
  "MultibandAccelerationFactor": 8,
  "PartialFourier": 0.875,
  "PatientPosition": "HFS",
  "PercentPhaseFOV": 100,
  "PercentSampling": 100,
  "PhaseEncodingDirection": "j-",
  "PhaseEncodingSteps": 91,
  "PhaseResolution": 1,
  "PixelBandwidth": 1923,
  "ProcedureStepDescription": "Cole^Michael",
  "ProtocolName": "cmrr_mbep2d_bold_2mm_MB8_Task_8x",
  "PulseSequenceDetails": "%CustomerSeq%\\cmrr_mbep2d_bold",
  "ReceiveCoilName": "32Ch_Head",
  "ReconMatrixPE": 104,
  "RepetitionTime": 0.785,
  "SAR": 0.132051,
  "ScanOptions": "PFP\\FS",
  "ScanningSequence": "EP",
  "SequenceName": "epfid2d1_104",
  "SequenceVariant": "SK\\SS",
  "SeriesDescription": "cmrr_mbep2d_bold_2mm_MB8_Task_8x",
  "SeriesNumber": 15,
  "ShimSetting": [2101, -452, -7325, 572, 33, 56, 301, 36],
  "SliceThickness": 2,
  "SliceTiming": [0, 0.4375, 0.0875, 0.525, 0.175, 0.6125, 0.2625, 0.7, 0.35, 0, 0.4375, 0.0875, 0.525, 0.175, 0.6125, 0.2625, 0.7, 0.35, 0, 0.4375, 0.0875, 0.525, 0.175, 0.6125, 0.2625, 0.7, 0.35, 0, 0.4375, 0.0875, 0.525, 0.175, 0.6125, 0.2625, 0.7, 0.35, 0, 0.4375, 0.0875, 0.525, 0.175, 0.6125, 0.2625, 0.7, 0.35, 0, 0.4375, 0.0875, 0.525, 0.175, 0.6125, 0.2625, 0.7, 0.35, 0, 0.4375, 0.0875, 0.525, 0.175, 0.6125, 0.2625, 0.7, 0.35, 0, 0.4375, 0.0875, 0.525, 0.175, 0.6125, 0.2625, 0.7, 0.35],
  "SoftwareVersions": "syngo MR B19",
  "SpacingBetweenSlices": 2,
  "StationName": "MRC35450",
  "TaskName": "cpro",
  "TotalReadoutTime": 0.0710717,
  "TxRefAmp": 328.615,
  "dcmmeta_affine": [
    [-2.0, 0.0, 0.0, 104.67796325683594],
    [0.0, 1.9935578107833862, -0.16039785742759705, -81.35556030273438],
    [0.0, 0.16039784252643585, 1.9935578107833862, -114.36184692382812],
    [0.0, 0.0, 0.0, 1.0]
],
  "dcmmeta_reorient_transform": [
    [0.0, -1.0, 0.0, 103.0],
    [1.0, 0.0, 0.0, 0.0],
    [0.0, 0.0, 1.0, 0.0],
    [0.0, 0.0, 0.0, 1.0]
],
  "dcmmeta_shape": [104, 104, 72, 581],
  "dcmmeta_slice_dim": 2,
  "dcmmeta_version": 0.6,
  "global": {
    "const": {
      "AcquisitionMatrix": [104, 0, 0, 104],
      "AngioFlag": "N",
      "BitsAllocated": 16,
      "BitsStored": 12,
      "Columns": 936,
      "EchoNumbers": 1,
      "EchoTime": 34.8,
      "EchoTrainLength": 1,
      "FlipAngle": 55.0,
      "HighBit": 11,
      "ImageOrientationPatient": [1.0, 0.0, 0.0, 0.0, 0.99677887851542, -0.0801989235934],
      "ImagePositionPatient": [-936.67796611786, -953.30091583426, -31.115364218265],
      "ImageType": [
        "ORIGINAL",
        "PRIMARY",
        "M",
        "MB",
        "ND",
        "MOSAIC"
],
      "ImagedNucleus": "1H",
      "ImagingFrequency": 123.23454,
      "InPlanePhaseEncodingDirection": "COL",
      "MRAcquisitionType": "2D",
      "MagneticFieldStrength": 3.0,
      "Manufacturer": "SIEMENS",
      "ManufacturerModelName": "TrioTim",
      "Modality": "MR",
      "NumberOfAverages": 1.0,
      "NumberOfPhaseEncodingSteps": 91,
      "PercentPhaseFieldOfView": 100.0,
      "PercentSampling": 100.0,
      "PerformedProcedureStepStartTime": "135001.843000",
      "PhotometricInterpretation": "MONOCHROME2",
      "PixelBandwidth": 1923.0,
      "PixelRepresentation": 0,
      "PixelSpacing": [2.0, 2.0],
      "ProtocolName": "cmrr_mbep2d_bold_2mm_MB8_Task_8x",
      "RepetitionTime": 785.0,
      "Rows": 936,
      "SAR": 0.13205100171924,
      "SamplesPerPixel": 1,
      "ScanOptions": [
        "PFP",
        "FS"
],
      "ScanningSequence": "EP",
      "SequenceName": "epfid2d1_104",
      "SequenceVariant": [
        "SK",
        "SS"
],
      "SeriesDescription": "cmrr_mbep2d_bold_2mm_MB8_Task_8x",
      "SeriesNumber": 15,
      "SeriesTime": "150205.437000",
      "SliceLocation": -107.46884516056,
      "SliceThickness": 2.0,
      "SmallestImagePixelValue": 0,
      "SoftwareVersions": "syngo MR B19",
      "SpacingBetweenSlices": 2.0000000779898,
      "SpecificCharacterSet": "ISO_IR 100",
      "StudyID": "1",
      "StudyTime": "135001.812000",
      "TransmitCoilName": "Body",
      "VariableFlipAngleFlag": "N",
      "WindowCenterWidthExplanation": "Algo1",
      "dBdt": 0.0},
    "slices": {}
  },
  "time": {
    "samples": {
      "AcquisitionNumber": [1, 2, 3, 4, 5, 6, 7, 8, 9, 10, 11, 12, 13, 14, 15, 16, 17, 18, 19, 20, 21, 22, 23, 24, 25, 26, 27, 28, 29, 30, 31, 32, 33, 34, 35, 36, 37, 38, 39, 40, 41, 42, 43, 44, 45, 46, 47, 48, 49, 50, 51, 52, 53, 54, 55, 56, 57, 58, 59, 60, 61, 62, 63, 64, 65, 66, 67, 68, 69, 70, 71, 72, 73, 74, 75, 76, 77, 78, 79, 80, 81, 82, 83, 84, 85, 86, 87, 88, 89, 90, 91, 92, 93, 94, 95, 96, 97, 98, 99, 100, 101, 102, 103, 104, 105, 106, 107, 108, 109, 110, 111, 112, 113, 114, 115, 116, 117, 118, 119, 120, 121, 122, 123, 124, 125, 126, 127, 128, 129, 130, 131, 132, 133, 134, 135, 136, 137, 138, 139, 140, 141, 142, 143, 144, 145, 146, 147, 148, 149, 150, 151, 152, 153, 154, 155, 156, 157, 158, 159, 160, 161, 162, 163, 164, 165, 166, 167, 168, 169, 170, 171, 172, 173, 174, 175, 176, 177, 178, 179, 180, 181, 182, 183, 184, 185, 186, 187, 188, 189, 190, 191, 192, 193, 194, 195, 196, 197, 198, 199, 200, 201, 202, 203, 204, 205, 206, 207, 208, 209, 210, 211, 212, 213, 214, 215, 216, 217, 218, 219, 220, 221, 222, 223, 224, 225, 226, 227, 228, 229, 230, 231, 232, 233, 234, 235, 236, 237, 238, 239, 240, 241, 242, 243, 244, 245, 246, 247, 248, 249, 250, 251, 252, 253, 254, 255, 256, 257, 258, 259, 260, 261, 262, 263, 264, 265, 266, 267, 268, 269, 270, 271, 272, 273, 274, 275, 276, 277, 278, 279, 280, 281, 282, 283, 284, 285, 286, 287, 288, 289, 290, 291, 292, 293, 294, 295, 296, 297, 298, 299, 300, 301, 302, 303, 304, 305, 306, 307, 308, 309, 310, 311, 312, 313, 314, 315, 316, 317, 318, 319, 320, 321, 322, 323, 324, 325, 326, 327, 328, 329, 330, 331, 332, 333, 334, 335, 336, 337, 338, 339, 340, 341, 342, 343, 344, 345, 346, 347, 348, 349, 350, 351, 352, 353, 354, 355, 356, 357, 358, 359, 360, 361, 362, 363, 364, 365, 366, 367, 368, 369, 370, 371, 372, 373, 374, 375, 376, 377, 378, 379, 380, 381, 382, 383, 384, 385, 386, 387, 388, 389, 390, 391, 392, 393, 394, 395, 396, 397, 398, 399, 400, 401, 402, 403, 404, 405, 406, 407, 408, 409, 410, 411, 412, 413, 414, 415, 416, 417, 418, 419, 420, 421, 422, 423, 424, 425, 426, 427, 428, 429, 430, 431, 432, 433, 434, 435, 436, 437, 438, 439, 440, 441, 442, 443, 444, 445, 446, 447, 448, 449, 450, 451, 452, 453, 454, 455, 456, 457, 458, 459, 460, 461, 462, 463, 464, 465, 466, 467, 468, 469, 470, 471, 472, 473, 474, 475, 476, 477, 478, 479, 480, 481, 482, 483, 484, 485, 486, 487, 488, 489, 490, 491, 492, 493, 494, 495, 496, 497, 498, 499, 500, 501, 502, 503, 504, 505, 506, 507, 508, 509, 510, 511, 512, 513, 514, 515, 516, 517, 518, 519, 520, 521, 522, 523, 524, 525, 526, 527, 528, 529, 530, 531, 532, 533, 534, 535, 536, 537, 538, 539, 540, 541, 542, 543, 544, 545, 546, 547, 548, 549, 550, 551, 552, 553, 554, 555, 556, 557, 558, 559, 560, 561, 562, 563, 564, 565, 566, 567, 568, 569, 570, 571, 572, 573, 574, 575, 576, 577, 578, 579, 580, 581],
      "AcquisitionTime": ["150128.722500", "150129.510000", "150130.297500", "150131.085000", "150131.875000", "150132.662500", "150133.450000", "150134.237500", "150135.027500", "150135.815000", "150136.602500", "150137.390000", "150138.180000", "150138.967500", "150139.755000", "150140.545000", "150141.332500", "150142.120000", "150142.907500", "150143.697500", "150144.485000", "150145.272500", "150146.060000", "150146.850000", "150147.637500", "150148.425000", "150149.212500", "150150.002500", "150150.790000", "150151.577500", "150152.365000", "150153.155000", "150153.942500", "150154.730000", "150155.517500", "150156.307500", "150157.095000", "150157.882500", "150158.672500", "150159.460000", "150200.247500", "150201.035000", "150201.825000", "150202.612500", "150203.400000", "150204.187500", "150204.977500", "150205.765000", "150206.552500", "150207.340000", "150208.130000", "150208.917500", "150209.705000", "150210.492500", "150211.282500", "150212.070000", "150212.857500", "150213.645000", "150214.435000", "150215.222500", "150216.010000", "150216.800000", "150217.587500", "150218.375000", "150219.162500", "150219.952500", "150220.740000", "150221.527500", "150222.315000", "150223.105000", "150223.892500", "150224.680000", "150225.467500", "150226.257500", "150227.045000", "150227.832500", "150228.620000", "150229.410000", "150230.197500", "150230.985000", "150231.775000", "150232.562500", "150233.350000", "150234.137500", "150234.927500", "150235.715000", "150236.502500", "150237.290000", "150238.080000", "150238.867500", "150239.655000", "150240.442500", "150241.232500", "150242.020000", "150242.807500", "150243.595000", "150244.385000", "150245.172500", "150245.960000", "150246.747500", "150247.537500", "150248.325000", "150249.112500", "150249.902500", "150250.690000", "150251.477500", "150252.265000", "150253.055000", "150253.842500", "150254.630000", "150255.417500", "150256.207500", "150256.995000", "150257.782500", "150258.570000", "150259.360000", "150300.147500", "150300.935000", "150301.722500", "150302.512500", "150303.300000", "150304.087500", "150304.875000", "150305.665000", "150306.452500", "150307.240000", "150308.030000", "150308.817500", "150309.605000", "150310.392500", "150311.182500", "150311.970000", "150312.757500", "150313.545000", "150314.335000", "150315.122500", "150315.910000", "150316.697500", "150317.487500", "150318.275000", "150319.062500", "150319.850000", "150320.640000", "150321.427500", "150322.215000", "150323.002500", "150323.792500", "150324.580000", "150325.367500", "150326.157500", "150326.945000", "150327.732500", "150328.520000", "150329.310000", "150330.097500", "150330.885000", "150331.672500", "150332.462500", "150333.250000", "150334.037500", "150334.825000", "150335.615000", "150336.402500", "150337.190000", "150337.977500", "150338.767500", "150339.555000", "150340.342500", "150341.130000", "150341.920000", "150342.707500", "150343.495000", "150344.285000", "150345.072500", "150345.860000", "150346.647500", "150347.437500", "150348.225000", "150349.012500", "150349.800000", "150350.590000", "150351.377500", "150352.165000", "150352.952500", "150353.742500", "150354.530000", "150355.317500", "150356.105000", "150356.895000", "150357.682500", "150358.470000", "150359.257500", "150400.047500", "150400.835000", "150401.622500", "150402.412500", "150403.200000", "150403.987500", "150404.775000", "150405.565000", "150406.352500", "150407.140000", "150407.927500", "150408.717500", "150409.505000", "150410.292500", "150411.080000", "150411.870000", "150412.657500", "150413.445000", "150414.232500", "150415.022500", "150415.810000", "150416.597500", "150417.385000", "150418.175000", "150418.962500", "150419.750000", "150420.540000", "150421.327500", "150422.115000", "150422.902500", "150423.692500", "150424.480000", "150425.267500", "150426.055000", "150426.845000", "150427.632500", "150428.420000", "150429.207500", "150429.997500", "150430.785000", "150431.572500", "150432.360000", "150433.150000", "150433.937500", "150434.725000", "150435.512500", "150436.302500", "150437.090000", "150437.877500", "150438.667500", "150439.455000", "150440.242500", "150441.030000", "150441.820000", "150442.607500", "150443.395000", "150444.182500", "150444.972500", "150445.760000", "150446.547500", "150447.335000", "150448.125000", "150448.912500", "150449.700000", "150450.487500", "150451.277500", "150452.065000", "150452.852500", "150453.640000", "150454.430000", "150455.217500", "150456.005000", "150456.795000", "150457.582500", "150458.370000", "150459.157500", "150459.947500", "150500.735000", "150501.522500", "150502.310000", "150503.100000", "150503.887500", "150504.675000", "150505.462500", "150506.252500", "150507.040000", "150507.827500", "150508.615000", "150509.405000", "150510.192500", "150510.980000", "150511.767500", "150512.557500", "150513.345000", "150514.132500", "150514.922500", "150515.710000", "150516.497500", "150517.285000", "150518.075000", "150518.862500", "150519.650000", "150520.437500", "150521.227500", "150522.015000", "150522.802500", "150523.590000", "150524.380000", "150525.167500", "150525.955000", "150526.742500", "150527.532500", "150528.320000", "150529.107500", "150529.895000", "150530.685000", "150531.472500", "150532.260000", "150533.050000", "150533.837500", "150534.625000", "150535.412500", "150536.202500", "150536.990000", "150537.777500", "150538.565000", "150539.355000", "150540.142500", "150540.930000", "150541.717500", "150542.507500", "150543.295000", "150544.082500", "150544.870000", "150545.660000", "150546.447500", "150547.235000", "150548.025000", "150548.812500", "150549.600000", "150550.387500", "150551.177500", "150551.965000", "150552.752500", "150553.540000", "150554.330000", "150555.117500", "150555.905000", "150556.692500", "150557.482500", "150558.270000", "150559.057500", "150559.845000", "150600.635000", "150601.422500", "150602.210000", "150602.997500", "150603.787500", "150604.575000", "150605.362500", "150606.152500", "150606.940000", "150607.727500", "150608.515000", "150609.305000", "150610.092500", "150610.880000", "150611.667500", "150612.457500", "150613.245000", "150614.032500", "150614.820000", "150615.610000", "150616.397500", "150617.185000", "150617.972500", "150618.762500", "150619.550000", "150620.337500", "150621.125000", "150621.915000", "150622.702500", "150623.490000", "150624.280000", "150625.067500", "150625.855000", "150626.642500", "150627.432500", "150628.220000", "150629.007500", "150629.795000", "150630.585000", "150631.372500", "150632.160000", "150632.947500", "150633.737500", "150634.525000", "150635.312500", "150636.100000", "150636.890000", "150637.677500", "150638.465000", "150639.252500", "150640.042500", "150640.830000", "150641.617500", "150642.407500", "150643.195000", "150643.982500", "150644.770000", "150645.560000", "150646.347500", "150647.135000", "150647.922500", "150648.712500", "150649.500000", "150650.287500", "150651.075000", "150651.865000", "150652.652500", "150653.440000", "150654.227500", "150655.017500", "150655.805000", "150656.592500", "150657.380000", "150658.170000", "150658.957500", "150659.745000", "150700.535000", "150701.322500", "150702.110000", "150702.897500", "150703.687500", "150704.475000", "150705.262500", "150706.050000", "150706.840000", "150707.627500", "150708.415000", "150709.202500", "150709.992500", "150710.780000", "150711.567500", "150712.355000", "150713.145000", "150713.932500", "150714.720000", "150715.507500", "150716.297500", "150717.085000", "150717.872500", "150718.662500", "150719.450000", "150720.237500", "150721.025000", "150721.815000", "150722.602500", "150723.390000", "150724.177500", "150724.967500", "150725.755000", "150726.542500", "150727.330000", "150728.120000", "150728.907500", "150729.695000", "150730.482500", "150731.272500", "150732.060000", "150732.847500", "150733.635000", "150734.425000", "150735.212500", "150736.000000", "150736.790000", "150737.577500", "150738.365000", "150739.152500", "150739.942500", "150740.730000", "150741.517500", "150742.305000", "150743.095000", "150743.882500", "150744.670000", "150745.457500", "150746.247500", "150747.035000", "150747.822500", "150748.610000", "150749.400000", "150750.187500", "150750.975000", "150751.762500", "150752.552500", "150753.340000", "150754.127500", "150754.917500", "150755.705000", "150756.492500", "150757.280000", "150758.070000", "150758.857500", "150759.645000", "150800.432500", "150801.222500", "150802.010000", "150802.797500", "150803.585000", "150804.375000", "150805.162500", "150805.950000", "150806.737500", "150807.527500", "150808.315000", "150809.102500", "150809.890000", "150810.680000", "150811.467500", "150812.255000", "150813.045000", "150813.832500", "150814.620000", "150815.407500", "150816.197500", "150816.985000", "150817.772500", "150818.560000", "150819.350000", "150820.137500", "150820.925000", "150821.712500", "150822.502500", "150823.290000", "150824.077500", "150824.865000", "150825.655000", "150826.442500", "150827.230000", "150828.017500", "150828.807500", "150829.595000", "150830.382500", "150831.172500", "150831.960000", "150832.747500", "150833.535000", "150834.325000", "150835.112500", "150835.900000", "150836.687500", "150837.477500", "150838.265000", "150839.052500", "150839.840000", "150840.630000", "150841.417500", "150842.205000", "150842.992500", "150843.782500", "150844.570000", "150845.357500", "150846.145000", "150846.935000", "150847.722500", "150848.510000", "150849.300000", "150850.087500", "150850.875000", "150851.662500", "150852.452500", "150853.240000", "150854.027500", "150854.815000", "150855.605000", "150856.392500", "150857.180000", "150857.967500", "150858.757500", "150859.545000", "150900.332500", "150901.120000", "150901.910000", "150902.697500", "150903.485000", "150904.275000", "150905.062500", "150905.850000"],
      "ContentTime": ["150205.453000", "150205.453000", "150205.453000", "150205.453000", "150205.453000", "150205.453000", "150205.453000", "150205.453000", "150205.468000", "150205.468000", "150205.468000", "150205.468000", "150205.468000", "150205.468000", "150205.468000", "150205.484000", "150205.484000", "150205.484000", "150205.484000", "150205.484000", "150205.484000", "150205.500000", "150205.500000", "150205.500000", "150205.500000", "150205.500000", "150205.500000", "150205.515000", "150205.515000", "150205.515000", "150205.515000", "150205.515000", "150205.515000", "150205.515000", "150205.515000", "150205.531000", "150205.531000", "150205.531000", "150205.531000", "150205.531000", "150205.531000", "150205.531000", "150205.546000", "150225.421000", "150225.421000", "150225.421000", "150225.421000", "150225.421000", "150225.421000", "150225.421000", "150225.421000", "150225.437000", "150225.437000", "150225.437000", "150225.437000", "150225.437000", "150225.437000", "150225.437000", "150225.437000", "150225.453000", "150225.453000", "150225.453000", "150225.453000", "150225.453000", "150225.453000", "150225.453000", "150225.468000", "150225.468000", "150225.468000", "150245.421000", "150245.421000", "150245.421000", "150245.421000", "150245.421000", "150245.421000", "150245.421000", "150245.421000", "150245.437000", "150245.437000", "150245.437000", "150245.437000", "150245.437000", "150245.437000", "150245.437000", "150245.437000", "150245.453000", "150245.453000", "150245.453000", "150245.453000", "150245.453000", "150245.453000", "150245.453000", "150245.468000", "150245.468000", "150305.421000", "150305.421000", "150305.421000", "150305.421000", "150305.421000", "150305.421000", "150305.421000", "150305.421000", "150305.437000", "150305.437000", "150305.437000", "150305.437000", "150305.437000", "150305.437000", "150305.437000", "150305.453000", "150305.453000", "150305.453000", "150305.453000", "150305.453000", "150305.453000", "150305.453000", "150305.453000", "150305.468000", "150305.468000", "150305.468000", "150325.421000", "150325.421000", "150325.421000", "150325.421000", "150325.421000", "150325.421000", "150325.421000", "150325.437000", "150325.437000", "150325.437000", "150325.437000", "150325.437000", "150325.437000", "150325.437000", "150325.437000", "150325.453000", "150325.453000", "150325.453000", "150325.453000", "150325.453000", "150325.453000", "150325.453000", "150325.453000", "150325.468000", "150325.468000", "150345.421000", "150345.421000", "150345.421000", "150345.421000", "150345.421000", "150345.421000", "150345.421000", "150345.437000", "150345.437000", "150345.437000", "150345.437000", "150345.437000", "150345.437000", "150345.437000", "150345.437000", "150345.453000", "150345.453000", "150345.453000", "150345.453000", "150345.453000", "150345.453000", "150345.453000", "150345.468000", "150345.468000", "150345.468000", "150345.468000", "150405.421000", "150405.421000", "150405.421000", "150405.421000", "150405.421000", "150405.421000", "150405.421000", "150405.421000", "150405.437000", "150405.437000", "150405.437000", "150405.437000", "150405.437000", "150405.437000", "150405.437000", "150405.453000", "150405.453000", "150405.453000", "150405.453000", "150405.453000", "150405.453000", "150405.453000", "150405.468000", "150405.468000", "150405.468000", "150425.421000", "150425.421000", "150425.421000", "150425.421000", "150425.421000", "150425.421000", "150425.421000", "150425.421000", "150425.437000", "150425.437000", "150425.437000", "150425.437000", "150425.437000", "150425.453000", "150425.453000", "150425.453000", "150425.453000", "150425.453000", "150425.453000", "150425.468000", "150425.468000", "150425.468000", "150425.468000", "150425.468000", "150425.468000", "150425.484000", "150445.421000", "150445.421000", "150445.421000", "150445.421000", "150445.421000", "150445.421000", "150445.437000", "150445.437000", "150445.437000", "150445.437000", "150445.437000", "150445.437000", "150445.437000", "150445.453000", "150445.453000", "150445.453000", "150445.453000", "150445.453000", "150445.453000", "150445.453000", "150445.468000", "150445.468000", "150445.468000", "150445.468000", "150445.468000", "150505.421000", "150505.421000", "150505.421000", "150505.421000", "150505.421000", "150505.421000", "150505.437000", "150505.437000", "150505.437000", "150505.437000", "150505.437000", "150505.453000", "150505.453000", "150505.453000", "150505.453000", "150505.453000", "150505.453000", "150505.453000", "150505.453000", "150505.468000", "150505.468000", "150505.468000", "150505.468000", "150505.468000", "150505.468000", "150525.421000", "150525.421000", "150525.421000", "150525.421000", "150525.421000", "150525.421000", "150525.421000", "150525.421000", "150525.437000", "150525.437000", "150525.437000", "150525.437000", "150525.437000", "150525.437000", "150525.437000", "150525.453000", "150525.453000", "150525.453000", "150525.453000", "150525.453000", "150525.453000", "150525.453000", "150525.453000", "150525.468000", "150525.468000", "150525.468000", "150545.421000", "150545.421000", "150545.421000", "150545.421000", "150545.421000", "150545.421000", "150545.421000", "150545.421000", "150545.437000", "150545.437000", "150545.437000", "150545.437000", "150545.437000", "150545.437000", "150545.437000", "150545.453000", "150545.453000", "150545.453000", "150545.453000", "150545.453000", "150545.453000", "150545.468000", "150545.468000", "150545.468000", "150545.468000", "150605.421000", "150605.421000", "150605.421000", "150605.421000", "150605.421000", "150605.421000", "150605.421000", "150605.421000", "150605.437000", "150605.437000", "150605.437000", "150605.437000", "150605.437000", "150605.437000", "150605.437000", "150605.453000", "150605.453000", "150605.453000", "150605.453000", "150605.453000", "150605.453000", "150605.453000", "150605.468000", "150605.468000", "150605.468000", "150605.468000", "150625.421000", "150625.421000", "150625.421000", "150625.421000", "150625.421000", "150625.421000", "150625.437000", "150625.437000", "150625.437000", "150625.437000", "150625.437000", "150625.437000", "150625.437000", "150625.437000", "150625.453000", "150625.453000", "150625.453000", "150625.453000", "150625.453000", "150625.453000", "150625.453000", "150625.468000", "150625.468000", "150625.468000", "150625.468000", "150645.421000", "150645.421000", "150645.421000", "150645.421000", "150645.421000", "150645.421000", "150645.421000", "150645.421000", "150645.437000", "150645.437000", "150645.437000", "150645.437000", "150645.437000", "150645.437000", "150645.437000", "150645.453000", "150645.453000", "150645.453000", "150645.453000", "150645.453000", "150645.453000", "150645.453000", "150645.453000", "150645.468000", "150645.468000", "150645.468000", "150705.421000", "150705.421000", "150705.421000", "150705.421000", "150705.421000", "150705.437000", "150705.437000", "150705.437000", "150705.437000", "150705.437000", "150705.437000", "150705.453000", "150705.453000", "150705.453000", "150705.453000", "150705.453000", "150705.453000", "150705.468000", "150705.468000", "150705.468000", "150705.468000", "150705.468000", "150705.468000", "150705.468000", "150705.468000", "150725.421000", "150725.421000", "150725.421000", "150725.421000", "150725.421000", "150725.421000", "150725.421000", "150725.421000", "150725.437000", "150725.437000", "150725.437000", "150725.437000", "150725.437000", "150725.437000", "150725.437000", "150725.453000", "150725.453000", "150725.453000", "150725.453000", "150725.453000", "150725.453000", "150725.453000", "150725.453000", "150725.468000", "150725.468000", "150725.468000", "150745.421000", "150745.421000", "150745.421000", "150745.421000", "150745.421000", "150745.421000", "150745.421000", "150745.421000", "150745.437000", "150745.437000", "150745.437000", "150745.437000", "150745.437000", "150745.437000", "150745.437000", "150745.453000", "150745.453000", "150745.453000", "150745.453000", "150745.453000", "150745.453000", "150745.453000", "150745.453000", "150745.468000", "150745.468000", "150805.421000", "150805.421000", "150805.421000", "150805.421000", "150805.421000", "150805.421000", "150805.421000", "150805.421000", "150805.437000", "150805.437000", "150805.437000", "150805.437000", "150805.437000", "150805.453000", "150805.453000", "150805.453000", "150805.453000", "150805.453000", "150805.453000", "150805.468000", "150805.468000", "150805.468000", "150805.468000", "150805.468000", "150805.468000", "150805.468000", "150825.421000", "150825.421000", "150825.421000", "150825.421000", "150825.421000", "150825.437000", "150825.437000", "150825.437000", "150825.437000", "150825.437000", "150825.453000", "150825.453000", "150825.453000", "150825.453000", "150825.453000", "150825.468000", "150825.468000", "150825.468000", "150825.468000", "150825.468000", "150825.468000", "150825.468000", "150825.468000", "150825.484000", "150825.484000", "150845.421000", "150845.421000", "150845.421000", "150845.421000", "150845.421000", "150845.421000", "150845.421000", "150845.421000", "150845.437000", "150845.437000", "150845.437000", "150845.437000", "150845.437000", "150845.437000", "150845.437000", "150845.453000", "150845.453000", "150845.453000", "150845.453000", "150845.453000", "150845.453000", "150845.453000", "150845.453000", "150845.468000", "150845.468000", "150845.468000", "150905.421000", "150905.421000", "150905.421000", "150905.421000", "150905.421000", "150905.421000", "150905.421000", "150905.421000", "150905.437000", "150905.437000", "150905.437000", "150905.437000", "150905.437000", "150905.437000", "150905.453000", "150905.453000", "150905.453000", "150905.453000", "150905.453000", "150905.453000", "150905.453000", "150905.468000", "150905.468000", "150905.468000", "150905.468000", "150907.296000", "150907.296000", "150907.296000"],
