{
  "AcquisitionMatrixPE": 104,
  "AcquisitionNumber": 1,
  "AcquisitionTime": "16:57:6.420000",
  "BandwidthPerPixelPhaseEncode": 13.935,
  "BaseResolution": 104,
  "CoilString": "C:HEA;HEP",
  "ConversionSoftware": "dcm2niix",
  "ConversionSoftwareVersion": "v1.0.20210317",
  "DerivedVendorReportedEchoSpacing": 0.000690017,
  "DeviceSerialNumber": "35450",
  "DwellTime": 2.5e-06,
  "EchoTime": 0.0348,
  "EffectiveEchoSpacing": 0.000690017,
  "FlipAngle": 55,
  "ImageComments": "Unaliased MB8/PE3",
  "ImageOrientationPatientDICOM": [1, 0, 0, 0, 0.985703, -0.168489],
  "ImageType": [
    "ORIGINAL",
    "PRIMARY",
    "M",
    "MB",
    "ND",
    "MOSAIC"
],
  "ImagingFrequency": 123.235,
  "InPlanePhaseEncodingDirectionDICOM": "COL",
  "InstitutionAddress": "Univeristy Ave. 197,Newark,North East,US,07102-1814",
  "InstitutionName": "RUBIC",
  "InstitutionalDepartmentName": "Department",
  "MRAcquisitionType": "2D",
  "MagneticFieldStrength": 3,
  "Manufacturer": "Siemens",
  "ManufacturersModelName": "TrioTim",
  "Modality": "MR",
  "MultibandAccelerationFactor": 8,
  "PartialFourier": 0.875,
  "PatientPosition": "HFS",
  "PercentPhaseFOV": 100,
  "PercentSampling": 100,
  "PhaseEncodingDirection": "j-",
  "PhaseEncodingSteps": 91,
  "PhaseResolution": 1,
  "PixelBandwidth": 1923,
  "ProcedureStepDescription": "Cole^Michael",
  "ProtocolName": "cmrr_mbep2d_bold_2mm_MB8_Task_8x",
  "PulseSequenceDetails": "%CustomerSeq%\\cmrr_mbep2d_bold",
  "ReceiveCoilName": "32Ch_Head",
  "ReconMatrixPE": 104,
  "RepetitionTime": 0.785,
  "SAR": 0.121598,
  "ScanOptions": "PFP\\FS",
  "ScanningSequence": "EP",
  "SequenceName": "epfid2d1_104",
  "SequenceVariant": "SK\\SS",
  "SeriesDescription": "cmrr_mbep2d_bold_2mm_MB8_Task_8x",
  "SeriesNumber": 27,
  "ShimSetting": [2109, -370, -7308, 464, -76, -366, 231, -20],
  "SliceThickness": 2,
  "SliceTiming": [0, 0.4375, 0.0875, 0.525, 0.175, 0.6125, 0.2625, 0.7, 0.35, 0, 0.4375, 0.0875, 0.525, 0.175, 0.6125, 0.2625, 0.7, 0.35, 0, 0.4375, 0.0875, 0.525, 0.175, 0.6125, 0.2625, 0.7, 0.35, 0, 0.4375, 0.0875, 0.525, 0.175, 0.6125, 0.2625, 0.7, 0.35, 0, 0.4375, 0.0875, 0.525, 0.175, 0.6125, 0.2625, 0.7, 0.35, 0, 0.4375, 0.0875, 0.525, 0.175, 0.6125, 0.2625, 0.7, 0.35, 0, 0.4375, 0.0875, 0.525, 0.175, 0.6125, 0.2625, 0.7, 0.35, 0, 0.4375, 0.0875, 0.525, 0.175, 0.6125, 0.2625, 0.7, 0.35],
  "SoftwareVersions": "syngo MR B19",
  "SpacingBetweenSlices": 2,
  "StationName": "MRC35450",
  "TaskName": "cpro",
  "TotalReadoutTime": 0.0710717,
  "TxRefAmp": 325.228,
  "dcmmeta_affine": [
    [-2.0, 0.0, 0.0, 108.74576568603516],
    [0.0, 1.9714069366455078, -0.3369787633419037, -82.88409423828125],
    [0.0, 0.3369787633419037, 1.9714069366455078, -95.2870864868164],
    [0.0, 0.0, 0.0, 1.0]
],
  "dcmmeta_reorient_transform": [
    [0.0, -1.0, 0.0, 103.0],
    [1.0, 0.0, 0.0, 0.0],
    [0.0, 0.0, 1.0, 0.0],
    [0.0, 0.0, 0.0, 1.0]
],
  "dcmmeta_shape": [104, 104, 72, 581],
  "dcmmeta_slice_dim": 2,
  "dcmmeta_version": 0.6,
  "global": {
    "const": {
      "AcquisitionMatrix": [104, 0, 0, 104],
      "AngioFlag": "N",
      "BitsAllocated": 16,
      "BitsStored": 12,
      "Columns": 936,
      "EchoNumbers": 1,
      "EchoTime": 34.8,
      "EchoTrainLength": 1,
      "FlipAngle": 55.0,
      "HighBit": 11,
      "ImageOrientationPatient": [1.0, 0.0, 0.0, 0.0, 0.98570346846845, -0.1684893831945],
      "ImagePositionPatient": [-940.74576282501, -940.27610792446, 79.604896898586],
      "ImageType": [
        "ORIGINAL",
        "PRIMARY",
        "M",
        "MB",
        "ND",
        "MOSAIC"
],
      "ImagedNucleus": "1H",
      "ImagingFrequency": 123.234568,
      "InPlanePhaseEncodingDirection": "COL",
      "MRAcquisitionType": "2D",
      "MagneticFieldStrength": 3.0,
      "Manufacturer": "SIEMENS",
      "ManufacturerModelName": "TrioTim",
      "Modality": "MR",
      "NumberOfAverages": 1.0,
      "NumberOfPhaseEncodingSteps": 91,
      "PercentPhaseFieldOfView": 100.0,
      "PercentSampling": 100.0,
      "PerformedProcedureStepStartTime": "142138.500000",
      "PhotometricInterpretation": "MONOCHROME2",
      "PixelBandwidth": 1923.0,
      "PixelRepresentation": 0,
      "PixelSpacing": [2.0, 2.0],
      "ProtocolName": "cmrr_mbep2d_bold_2mm_MB8_Task_8x",
      "RepetitionTime": 785.0,
      "Rows": 936,
      "SAR": 0.12159821945813,
      "SamplesPerPixel": 1,
      "ScanOptions": [
        "PFP",
        "FS"
],
      "ScanningSequence": "EP",
      "SequenceName": "epfid2d1_104",
      "SequenceVariant": [
        "SK",
        "SS"
],
      "SeriesDescription": "cmrr_mbep2d_bold_2mm_MB8_Task_8x",
      "SeriesNumber": 27,
      "SeriesTime": "184210.015000",
      "SliceLocation": -79.959718476726,
      "SliceThickness": 2.0,
      "SmallestImagePixelValue": 0,
      "SoftwareVersions": "syngo MR B19",
      "SpacingBetweenSlices": 1.9999999729315,
      "SpecificCharacterSet": "ISO_IR 100",
      "StudyID": "1",
      "StudyTime": "142138.468000",
      "TransmitCoilName": "Body",
      "VariableFlipAngleFlag": "N",
      "WindowCenterWidthExplanation": "Algo1",
      "dBdt": 0.0},
    "slices": {}
  },
  "time": {
    "samples": {
      "AcquisitionNumber": [1, 2, 3, 4, 5, 6, 7, 8, 9, 10, 11, 12, 13, 14, 15, 16, 17, 18, 19, 20, 21, 22, 23, 24, 25, 26, 27, 28, 29, 30, 31, 32, 33, 34, 35, 36, 37, 38, 39, 40, 41, 42, 43, 44, 45, 46, 47, 48, 49, 50, 51, 52, 53, 54, 55, 56, 57, 58, 59, 60, 61, 62, 63, 64, 65, 66, 67, 68, 69, 70, 71, 72, 73, 74, 75, 76, 77, 78, 79, 80, 81, 82, 83, 84, 85, 86, 87, 88, 89, 90, 91, 92, 93, 94, 95, 96, 97, 98, 99, 100, 101, 102, 103, 104, 105, 106, 107, 108, 109, 110, 111, 112, 113, 114, 115, 116, 117, 118, 119, 120, 121, 122, 123, 124, 125, 126, 127, 128, 129, 130, 131, 132, 133, 134, 135, 136, 137, 138, 139, 140, 141, 142, 143, 144, 145, 146, 147, 148, 149, 150, 151, 152, 153, 154, 155, 156, 157, 158, 159, 160, 161, 162, 163, 164, 165, 166, 167, 168, 169, 170, 171, 172, 173, 174, 175, 176, 177, 178, 179, 180, 181, 182, 183, 184, 185, 186, 187, 188, 189, 190, 191, 192, 193, 194, 195, 196, 197, 198, 199, 200, 201, 202, 203, 204, 205, 206, 207, 208, 209, 210, 211, 212, 213, 214, 215, 216, 217, 218, 219, 220, 221, 222, 223, 224, 225, 226, 227, 228, 229, 230, 231, 232, 233, 234, 235, 236, 237, 238, 239, 240, 241, 242, 243, 244, 245, 246, 247, 248, 249, 250, 251, 252, 253, 254, 255, 256, 257, 258, 259, 260, 261, 262, 263, 264, 265, 266, 267, 268, 269, 270, 271, 272, 273, 274, 275, 276, 277, 278, 279, 280, 281, 282, 283, 284, 285, 286, 287, 288, 289, 290, 291, 292, 293, 294, 295, 296, 297, 298, 299, 300, 301, 302, 303, 304, 305, 306, 307, 308, 309, 310, 311, 312, 313, 314, 315, 316, 317, 318, 319, 320, 321, 322, 323, 324, 325, 326, 327, 328, 329, 330, 331, 332, 333, 334, 335, 336, 337, 338, 339, 340, 341, 342, 343, 344, 345, 346, 347, 348, 349, 350, 351, 352, 353, 354, 355, 356, 357, 358, 359, 360, 361, 362, 363, 364, 365, 366, 367, 368, 369, 370, 371, 372, 373, 374, 375, 376, 377, 378, 379, 380, 381, 382, 383, 384, 385, 386, 387, 388, 389, 390, 391, 392, 393, 394, 395, 396, 397, 398, 399, 400, 401, 402, 403, 404, 405, 406, 407, 408, 409, 410, 411, 412, 413, 414, 415, 416, 417, 418, 419, 420, 421, 422, 423, 424, 425, 426, 427, 428, 429, 430, 431, 432, 433, 434, 435, 436, 437, 438, 439, 440, 441, 442, 443, 444, 445, 446, 447, 448, 449, 450, 451, 452, 453, 454, 455, 456, 457, 458, 459, 460, 461, 462, 463, 464, 465, 466, 467, 468, 469, 470, 471, 472, 473, 474, 475, 476, 477, 478, 479, 480, 481, 482, 483, 484, 485, 486, 487, 488, 489, 490, 491, 492, 493, 494, 495, 496, 497, 498, 499, 500, 501, 502, 503, 504, 505, 506, 507, 508, 509, 510, 511, 512, 513, 514, 515, 516, 517, 518, 519, 520, 521, 522, 523, 524, 525, 526, 527, 528, 529, 530, 531, 532, 533, 534, 535, 536, 537, 538, 539, 540, 541, 542, 543, 544, 545, 546, 547, 548, 549, 550, 551, 552, 553, 554, 555, 556, 557, 558, 559, 560, 561, 562, 563, 564, 565, 566, 567, 568, 569, 570, 571, 572, 573, 574, 575, 576, 577, 578, 579, 580, 581],
      "AcquisitionTime": ["165706.420000", "165707.207500", "165707.995000", "165708.785000", "165709.572500", "165710.360000", "165711.147500", "165711.937500", "165712.725000", "165713.512500", "165714.300000", "165715.090000", "165715.877500", "165716.665000", "165717.452500", "165718.242500", "165719.030000", "165719.817500", "165720.605000", "165721.395000", "165722.182500", "165722.970000", "165723.760000", "165724.547500", "165725.335000", "165726.122500", "165726.912500", "165727.700000", "165728.487500", "165729.275000", "165730.065000", "165730.852500", "165731.640000", "165732.427500", "165733.217500", "165734.005000", "165734.792500", "165735.580000", "165736.370000", "165737.157500", "165737.945000", "165738.732500", "165739.522500", "165740.310000", "165741.097500", "165741.887500", "165742.675000", "165743.462500", "165744.250000", "165745.040000", "165745.827500", "165746.615000", "165747.402500", "165748.192500", "165748.980000", "165749.767500", "165750.555000", "165751.345000", "165752.132500", "165752.920000", "165753.707500", "165754.497500", "165755.285000", "165756.072500", "165756.860000", "165757.650000", "165758.437500", "165759.225000", "165800.015000", "165800.802500", "165801.590000", "165802.377500", "165803.167500", "165803.955000", "165804.742500", "165805.530000", "165806.320000", "165807.107500", "165807.895000", "165808.682500", "165809.472500", "165810.260000", "165811.047500", "165811.835000", "165812.625000", "165813.412500", "165814.200000", "165814.987500", "165815.777500", "165816.565000", "165817.352500", "165818.142500", "165818.930000", "165819.717500", "165820.505000", "165821.295000", "165822.082500", "165822.870000", "165823.657500", "165824.447500", "165825.235000", "165826.022500", "165826.810000", "165827.600000", "165828.387500", "165829.175000", "165829.962500", "165830.752500", "165831.540000", "165832.327500", "165833.115000", "165833.905000", "165834.692500", "165835.480000", "165836.270000", "165837.057500", "165837.845000", "165838.632500", "165839.422500", "165840.210000", "165840.997500", "165841.785000", "165842.575000", "165843.362500", "165844.150000", "165844.937500", "165845.727500", "165846.515000", "165847.302500", "165848.090000", "165848.880000", "165849.667500", "165850.455000", "165851.242500", "165852.032500", "165852.820000", "165853.607500", "165854.397500", "165855.185000", "165855.972500", "165856.760000", "165857.550000", "165858.337500", "165859.125000", "165859.912500", "165900.702500", "165901.490000", "165902.277500", "165903.065000", "165903.855000", "165904.642500", "165905.430000", "165906.217500", "165907.007500", "165907.795000", "165908.582500", "165909.370000", "165910.160000", "165910.947500", "165911.735000", "165912.525000", "165913.312500", "165914.100000", "165914.887500", "165915.677500", "165916.465000", "165917.252500", "165918.040000", "165918.830000", "165919.617500", "165920.405000", "165921.192500", "165921.982500", "165922.770000", "165923.557500", "165924.345000", "165925.135000", "165925.922500", "165926.710000", "165927.497500", "165928.287500", "165929.075000", "165929.862500", "165930.652500", "165931.440000", "165932.227500", "165933.015000", "165933.805000", "165934.592500", "165935.380000", "165936.167500", "165936.957500", "165937.745000", "165938.532500", "165939.320000", "165940.110000", "165940.897500", "165941.685000", "165942.472500", "165943.262500", "165944.050000", "165944.837500", "165945.625000", "165946.415000", "165947.202500", "165947.990000", "165948.780000", "165949.567500", "165950.355000", "165951.142500", "165951.932500", "165952.720000", "165953.507500", "165954.295000", "165955.085000", "165955.872500", "165956.660000", "165957.447500", "165958.237500", "165959.025000", "165959.812500", "170000.600000", "170001.390000", "170002.177500", "170002.965000", "170003.755000", "170004.542500", "170005.330000", "170006.117500", "170006.907500", "170007.695000", "170008.482500", "170009.270000", "170010.060000", "170010.847500", "170011.635000", "170012.422500", "170013.212500", "170014.000000", "170014.787500", "170015.575000", "170016.365000", "170017.152500", "170017.940000", "170018.727500", "170019.517500", "170020.305000", "170021.092500", "170021.882500", "170022.670000", "170023.457500", "170024.245000", "170025.035000", "170025.822500", "170026.610000", "170027.397500", "170028.187500", "170028.975000", "170029.762500", "170030.550000", "170031.340000", "170032.127500", "170032.915000", "170033.702500", "170034.492500", "170035.280000", "170036.067500", "170036.855000", "170037.645000", "170038.432500", "170039.220000", "170040.010000", "170040.797500", "170041.585000", "170042.372500", "170043.162500", "170043.950000", "170044.737500", "170045.525000", "170046.315000", "170047.102500", "170047.890000", "170048.677500", "170049.467500", "170050.255000", "170051.042500", "170051.830000", "170052.620000", "170053.407500", "170054.195000", "170054.982500", "170055.772500", "170056.560000", "170057.347500", "170058.137500", "170058.925000", "170059.712500", "170100.500000", "170101.290000", "170102.077500", "170102.865000", "170103.652500", "170104.442500", "170105.230000", "170106.017500", "170106.805000", "170107.595000", "170108.382500", "170109.170000", "170109.957500", "170110.747500", "170111.535000", "170112.322500", "170113.110000", "170113.900000", "170114.687500", "170115.475000", "170116.265000", "170117.052500", "170117.840000", "170118.627500", "170119.417500", "170120.205000", "170120.992500", "170121.780000", "170122.570000", "170123.357500", "170124.145000", "170124.932500", "170125.722500", "170126.510000", "170127.297500", "170128.085000", "170128.875000", "170129.662500", "170130.450000", "170131.237500", "170132.027500", "170132.815000", "170133.602500", "170134.392500", "170135.180000", "170135.967500", "170136.755000", "170137.545000", "170138.332500", "170139.120000", "170139.907500", "170140.697500", "170141.485000", "170142.272500", "170143.060000", "170143.850000", "170144.637500", "170145.425000", "170146.212500", "170147.002500", "170147.790000", "170148.577500", "170149.365000", "170150.155000", "170150.942500", "170151.730000", "170152.520000", "170153.307500", "170154.095000", "170154.882500", "170155.672500", "170156.460000", "170157.247500", "170158.035000", "170158.825000", "170159.612500", "170200.400000", "170201.187500", "170201.977500", "170202.765000", "170203.552500", "170204.340000", "170205.130000", "170205.917500", "170206.705000", "170207.492500", "170208.282500", "170209.070000", "170209.857500", "170210.647500", "170211.435000", "170212.222500", "170213.010000", "170213.800000", "170214.587500", "170215.375000", "170216.162500", "170216.952500", "170217.740000", "170218.527500", "170219.315000", "170220.105000", "170220.892500", "170221.680000", "170222.467500", "170223.257500", "170224.045000", "170224.832500", "170225.620000", "170226.410000", "170227.197500", "170227.985000", "170228.775000", "170229.562500", "170230.350000", "170231.137500", "170231.927500", "170232.715000", "170233.502500", "170234.290000", "170235.080000", "170235.867500", "170236.655000", "170237.442500", "170238.232500", "170239.020000", "170239.807500", "170240.595000", "170241.385000", "170242.172500", "170242.960000", "170243.747500", "170244.537500", "170245.325000", "170246.112500", "170246.902500", "170247.690000", "170248.477500", "170249.265000", "170250.055000", "170250.842500", "170251.630000", "170252.417500", "170253.207500", "170253.995000", "170254.782500", "170255.570000", "170256.360000", "170257.147500", "170257.935000", "170258.722500", "170259.512500", "170300.300000", "170301.087500", "170301.875000", "170302.665000", "170303.452500", "170304.240000", "170305.030000", "170305.817500", "170306.605000", "170307.392500", "170308.182500", "170308.970000", "170309.757500", "170310.545000", "170311.335000", "170312.122500", "170312.910000", "170313.697500", "170314.487500", "170315.275000", "170316.062500", "170316.850000", "170317.640000", "170318.427500", "170319.215000", "170320.005000", "170320.792500", "170321.580000", "170322.367500", "170323.157500", "170323.945000", "170324.732500", "170325.520000", "170326.310000", "170327.097500", "170327.885000", "170328.672500", "170329.462500", "170330.250000", "170331.037500", "170331.825000", "170332.615000", "170333.402500", "170334.190000", "170334.977500", "170335.767500", "170336.555000", "170337.342500", "170338.132500", "170338.920000", "170339.707500", "170340.495000", "170341.285000", "170342.072500", "170342.860000", "170343.647500", "170344.437500", "170345.225000", "170346.012500", "170346.800000", "170347.590000", "170348.377500", "170349.165000", "170349.952500", "170350.742500", "170351.530000", "170352.317500", "170353.105000", "170353.895000", "170354.682500", "170355.470000", "170356.260000", "170357.047500", "170357.835000", "170358.622500", "170359.412500", "170400.200000", "170400.987500", "170401.775000", "170402.565000", "170403.352500", "170404.140000", "170404.927500", "170405.717500", "170406.505000", "170407.292500", "170408.080000", "170408.870000", "170409.657500", "170410.445000", "170411.232500", "170412.022500", "170412.810000", "170413.597500", "170414.387500", "170415.175000", "170415.962500", "170416.750000", "170417.540000", "170418.327500", "170419.115000", "170419.902500", "170420.692500", "170421.480000", "170422.267500", "170423.055000", "170423.845000", "170424.632500", "170425.420000", "170426.207500", "170426.997500", "170427.785000", "170428.572500", "170429.360000", "170430.150000", "170430.937500", "170431.725000", "170432.515000", "170433.302500", "170434.090000", "170434.877500", "170435.667500", "170436.455000", "170437.242500", "170438.030000", "170438.820000", "170439.607500", "170440.395000", "170441.182500", "170441.972500", "170442.760000", "170443.547500"],
      "ContentTime": ["184210.015000", "184210.031000", "184210.031000", "184210.031000", "184210.031000", "184210.031000", "184210.031000", "184210.031000", "184210.046000", "184210.046000", "184310.000000", "184310.000000", "184310.000000", "184310.015000", "184310.015000", "184310.015000", "184310.015000", "184310.015000", "184310.015000", "184310.015000", "184310.031000", "184310.031000", "184310.031000", "184310.031000", "184310.031000", "184310.031000", "184310.031000", "184310.046000", "184310.046000", "184310.046000", "184310.046000", "184310.046000", "184310.046000", "184310.046000", "184310.062000", "184310.062000", "184310.062000", "184310.062000", "184410.000000", "184410.000000", "184410.000000", "184410.015000", "184410.015000", "184410.015000", "184410.015000", "184410.015000", "184410.015000", "184410.015000", "184410.031000", "184410.031000", "184410.031000", "184410.031000", "184410.031000", "184410.031000", "184410.031000", "184410.046000", "184410.046000", "184410.046000", "184410.046000", "184410.046000", "184410.062000", "184410.062000", "184410.062000", "184410.062000", "184410.062000", "184410.062000", "184410.062000", "184510.000000", "184510.000000", "184510.000000", "184510.015000", "184510.015000", "184510.015000", "184510.015000", "184510.015000", "184510.015000", "184510.015000", "184510.031000", "184510.031000", "184510.031000", "184510.031000", "184510.031000", "184510.031000", "184510.031000", "184510.046000", "184510.046000", "184510.046000", "184510.046000", "184510.046000", "184510.046000", "184510.046000", "184510.062000", "184510.062000", "184510.062000", "184510.062000", "184610.000000", "184610.000000", "184610.000000", "184610.015000", "184610.015000", "184610.015000", "184610.015000", "184610.015000", "184610.015000", "184610.015000", "184610.031000", "184610.031000", "184610.031000", "184610.031000", "184610.031000", "184610.046000", "184610.046000", "184610.046000", "184610.046000", "184610.046000", "184610.046000", "184610.046000", "184610.062000", "184610.062000", "184610.062000", "184610.062000", "184610.062000", "184610.062000", "184710.000000", "184710.000000", "184710.000000", "184710.015000", "184710.015000", "184710.015000", "184710.015000", "184710.015000", "184710.015000", "184710.015000", "184710.031000", "184710.031000", "184710.031000", "184710.031000", "184710.031000", "184710.031000", "184710.031000", "184710.046000", "184710.046000", "184710.046000", "184710.046000", "184710.046000", "184710.046000", "184710.062000", "184710.062000", "184710.062000", "184710.062000", "184710.062000", "184750.000000", "184750.000000", "184750.000000", "184750.015000", "184750.015000", "184750.015000", "184750.015000", "184750.015000", "184750.015000", "184750.015000", "184750.031000", "184750.031000", "184750.031000", "184750.031000", "184750.031000", "184750.031000", "184750.031000", "184750.046000", "184750.046000", "184850.000000", "184850.000000", "184850.000000", "184850.015000", "184850.015000", "184850.015000", "184850.015000", "184850.015000", "184850.015000", "184850.015000", "184850.031000", "184850.031000", "184850.031000", "184850.031000", "184850.031000", "184850.031000", "184850.031000", "184850.046000", "184850.046000", "184850.046000", "184850.046000", "184850.046000", "184850.062000", "184850.062000", "184850.062000", "184850.062000", "184850.062000", "184850.062000", "184950.000000", "184950.000000", "184950.000000", "184950.015000", "184950.015000", "184950.015000", "184950.015000", "184950.015000", "184950.015000", "184950.015000", "184950.031000", "184950.031000", "184950.031000", "184950.031000", "184950.031000", "184950.031000", "184950.031000", "184950.046000", "184950.046000", "184950.046000", "184950.046000", "184950.046000", "184950.046000", "184950.046000", "184950.062000", "184950.062000", "184950.062000", "184950.062000", "184950.078000", "185050.000000", "185050.000000", "185050.000000", "185050.015000", "185050.015000", "185050.015000", "185050.015000", "185050.015000", "185050.015000", "185050.015000", "185050.031000", "185050.031000", "185050.031000", "185050.031000", "185050.031000", "185050.046000", "185050.046000", "185050.046000", "185050.046000", "185050.046000", "185050.046000", "185050.046000", "185050.062000", "185050.062000", "185050.062000", "185050.062000", "185050.062000", "185050.062000", "185150.000000", "185150.000000", "185150.000000", "185150.015000", "185150.015000", "185150.015000", "185150.015000", "185150.015000", "185150.015000", "185150.015000", "185150.031000", "185150.031000", "185150.031000", "185150.031000", "185150.031000", "185150.031000", "185150.031000", "185150.046000", "185150.046000", "185150.046000", "185150.046000", "185150.046000", "185150.046000", "185150.046000", "185150.062000", "185150.062000", "185150.062000", "185150.062000", "185250.000000", "185250.000000", "185250.000000", "185250.015000", "185250.015000", "185250.015000", "185250.015000", "185250.015000", "185250.031000", "185250.031000", "185250.031000", "185250.031000", "185250.031000", "185250.031000", "185250.031000", "185250.046000", "185250.046000", "185250.046000", "185250.046000", "185250.046000", "185250.062000", "185250.062000", "185250.062000", "185250.062000", "185250.062000", "185250.062000", "185250.062000", "185250.078000", "185350.000000", "185350.000000", "185350.000000", "185350.015000", "185350.015000", "185350.015000", "185350.015000", "185350.015000", "185350.015000", "185350.015000", "185350.031000", "185350.031000", "185350.031000", "185350.031000", "185350.031000", "185350.031000", "185350.031000", "185350.046000", "185350.046000", "185350.046000", "185350.046000", "185350.046000", "185350.046000", "185350.046000", "185350.062000", "185350.062000", "185350.062000", "185350.062000", "185350.062000", "185450.000000", "185450.000000", "185450.000000", "185450.015000", "185450.015000", "185450.015000", "185450.015000", "185450.015000", "185450.015000", "185450.015000", "185450.031000", "185450.031000", "185450.031000", "185450.031000", "185450.031000", "185450.031000", "185450.031000", "185450.046000", "185450.046000", "185450.046000", "185450.046000", "185450.046000", "185450.046000", "185450.062000", "185450.062000", "185450.062000", "185450.062000", "185450.062000", "185550.000000", "185550.000000", "185550.000000", "185550.015000", "185550.015000", "185550.015000", "185550.015000", "185550.015000", "185550.015000", "185550.015000", "185550.031000", "185550.031000", "185550.031000", "185550.031000", "185550.031000", "185550.031000", "185550.031000", "185550.046000", "185550.046000", "185550.046000", "185550.046000", "185550.046000", "185550.062000", "185550.062000", "185550.062000", "185550.062000", "185550.062000", "185550.062000", "185650.000000", "185650.000000", "185650.000000", "185650.015000", "185650.015000", "185650.015000", "185650.015000", "185650.015000", "185650.015000", "185650.015000", "185650.031000", "185650.031000", "185650.031000", "185650.031000", "185650.031000", "185650.031000", "185650.031000", "185650.046000", "185650.046000", "185650.046000", "185650.062000", "185650.062000", "185650.062000", "185650.062000", "185650.062000", "185650.062000", "185650.062000", "185650.078000", "185750.000000", "185750.000000", "185750.000000", "185750.015000", "185750.015000", "185750.015000", "185750.015000", "185750.015000", "185750.015000", "185750.015000", "185750.031000", "185750.031000", "185750.031000", "185750.031000", "185750.031000", "185750.031000", "185750.031000", "185750.046000", "185750.046000", "185750.046000", "185750.046000", "185750.046000", "185750.046000", "185750.062000", "185750.062000", "185750.062000", "185750.062000", "185750.062000", "185750.062000", "185850.000000", "185850.000000", "185850.000000", "185850.015000", "185850.015000", "185850.015000", "185850.015000", "185850.015000", "185850.015000", "185850.015000", "185850.031000", "185850.031000", "185850.031000", "185850.031000", "185850.031000", "185850.031000", "185850.031000", "185850.046000", "185850.046000", "185850.046000", "185850.046000", "185850.046000", "185850.046000", "185850.046000", "185850.062000", "185850.062000", "185850.062000", "185850.062000", "185950.000000", "185950.000000", "185950.000000", "185950.015000", "185950.015000", "185950.015000", "185950.015000", "185950.015000", "185950.015000", "185950.015000", "185950.031000", "185950.031000", "185950.031000", "185950.031000", "185950.031000", "185950.031000", "185950.046000", "185950.046000", "185950.046000", "185950.046000", "185950.046000", "185950.046000", "185950.046000", "185950.062000", "185950.062000", "185950.062000", "185950.062000", "185950.062000", "190050.000000", "190050.000000", "190050.000000", "190050.015000", "190050.015000", "190050.015000", "190050.015000", "190050.015000", "190050.015000", "190050.031000", "190050.031000", "190050.031000", "190050.031000", "190050.031000", "190050.031000", "190050.031000", "190050.046000", "190050.046000", "190050.046000", "190050.046000", "190050.046000", "190050.062000", "190050.062000", "190050.062000", "190050.062000", "190050.062000", "190050.078000", "190050.078000", "190050.078000", "190150.000000", "190150.000000", "190150.000000", "190150.015000", "190150.015000", "190150.015000", "190150.015000", "190150.015000", "190150.015000", "190150.015000", "190150.031000", "190150.031000", "190150.031000", "190150.031000", "190150.031000", "190150.031000", "190150.031000", "190150.046000", "190150.046000", "190150.046000", "190150.046000", "190150.046000", "190150.046000", "190150.062000", "190150.062000", "190150.062000", "190150.062000", "190150.062000", "190220.734000", "190220.750000", "190220.750000", "190220.750000", "190220.750000", "190220.750000", "190220.750000", "190220.750000", "190220.765000", "190220.765000", "190220.765000", "190220.765000", "190220.765000", "190220.765000", "190220.765000"],
      "DataSetTrailingPadding": [
        "\u0000\u0000\u0000\u0000\u0000\u0000\u0000\u0000\u0000\u0000\u0000\u0000\u0000\u0000\u0000\u0000\u0000\u0000\u0000\u0000\u0000\u0000\u0000\u0000\u0000\u0000\u0000\u0000\u0000\u0000\u0000\u0000\u0000\u0000\u0000\u0000\u0000\u0000\u0000\u0000\u0000\u0000\u0000\u0000\u0000\u0000\u0000\u0000\u0000\u0000\u0000\u0000\u0000\u0000\u0000\u0000\u0000\u0000\u0000\u0000\u0000\u0000\u0000\u0000\u0000\u0000\u0000\u0000\u0000\u0000\u0000\u0000\u0000\u0000\u0000\u0000\u0000\u0000\u0000\u0000\u0000\u0000\u0000\u0000\u0000\u0000\u0000\u0000\u0000\u0000\u0000\u0000\u0000\u0000\u0000\u0000\u0000\u0000\u0000\u0000\u0000\u0000\u0000\u0000\u0000\u0000\u0000\u0000\u0000\u0000\u0000\u0000\u0000\u0000\u0000\u0000\u0000\u0000\u0000\u0000\u0000\u0000\u0000\u0000\u0000\u0000\u0000\u0000\u0000\u0000\u0000\u0000\u0000\u0000\u0000\u0000\u0000\u0000\u0000\u0000\u0000\u0000\u0000\u0000\u0000\u0000\u0000\u0000\u0000\u0000\u0000\u0000\u0000\u0000\u0000\u0000\u0000\u0000\u0000\u0000\u0000\u0000\u0000\u0000\u0000\u0000\u0000\u0000\u0000\u0000\u0000\u0000\u0000\u0000\u0000\u0000\u0000\u0000\u0000\u0000\u0000\u0000\u0000\u0000\u0000\u0000\u0000\u0000\u0000\u0000\u0000\u0000\u0000\u0000\u0000\u0000\u0000\u0000\u0000\u0000\u0000\u0000\u0000\u0000\u0000\u0000\u0000\u0000\u0000\u0000\u0000\u0000\u0000\u0000\u0000\u0000\u0000\u0000\u0000\u0000\u0000\u0000\u0000\u0000\u0000\u0000\u0000\u0000\u0000\u0000\u0000\u0000\u0000\u0000\u0000\u0000\u0000\u0000\u0000\u0000\u0000\u0000\u0000\u0000\u0000\u0000\u0000\u0000\u0000\u0000\u0000\u0000\u0000\u0000\u0000\u0000\u0000\u0000\u0000\u0000\u0000\u0000\u0000\u0000\u0000\u0000\u0000\u0000\u0000\u0000\u0000\u0000\u0000\u0000\u0000\u0000\u0000\u0000\u0000\u0000\u0000\u0000\u0000\u0000\u0000\u0000\u0000\u0000\u0000\u0000\u0000\u0000\u0000\u0000",
